bandpass 1,bandpass 2,bandpass 3,bandpass 4,bandpass 5,time,onset,mark
-0.001173918,0.0005503359999999999,0.004882676000000001,-0.000904254,-0.001815156,4.403,0,0
-0.002254464,-0.00036629600000000033,0.007411436,-0.0009843465999999999,-0.002317986,4.404,1,1
-0.004339384,-0.0030455360000000006,0.008810646,-0.0011284878,-0.002830888,4.405,0,0
-0.007271244,-0.007265352000000001,0.007226468,-0.0007624137999999998,-0.0027690730000000004,4.406,0,0
-0.007087394,-0.008568612000000001,0.0003962079999999986,0.0001927082000000001,-0.0017353056,4.407,0,0
-0.006294194,-0.008910478,-0.005634012000000001,0.0011128782000000002,-0.0013533496,4.408,0,0
-0.006110474,-0.008521454000000001,-0.009040610000000001,0.0015964128,-0.0017530096000000002,4.409,0,0
-0.0037534720000000008,-0.006265962,-0.010911330000000002,0.002148516,-0.001289582,4.41,0,0
-0.0006132420000000002,-0.0037839960000000004,-0.008992048,0.0020025534000000004,-0.0010051854000000002,4.411,0,0
0.000647436,-0.002784726,-0.004147130200000001,0.0014574538,-0.0011460018000000003,4.412,0,0
0.0024093440000000003,-0.002926008,-0.0013668242,0.0011797186,-2.8463800000000112e-05,4.413,0,0
0.005168078,-0.003115296,-0.0006322636000000001,0.0009901906,0.0016511962000000002,4.414,0,0
0.006170720000000001,-0.0034700060000000003,-0.00020009540000000002,0.0009805226,0.0020737346,4.415,0,0
0.0057762,-0.003893384,-0.00029536920000000004,0.0012047272,0.00195037418,4.416,0,0
0.006013564000000001,-0.003726898,-0.0005996048000000001,0.0013188499999999999,0.00178422238,4.417,0,0
0.005011378800000001,-0.0032754920000000005,-0.00035482780000000005,0.0006827311999999999,0.00023081437999999998,4.418,0,0
0.0022430488000000004,-0.0024695014000000004,0.0002101136,-0.0003760168000000001,-0.00183752962,4.419,0,0
0.0004666208000000002,-0.0008842214000000001,0.0005180873999999999,-0.0011898448,-0.00240021142,4.42,0,0
-0.0010448672000000002,0.0006649146,0.0010669012,-0.0019483368,-0.0024837891999999998,4.421,0,0
-0.0037290072000000004,0.0019433246,0.001893635,-0.002518304,-0.0029045504,4.422,0,0
-0.005395680000000001,0.0036091366,0.0025487160000000003,-0.0023229179999999998,-0.0021921700000000002,4.423,0,0
-0.0048620420000000004,0.004545244,0.002769128,-0.0020678600000000004,-0.0007517413999999999,4.424,0,0
-0.004841042000000001,0.004508724,0.0028538920000000007,-0.0022383340000000007,-0.0004048147999999999,4.425,0,0
-0.004904002,0.003997086,0.0029652520000000007,-0.0016787352000000003,-3.109819999999987e-05,4.426,0,0
-0.0027227360000000003,0.0029392100000000003,0.0026459400000000003,-0.0007418352000000001,0.0014957198,4.427,0,0
-0.0003065520000000001,0.001581036,0.0020313454,-0.00026963719999999994,0.0024540174,4.428,0,0
0.000764414,-1.1065999999999897e-05,0.0016874854,0.0005561928,0.0025753468,4.429,0,0
0.002661992,-0.0016417180000000001,0.0011317254,0.0013762628000000001,0.002890886,4.43,0,0
0.005533990000000001,-0.0025678460000000004,9.709400000000026e-06,0.0014775200000000002,0.003108606,4.431,0,0
0.00630622,-0.002605516,-0.0006896906,0.0012688859999999999,0.0022454384000000003,4.432,0,0
0.006340028000000001,-0.0026281660000000004,-0.0012522960000000002,0.0012397040000000003,0.00148098,4.433,0,0
0.0069146400000000005,-0.0022497491999999997,-0.0019340760000000003,0.0011201574,0.00154158,4.434,0,0
0.00527432,-0.0013422974,-0.0017656622000000004,0.0007682418,0.0006252639999999999,4.435,0,0
0.0022561340000000004,-0.0010534634,-0.0010924862000000002,0.0003660452,-0.000770888,4.436,0,0
0.0005507740000000002,-0.0014563174,-0.0006986366,-0.0005072148,-0.0018265324000000002,4.437,0,0
-0.001326256,-0.0019370534,-9.377460000000007e-05,-0.0011112508,-0.003409638,4.438,0,0
-0.0042412380000000005,-0.0026387362,0.0007685794000000001,-0.0007570182000000001,-0.00498251,4.439,0,0
-0.005240794,-0.003196076,0.0012894896,-0.00022363860000000006,-0.004928138,4.44,0,0
-0.005181684,-0.0027482588,0.0016763836,-0.00011374780000000006,-0.004207126,4.441,0,0
-0.006086942000000001,-0.0016817988,0.0020019820000000002,-2.1031800000000025e-05,-0.003571126,4.442,0,0
-0.005778592,0.0005408872,0.0019245408,0.0002740252,-0.0014286759999999998,4.443,0,0
-0.00325473,0.0040508132,0.0015412236,0.00023927720000000005,0.0007894620000000001,4.444,0,0
-0.0007794439999999998,0.007333591200000001,0.0011235568,-0.00017190460000000005,0.0014658100000000001,4.445,0,0
0.0011958680000000003,0.009081694000000001,0.0004852188,-0.0002263258,0.002212034,4.446,0,0
0.00448196,0.0086962897,-9.419100000000003e-05,0.0006904842,0.0037457700000000003,4.447,0,0
0.0070700699999999995,0.0055971057000000005,-0.0005747358000000001,0.0012856912000000001,0.004270018,4.448,0,0
0.007082046000000001,0.00020398569999999965,-0.0013510986,0.0011920332,0.0037777640000000003,4.449,0,0
0.006829305999999999,-0.0054320143,-0.0019672098,0.001631227,0.00405735,4.45,0,0
0.00605372,-0.0098287863,-0.0021655218,0.0020607840000000004,0.004119028,4.451,0,0
0.0027680720000000003,-0.011400168000000002,-0.00201284,0.00135962,0.0027232780000000004,4.452,0,0
-0.0006083800000000002,-0.010560666,-0.0014814380000000003,-0.0001195739999999999,0.0006170759999999998,4.453,0,0
-0.002744686,-0.008349756000000002,-0.0006544706,-0.001329134,-0.001176788,4.454,0,0
-0.005654132000000001,-0.005079348000000001,0.00022344940000000002,-0.002390638,-0.00336514,4.455,0,0
-0.008219062000000001,-0.0006056880000000003,0.0010546334,-0.00312429,-0.00583001,4.456,0,0
-0.008695294,0.005043824000000001,0.0011373096,-0.002751658,-0.006373746,4.457,0,0
-0.008735393999999999,0.009583058000000002,0.00022848560000000005,-0.0015770708000000004,-0.0055081394,4.458,0,0
-0.009245976,0.011365378,-0.0010333218,-0.0008606344,-0.0045316793999999995,4.459,0,0
-0.007745185999999999,0.01072142,-0.0024534418,-0.00019315000000000003,-0.0024658194000000003,4.46,0,0
-0.004244049999999999,0.008365570000000003,-0.0033947238,0.000518974,0.0006465926000000003,4.461,0,0
-0.0014067080000000004,0.0036901439999999994,-0.003399229,0.00020985600000000002,0.0026479226000000007,4.462,0,0
0.001485832,-0.0006895519999999999,-0.002416031,0.00013683879999999997,0.004162402000000001,4.463,0,0
0.005742270000000001,-0.0018503472,-0.000693691,0.0009188324,0.005935628000000001,4.464,0,0
0.008567082,-0.0011039611999999997,0.0016475250000000002,0.0014013839999999999,0.006076082000000001,4.465,0,0
0.008429674,-0.00019067720000000006,0.0030905690000000005,0.0014866040000000003,0.005001314000000001,4.466,0,0
0.008432828,0.0004718546000000002,0.002834058,0.0017699508000000002,0.0037773214000000003,4.467,0,0
0.0077745620000000005,0.0008288046000000004,0.0026236012,0.0013467028000000002,0.0016285654,4.468,0,0
0.004370646,0.0005433798000000001,0.0021251436,0.00017410479999999996,-0.0008377706000000001,4.469,0,0
0.0009141439999999998,0.00024992780000000005,0.0006368815999999999,-0.0005926392,-0.0018347846,4.47,0,0
-0.001212832,0.00019183980000000007,-0.0001797254,-0.0011355410000000001,-0.0026532366,4.471,0,0
-0.004086978000000001,0.00043639800000000006,0.0005509806000000002,-0.0016283158000000002,-0.003938148000000001,4.472,0,0
-0.006721934,0.0006619302000000001,0.0008317554000000001,-0.0013593064000000001,-0.003859708,4.473,0,0
-0.006683716000000001,0.0005457682000000003,0.0005833454000000002,-0.0006938648,-0.0027497678,4.474,0,0
-0.006258694,-0.00016270179999999996,0.0009615778000000001,-0.0005506904,-0.0024561596,4.475,0,0
-0.005870172,-0.0011340138,0.0008196586000000001,-0.00012046060000000001,-0.00185220204,4.476,0,0
-0.0034949560000000005,-0.0018733558,5.50266e-05,0.0009833214,-2.460403999999985e-05,4.477,0,0
-0.0004333319999999998,-0.002457126,-0.0003949924,0.00142128,0.0009080279600000001,4.478,0,0
0.001407788,-0.002789794,-0.0006631768,0.0012474907999999998,0.0012076257600000001,4.479,0,0
0.003953468,-0.00317675,-0.0014596652,0.0014911468,0.00228747956,4.48,0,0
0.007302734,-0.003271312,-0.002040343,0.0012501516,0.0029683400000000003,4.481,0,0
0.00845976,-0.0028754906000000003,-0.0018710806,0.0005490119800000002,0.00232964,4.482,0,0
0.008525736,-0.0018580026,-0.00174069754,0.00061673798,0.0020521426,4.483,0,0
0.008537028,-0.0005762646000000001,-0.0015937115399999998,0.0008355559800000001,0.0019075346000000004,4.484,0,0
0.006232154,0.0006561554000000001,-0.00107569554,0.00036501958,0.0002360706,4.485,0,0
0.002102688,0.0014575708,-0.00028677174000000003,-0.00034561522000000006,-0.0017431114000000002,4.486,0,0
-0.0008812220000000001,0.0019061874,0.00016989186,-0.0011233296000000002,-0.0024990234000000005,4.487,0,0
-0.0038310540000000004,0.0020876554,0.0006624718,-0.0019141576,-0.0033036500000000004,4.488,0,0
-0.007197868,0.0015615858,0.0015951558,-0.0022754608,-0.0045283400000000005,4.489,0,0
-0.008696711999999999,0.0012811360000000002,0.0021726438000000004,-0.0021628188000000002,-0.004062764000000001,4.49,0,0
-0.008591072,0.0009264024000000001,0.0024049400000000004,-0.0014559344000000002,-0.0023054240000000004,4.491,0,0
-0.00860183,0.00011851239999999995,0.0021713082000000003,-0.00046657640000000004,-0.0011641079999999999,4.492,0,0
-0.00781825,-0.000480928,0.0014385162000000002,0.00018531359999999998,-0.00012043399999999988,4.493,0,0
-0.004701232,-0.0009455864000000001,0.0005898848000000001,0.0006229304,0.001674768,4.494,0,0
-0.001754498,-0.0012333666,9.6579999999999e-07,0.001003403,0.0027823540000000003,4.495,0,0
0.0006519439999999998,-0.001026864,-0.0007244202,0.0013111046000000002,0.0029578180000000005,4.496,0,0
0.004611448000000001,-0.000930894,-0.0017208324,0.0012792114,0.0035701680000000003,4.497,0,0
0.00823873,-0.0008270538,-0.0023572084,0.000816252,0.004221696,4.498,0,0
0.009032108,-0.0001321818000000001,-0.002685907,0.00044250119999999994,0.00399838,4.499,0,0
0.009012334,0.0004031162,-0.0020695500000000003,0.0003662053999999999,0.0036830800000000005,4.5,0,0
0.008927626000000001,0.0005892218,-0.00040597599999999995,0.00037568940000000004,0.0036987100000000005,4.501,0,0
0.006080354,0.0007586426,0.0021260360000000004,0.00036050320000000004,0.00293068,4.502,0,0
0.00215366,9.740679999999992e-05,0.003958232000000001,0.0010550386,0.0020419194,4.503,0,0
-0.00044802800000000005,-0.0014018712000000003,0.0030826900000000003,0.0015854134,0.0013661448000000004,4.504,0,0
-0.00360017,-0.0023976892000000002,0.001082884,0.0003746826000000001,-0.0006424372000000001,4.505,0,0
-0.007330018000000001,-0.0029023832,-0.0004468764000000001,-0.0012926574,-0.0032830752,4.506,0,0
-0.008880579999999999,-0.0034138560000000003,-0.0022737594000000003,-0.0023439479999999998,-0.0048745512000000005,4.507,0,0
-0.008998316000000001,-0.003228878,-0.0032724076000000004,-0.003431876,-0.005789312600000001,4.508,0,0
-0.009217706,-0.0010535199999999998,-0.0017256646000000002,-0.004003318,-0.006042568,4.509,0,0
-0.007386386,0.001493806,5.158139999999998e-05,-0.0027690708,-0.004161501999999999,4.51,0,0
-0.00347581,0.0028285619999999997,0.0004878098,-0.0011353268000000001,-0.0015477340000000003,4.511,0,0
-0.0004918580000000002,0.003987116000000001,0.0006182208,-0.000297722,-0.00011895120000000012,4.512,0,0
0.002234236,0.0045568712,0.000356621,0.000555544,0.0011831927999999999,4.513,0,0
0.006210298,0.0033567552,-0.0002809419999999999,0.001466298,0.0026335288,4.514,0,0
0.008771898,0.0016536148,-0.001072912,0.0020483888000000002,0.0034106168000000003,4.515,0,0
0.00898524,0.0010064008,-0.001896814,0.0021507468,0.0035359108,4.516,0,0
0.009289846000000001,0.0007687148,-0.0020523768,0.0017817240000000002,0.003091784,4.517,0,0
0.008277228,0.0010872596,-0.0014593168,0.0005359960000000002,0.00115553,4.518,0,0
0.004012818000000001,0.0017529455999999999,-0.0007547288000000001,-0.000881178,-0.0017718480000000001,4.519,0,0
0.00010076599999999996,0.0022256740000000004,-0.0003195308,-0.0018977080000000001,-0.00388192,4.52,0,0
-0.002462092,0.00265546,0.0005903592,-0.0026306500000000004,-0.0048231356,4.521,0,0
-0.006331716,0.00300838,0.0015537520000000003,-0.0023288242000000002,-0.0046930615999999994,4.522,0,0
-0.009072342,0.003269524,0.001899816,-0.0013216296000000002,-0.00315731268,4.523,0,0
-0.008294012,0.003114902,0.002339844,-0.00019449159999999997,-0.0007873286799999999,4.524,0,0
-0.007615579999999999,0.0018851519999999997,0.0028995160000000004,0.0005676964,0.00046935332,4.525,0,0
-0.007638884,-0.00021432600000000036,0.0027232612000000003,0.0011958704,0.00064919092,4.526,0,0
-0.0047448759999999994,-0.0022097560000000002,0.0018204415999999999,0.0020527546,0.00152908492,4.527,0,0
-0.0011436780000000004,-0.004006582,0.0009138955999999998,0.00222778,0.002106914,4.528,0,0
0.0007490779999999996,-0.005198178000000001,-0.00012457239999999996,0.0016533458,0.001544214,4.529,0,0
0.004192638,-0.005799594,-0.0011612964000000002,0.0014787298,0.0015383579999999999,4.53,0,0
0.008347242000000001,-0.006090438,-0.0020297476000000004,0.0014561798,0.0018887240000000003,4.531,0,0
0.009697712,-0.00597796,-0.002296872,0.0007182036,0.0010947806,4.532,0,0
0.009967442,-0.005653552,-0.002250062,0.0006846476,0.0004748968000000001,4.533,0,0
0.010542088,-0.0049827759999999995,-0.0020147734000000002,0.0012000958,0.0007752848000000001,4.534,0,0
0.008464204000000001,-0.0033914360000000003,-0.0010510934000000003,0.000820539,-1.6051200000000013e-05,4.535,0,0
0.0043788920000000005,-0.0009906940000000003,-4.9211399999999933e-05,0.000171631,-0.0014156512,4.536,0,0
0.0018215880000000003,0.00114798,0.0006286546,-0.0003437808000000001,-0.0016210218,4.537,0,0
-0.0006222739999999997,0.002501034,0.0013793946000000001,-0.0009316308,-0.0017035704000000003,4.538,0,0
-0.004503616,0.00248652,0.001799376,-0.0013349548,-0.0023439724000000003,4.539,0,0
-0.007065972,0.0009342959999999998,0.0015827968000000003,-0.001323571,-0.0016781804000000004,4.54,0,0
-0.007122332,-0.0015995220000000001,0.0014870098,-0.0010564868,-0.00017270640000000004,4.541,0,0
-0.007655058000000001,-0.00301247,0.0011895509999999998,-0.0004522638,1.003560000000005e-05,4.542,0,0
-0.008544976000000001,-0.0012113239999999997,0.00030158900000000006,6.96002e-05,0.00011204200000000004,4.543,0,0
-0.007041642000000001,0.0015633600000000006,-0.00011785299999999996,0.00039865620000000007,0.00141634,4.544,0,0
-0.004570112,0.0038292400000000007,-0.0001550862,0.0008667852,0.0023929560000000003,4.545,0,0
-0.002391846,0.0062204600000000014,-0.0008083692,0.0012098710000000002,0.0028810500000000005,4.546,0,0
0.0013295859999999994,0.0070246560000000015,-0.0013238044000000002,0.0014434960000000003,0.0040728760000000004,4.547,0,0
0.0060979580000000005,0.0051226480000000005,-0.0012676344,0.0014325106,0.0046891139999999994,4.548,0,0
0.008686838,0.00312681,-0.0011706952,0.0011202267200000001,0.0034749240000000003,4.549,0,0
0.009596002000000001,0.002464118,-0.0013118408,0.0008184365200000002,0.00195899,4.55,0,0
0.00982564,0.0016464682,-0.0008774540000000001,0.00041364252000000007,0.00039131600000000006,4.551,0,0
0.006895842,0.0005039242,2.1940000000000024e-05,-0.00023793948000000006,-0.0020652540000000003,4.552,0,0
0.002353058,-0.0008722918,0.00018848100000000003,-0.0005246394800000001,-0.0035431700000000004,4.553,0,0
-0.0005914439999999998,-0.0022089478,0.00039168620000000004,-0.0007970816,-0.0037562240000000007,4.554,0,0
-0.004018618,-0.0034850258000000004,0.0010869322000000002,-0.0016040574,-0.0046999680000000005,4.555,0,0
-0.00842157,-0.003976726,0.0015720994,-0.0017945654000000003,-0.005242746000000001,4.556,0,0
-0.010100912,-0.0025925360000000003,0.0015674894,-0.0010824234,-0.0038129174000000004,4.557,0,0
-0.009780206,-0.0006494120000000003,0.0019046844,-0.0005944479999999999,-0.0028284810000000003,4.558,0,0
-0.010021044,0.0007741479999999996,0.0017110988,-0.00023408439999999994,-0.002655675,4.559,0,0
-0.008103388000000001,0.001592666,0.0007471328,0.0006679514000000001,-0.0008739450000000002,4.56,0,0
-0.003495926,0.0018499200000000001,0.00034905200000000003,0.0012376314,0.001271997,4.561,0,0
0.0001947499999999996,0.00091058,-0.0001421802,0.0011833954,0.0021272684,4.562,0,0
0.00340852,-0.0007014460000000001,-0.0007919362000000001,0.0013472694,0.0030002939999999997,4.563,0,0
0.0076890660000000005,-0.00153293,-0.001103373,0.0016614658,0.004423348,4.564,0,0
0.01084989,-0.0017183908,-0.0015161090000000003,0.00169627,0.004307727999999999,4.565,0,0
0.011598588000000002,-0.0014457988000000001,-0.0023319322,0.001228024,0.003023026,4.566,0,0
0.011717178000000002,-0.0005607428,-0.0023629542,0.0005723740000000001,0.0021472028000000002,4.567,0,0
0.010383744,0.0004987912,-0.0016450722,-9.763999999999983e-06,0.0004620227999999999,4.568,0,0
0.006023754000000001,0.0010662532,-0.0011317206,-0.000769014,-0.0021432112,4.569,0,0
0.0009699740000000002,0.001556604,-0.00028710260000000006,-0.001198512,-0.0035350692000000006,4.57,0,0
-0.003571246,0.0018170234,0.0008932874,-0.00145868,-0.0039884032,4.571,0,0
-0.008666972,0.0014567534,0.0017261116000000002,-0.00207549,-0.00507376,4.572,0,0
-0.012572609999999998,0.0007417154,0.0018767696000000001,-0.002110554,-0.0048689580000000005,4.573,0,0
-0.013126082,-0.0001537426,0.00132816,-0.0013548220000000003,-0.002845742,4.574,0,0
-0.012540540000000001,-0.0009462106,0.0006042520000000001,-0.0009032180000000003,-0.0014239739999999997,4.575,0,0
-0.01134893,-0.00195787,0.00010198920000000007,-0.0005293202000000002,-0.0001992239999999998,4.576,0,0
-0.007548336000000001,-0.00270242,-0.00058427256,0.000354503,0.002418116,4.577,0,0
-0.0031261179999999998,-0.0026591394,-0.0010070789800000002,0.0003094657999999999,0.00416629,4.578,0,0
-1.2979999999999676e-05,-0.0020210624000000003,-0.00083963698,-0.0009080162000000001,0.003851814,4.579,0,0
0.003925158000000001,-0.0007267603999999998,-0.0007401049800000001,-0.0015660382000000001,0.004351348,4.58,0,0
0.008710708000000001,0.0012965736,-0.0009342821800000002,-0.0015375518000000001,0.005394506,4.581,0,0
0.011232754,0.0030395016,-0.0008832536200000002,-0.0018149590000000003,0.004746966,4.582,0,0
0.011670608000000002,0.0038711150000000005,-0.0010855230000000001,-0.0019517578000000002,0.0037367760000000007,4.583,0,0
0.011731486000000001,0.003986552,-0.0014187930000000002,-0.0011085036000000003,0.004104514,4.584,0,0
0.009651122,0.0027478519999999994,-0.0006865670000000001,-0.0003857996,0.0037332080000000004,4.585,0,0
0.004810673999999999,0.0009940519999999998,0.00021063499999999998,-0.00037658399999999996,0.001625506,4.586,0,0
0.0001715919999999995,-0.0002083168000000001,0.0005223202,-0.000400448,-3.936399999999996e-05,4.587,0,0
-0.0035065,-0.0009214024000000001,0.0012067599999999999,-0.0005366240000000001,-0.0012757180000000003,4.588,0,0
-0.007487414000000001,-0.0012800038,0.002535374,-0.0007744682,-0.0028949960000000004,4.589,0,0
-0.010162450000000002,-0.0011080338,0.0028312000000000003,-0.0005503622,-0.004055120000000001,4.59,0,0
-0.00998894,-0.0009442278000000001,0.002430886,0.00047420000000000014,-0.003674858,4.591,0,0
-0.009304082,-0.0014099490000000002,0.002401354,0.0014694300000000003,-0.002459274,4.592,0,0
-0.007978546000000001,-0.0017582174000000002,0.0019150300800000004,0.002193586,-0.0009558239999999999,4.593,0,0
-0.004164602000000001,-0.001899264,0.00083474208,0.0031055,0.0010433019999999999,4.594,0,0
-0.00021247399999999982,-0.0018166688000000003,-0.00023608992000000005,0.0034202600000000005,0.002622614,4.595,0,0
0.0022360360000000003,-0.0015089054,-0.00106656192,0.0031286660000000004,0.003819498,4.596,0,0
0.005579740000000001,-0.0011337040000000001,-0.00201358592,0.003479142,0.005155514,4.597,0,0
0.009190324,-0.0006212338,-0.002450504,0.0038193160000000006,0.005561302,4.598,0,0
0.009874260000000001,0.00010918819999999999,-0.0021851922,0.0025646920000000004,0.00359837,4.599,0,0
0.00962812,0.001003597,-0.0017656464,0.000964154,0.0012923179999999998,4.6,0,0
0.009378054,0.0014613896,-0.00115341228,-0.00015626200000000017,-0.00048481800000000003,4.601,0,0
0.006691674000000001,0.0010783122000000002,-0.00043633648,-0.0016525840000000003,-0.0038174660000000007,4.602,0,0
0.0026851440000000004,-0.000671008,0.00015035012,-0.0028281240000000004,-0.006261010000000001,4.603,0,0
0.00011634799999999973,-0.002699022,0.00049343832,-0.002868718,-0.0059107840000000005,4.604,0,0
-0.002431206,-0.0037382540000000003,0.0008791165200000002,-0.002473482,-0.005862478000000001,4.605,0,0
-0.005774592,-0.004114644,0.0009844502,-0.0021221791999999997,-0.006302028,4.606,0,0
-0.007122568,-0.0036123172000000004,0.0008619864000000002,-0.0014992148,-0.005059806,4.607,0,0
-0.00724789,-0.0012456472,0.0009389358000000002,-0.0012288588,-0.003904404,4.608,0,0
-0.008422736,0.0031122728,0.0009278078,-0.0013012188,-0.0038091540000000004,4.609,0,0
-0.00868134,0.0053571448,0.0008243164000000001,-0.0009144887000000001,-0.0019146460000000003,4.61,0,0
-0.005999712,0.0030419647999999993,0.0006188964,-0.0002678935,0.001051742,4.611,0,0
-0.0032185120000000006,-0.00017595200000000005,0.00038151039999999997,0.00021870210000000001,0.002004848,4.612,0,0
-0.0005788760000000001,-0.0025727400000000004,-0.0002602296,0.0011847081,0.002776416,4.613,0,0
0.004276206,-0.006152006000000001,-0.0012206336,0.0026049181,0.00447191,4.614,0,0
0.008480836000000002,-0.0079590702,-0.0019383702,0.0032576080000000004,0.004568006,4.615,0,0
0.009353168000000002,-0.0038509522000000004,-0.00227402,0.0035387320000000006,0.003319236,4.616,0,0
0.009390546000000001,0.0021775877999999998,-0.0022071409999999997,0.0033525600000000005,0.0026360208,4.617,0,0
0.0087977,0.0065136858,-0.0017357838000000001,0.0021450360000000003,0.0015888008,4.618,0,0
0.004877202000000001,0.0094993118,-0.0007311398000000001,0.0006981980000000001,-0.0007511231999999999,4.619,0,0
0.0004995180000000002,0.010878014,-2.2236000000000022e-05,-0.0006964940000000001,-0.0027599752,4.62,0,0
-0.0022719919999999996,0.009961312,0.0006034160000000001,-0.0022102600000000003,-0.0038984692000000004,4.621,0,0
-0.005941954,0.007032943599999999,0.0013672609999999998,-0.003361966,-0.005025633999999999,4.622,0,0
-0.009565692,0.0036330895999999997,0.0015396478,-0.003604252,-0.005726028,4.623,0,0
-0.009978866,0.0007575796000000002,0.0014996218,-0.003436558,-0.004756548,4.624,0,0
-0.009137205999999998,-0.0016930764,0.001671144,-0.003003548,-0.003194866,4.625,0,0
-0.008576612,-0.0036456064,0.0016755939999999999,-0.00201421,-0.0021684240000000004,4.626,0,0
-0.005267296,-0.004206742000000001,0.0010525546,-0.0006136739999999999,-1.4314000000000297e-05,4.627,0,0
-0.0007124559999999998,-0.00402378,0.0006042406000000001,0.0005463180000000001,0.002426826,4.628,0,0
0.0022533040000000002,-0.003714424,0.00025507279999999996,0.00136479,0.0036001659999999997,4.629,0,0
0.005380448000000001,-0.0026633606,-0.0007185812000000001,0.002496108,0.00489911,4.63,0,0
0.009282164,-0.0015211682000000003,-0.0015585452000000002,0.0030580900000000003,0.005820148000000001,4.631,0,0
0.010970368000000001,-0.0008437922,-0.0017133872,0.0024495104,0.005057797000000001,4.632,0,0
0.010710872000000001,-0.0001301306,-0.0016915686,0.0015245584,0.003953731000000001,4.633,0,0
0.010613298000000002,0.0005848114000000001,-0.0017605468,0.0009331023999999998,0.0029586176,4.634,0,0
0.008480456,0.000874118,-0.0010419042,-4.516340000000014e-05,0.0006832216000000002,4.635,0,0
0.004046098000000001,0.0010675596000000002,-0.0002341602000000001,-0.0015623914000000004,-0.0018774204,4.636,0,0
1.978600000000037e-05,0.0012621574,-4.4836800000000024e-05,-0.0021462338000000003,-0.0026752074,4.637,0,0
-0.0032889879999999996,0.0010047559999999999,0.00047727460000000007,-0.0020182678,-0.0028522520000000004,4.638,0,0
-0.0074517820000000005,0.0006872958,0.0018185586,-0.0021325098,-0.0033860446,4.639,0,0
-0.01039406,0.0007439138000000001,0.003785282,-0.0020380876000000003,-0.0029814466,4.64,0,0
-0.010459346000000001,0.0011055438000000001,0.0055473960000000004,-0.0013426269999999999,-0.0018770879999999998,4.641,0,0
-0.010312946,0.00169432,0.00642686,-0.0009152268,-0.0015008539999999998,4.642,0,0
-0.009451386,0.0021049998,0.0045756880000000005,-0.0005512894,-0.0011690158,4.643,0,0
-0.005971678,0.0016154140000000001,0.0007768499999999995,0.0002967086,0.0004406782000000002,4.644,0,0
-0.0017384440000000004,8.236000000000007e-05,-0.00260468,0.000541641,0.0017656542000000002,4.645,0,0
0.0012469279999999996,-0.001987674,-0.005584536000000001,0.0003733092,0.0022247896000000002,4.646,0,0
0.00517314,-0.004289666,-0.0071209,0.000919053,0.0032953776,4.647,0,0
0.00923541,-0.005808568000000001,-0.005930424,0.0015152496,0.0040539,4.648,0,0
0.010389986,-0.005758962000000001,-0.0034021920000000005,0.0012598741999999999,0.003411266,4.649,0,0
0.010258846,-0.0045072602,-0.001995413,0.0011839766,0.0024977764000000003,4.65,0,0
0.009851508,-0.0024206002000000003,-0.0009113467999999999,0.0014482558,0.0020497936,4.651,0,0
0.006957288000000001,-8.217819999999999e-05,0.00010159319999999999,0.0008482702,0.00042068759999999987,4.652,0,0
0.001939928,0.0016378918000000005,0.00039090319999999997,1.3978200000000008e-05,-0.0015981084000000001,4.653,0,0
-0.001795132,0.0023208218000000005,0.0006211036,-0.0003151076,-0.0022515744000000002,4.654,0,0
-0.0055205060000000005,0.0022382932000000006,0.0009315806,-0.0005324066,-0.0028413168000000003,4.655,0,0
-0.009881456,0.0016361104000000002,0.0011624804,-0.0005119020000000001,-0.003371034,4.656,0,0
-0.011953656,0.000825905,0.0012609164,-2.3916399999999993e-05,-0.0026156483999999996,4.657,0,0
-0.011658,0.00020073900000000007,0.0017037464,0.0004224154,-0.0013998436,4.658,0,0
-0.011079446000000001,-0.00032432299999999995,0.0018204220000000001,0.0003249626,-0.0014367516000000002,4.659,0,0
-0.009231864000000001,-0.0008015982,0.0018006160000000001,1.667439999999997e-05,-0.001136283,4.66,0,0
-0.004906774,-0.0010718634,0.0017970380000000002,-0.0002033440000000001,0.00020298499999999998,4.661,0,0
-0.0011163739999999998,-0.0011325821999999999,0.001124644,-0.0005850902000000001,0.0010291414,4.662,0,0
0.0020446,-0.0007849462,0.00021428000000000007,-0.0005594860000000001,0.0018737106,4.663,0,0
0.006291202000000001,-0.00024196820000000003,-0.000590878,0.000510828,0.0033685526,4.664,0,0
0.009825960000000002,0.00022554659999999996,-0.001127821,0.001458866,0.004313624,4.665,0,0
0.010930430000000001,0.0013079866,-0.0015296851999999999,0.0019555638000000003,0.004314602000000001,4.666,0,0
0.011877450000000001,0.0026461508,-0.0016581632000000001,0.00241435,0.004479342,4.667,0,0
0.012263094,0.0034257968000000003,-0.0014099492,0.0021211930000000004,0.004099712,4.668,0,0
0.008977246,0.0040722948,-0.0008056132000000001,0.0012584098,0.002816017,4.669,0,0
0.004568803999999999,0.004492198,-0.0002789141999999999,0.0006462762,0.0016245930000000001,4.67,0,0
0.0009821779999999998,0.003123824,3.103220000000008e-05,-0.00046564580000000005,-0.00021404099999999988,4.671,0,0
-0.0037302820000000006,0.00019157999999999957,0.0004783554000000001,-0.0023724597999999998,-0.003728617,4.672,0,0
-0.008611696000000002,-0.002510862000000001,0.0008644716,-0.0035683888,-0.006495001,4.673,0,0
-0.010795108,-0.005315368,0.0009928116000000001,-0.0041353156,-0.007131486000000001,4.674,0,0
-0.011492246000000001,-0.00760984,0.0009203676,-0.004542064,-0.0072070660000000016,4.675,0,0
-0.011860846000000001,-0.007655702000000001,0.0010173974,-0.004204506,-0.006159815200000001,4.676,0,0
-0.009556073800000002,-0.00571034,0.0009802994,-0.0026105042,-0.0027206432,4.677,0,0
-0.0048554437999999995,-0.00324244,0.0006387052,-0.0004911802,0.0007827848000000003,4.678,0,0
-0.0005823957999999993,-0.00036677400000000027,0.00023855819999999995,0.0007968338000000002,0.0024192148000000005,4.679,0,0
0.0036328442000000006,0.0027000979999999997,-0.00028922180000000004,0.0018615098000000002,0.0041150788,4.68,0,0
0.0085708102,0.004506662000000001,-0.0009665618000000001,0.0028494198,0.005251674000000001,4.681,0,0
0.011173398000000001,0.005206098,-0.0011802108000000002,0.00275645288,0.0044211638,4.682,0,0
0.010969412000000001,0.005384644000000001,-0.0007918940000000001,0.0019897702800000003,0.0032320862000000004,4.683,0,0
0.01087503,0.004972392000000001,-0.0007728014000000001,0.0016053502800000001,0.0024678092,4.684,0,0
0.009615256,0.002951838,-0.0007295390000000001,0.00112824648,0.0007383232000000003,4.685,0,0
0.005457226000000001,-0.00042213799999999985,-0.00012091499999999998,0.0006141428800000001,-0.0013795688,4.686,0,0
0.0014606279999999994,-0.0038236080000000005,0.00035047280000000006,0.0008397840000000001,-0.0022105526,4.687,0,0
-0.001569976,-0.007016944000000001,0.0005282220000000001,0.0010399746000000001,-0.002864099,4.688,0,0
-0.005753502000000001,-0.009295254000000001,0.0009368944000000001,0.0010522506,-0.0040176560000000005,4.689,0,0
-0.009236968000000002,-0.009444218,0.0014799440000000002,0.0008544926,-0.004477026,4.69,0,0
-0.0101738,-0.006273612000000001,0.0014478048,0.00011103019999999999,-0.0033302436000000003,4.691,0,0
-0.010991822000000002,4.350799999999983e-05,0.0008626448000000001,-0.0005537438,-0.0020606116,4.692,0,0
-0.011636142,0.006518468,0.0003111768000000001,-0.0008976846000000001,-0.0012031796000000002,4.693,0,0
-0.008797992,0.010159623999999999,-0.00021068319999999996,-0.0009033566000000001,0.0009154324,4.694,0,0
-0.004215404000000001,0.011589952,-0.0009418912000000001,-0.00037818680000000014,0.0027078964,4.695,0,0
-0.0004098579999999999,0.010687408999999998,-0.0015032000000000001,0.000338565,0.0027293716,4.696,0,0
0.004706722000000001,0.0065495169999999995,-0.0015608260000000002,0.0010864190000000001,0.0029483356,4.697,0,0
0.010082262000000002,0.0022795476000000005,-0.0013510555800000002,0.0017016678000000003,0.0033646176,4.698,0,0
0.012163552000000001,0.000444573,-0.0007034735800000001,0.0017208838,0.0027402316000000003,4.699,0,0
0.012144104000000003,0.00037218099999999997,7.471642000000001e-05,0.00134552,0.0023533376,4.7,0,0
0.011810308,0.0009267879999999999,0.00076106642,0.0009713661999999998,0.002565452,4.701,0,0
0.008996106600000001,0.0012631276,0.0016145744200000002,0.00031522219999999994,0.00109846,4.702,0,0
0.004256152600000001,0.000988603,0.0017449292,-0.0005366078000000001,-0.001397028,4.703,0,0
0.0003246486000000003,0.0006885055999999999,0.0010660452000000001,-0.0013079258000000002,-0.0028738740000000002,4.704,0,0
-0.0035959714,0.00020142639999999986,0.0004397892000000002,-0.0018991820000000001,-0.003971062000000001,4.705,0,0
-0.007888979400000001,-0.0008716256,-7.120679999999988e-05,-0.001986378,-0.004990913999999999,4.706,0,0
-0.010512298,-0.0012655792,-0.000707075,-0.0018397528000000003,-0.004469344,4.707,0,0
-0.010673956000000002,-0.001109794,-0.0008816062000000001,-0.0018576208000000002,-0.0025079286000000006,4.708,0,0
-0.01043234,-0.001304538,-0.0002276642000000001,-0.0019445908000000002,-0.001517502868,4.709,0,0
-0.009279012000000001,-0.0016009488,0.0003053298,-0.0015977518,-0.00046169486800000007,4.71,0,0
-0.005639830000000001,-0.0023917128,0.00037593239999999997,-0.0008680357999999999,0.0015821191320000002,4.711,0,0
-0.0017612960000000005,-0.0042574068,0.00013157459999999996,-0.0003515809999999999,0.0027052191320000004,4.712,0,0
0.001224768,-0.006039946,-0.00040425140000000014,4.1121400000000016e-05,0.003370109732,4.713,0,0
0.005159536000000001,-0.0067012140000000005,-0.0011844254000000002,0.0007171916,0.0043135840000000005,4.714,0,0
0.008911348000000001,-0.006805309999999999,-0.0017543434000000001,0.0011820426,0.004308648,4.715,0,0
0.009882822000000001,-0.0054993824,-0.0013716520000000001,0.0010473046,0.0029956334000000003,4.716,0,0
0.010411274000000002,-0.0025175184000000004,-0.0006518739999999998,0.0010807506,0.0023895454000000004,4.717,0,0
0.010595167999999999,0.00044903960000000024,-0.00010819960000000001,0.0011299506,0.0020284114000000005,4.718,0,0
0.007444612000000001,0.0022806496000000002,0.0003727804000000001,0.0007274084000000002,0.0002764874000000001,4.719,0,0
0.00275874,0.0030357476000000003,0.0007083697999999999,0.0001736344,-0.0012554306,4.72,0,0
-0.0010905360000000002,0.003020673,0.0005632082,-0.0004985256000000001,-0.00212843,4.721,0,0
-0.005787902000000001,0.001996491,0.0003090438,-0.0014847416000000001,-0.00396092,4.722,0,0
-0.010707308,0.000738153,0.0005866114,-0.0022158280000000004,-0.005976118,4.723,0,0
-0.012469612,0.00026134899999999997,0.0005526612,-0.0020094616000000004,-0.005572616,4.724,0,0
-0.012262964000000001,-7.719640000000005e-05,0.00043817240000000005,-0.0014306116000000002,-0.00405697,4.725,0,0
-0.011778351999999999,-0.0008992074000000001,0.000664506,-0.00047692159999999993,-0.0029439799999999997,4.726,0,0
-0.008811352,-0.0015391554,0.0004925910000000001,0.0010175784,-0.0003392839999999998,4.727,0,0
-0.0037304760000000004,-0.0018252554000000002,-1.2229000000000048e-05,0.0021715304,0.002526024,4.728,0,0
0.0006409440000000005,-0.0023180798,-0.0003238268,0.002485016,0.00359833,4.729,0,0
0.005014428000000001,-0.0031551444000000005,-0.0007274974,0.002545542,0.004430848,4.73,0,0
0.010160056,-0.0036582264000000002,-0.0013695554,0.0026088659999999996,0.0055133,4.731,0,0
0.013417836,-0.0033890804,-0.0014589244,0.00222515,0.004840938,4.732,0,0
0.01388076,-0.0028604700000000004,-0.0012109204000000002,0.001478928,0.003167522,4.733,0,0
0.01369254,-0.0020316516000000004,-0.00093034012,0.000620514,0.0024465982000000004,4.734,0,0
0.011637199999999999,-0.00021299359999999985,-0.00030020412000000005,-0.00036949,0.0011306621999999998,4.735,0,0
0.006784777999999998,0.0025641944000000002,0.00025023587999999997,-0.0015764980000000002,-0.0012312018,4.736,0,0
0.0021848600000000003,0.0052759544,0.00048257008,-0.0023624160000000004,-0.0023804197999999998,4.737,0,0
-0.001888462,0.006683212000000001,0.00080278408,-0.0025419120000000003,-0.0024373118,4.738,0,0
-0.007103242,0.006818584000000001,0.0008188328000000001,-0.0026049680000000005,-0.003389932,4.739,0,0
-0.011249222,0.006413026000000001,0.0004744294000000001,-0.002478664,-0.004076024,4.74,0,0
-0.01239218,0.004923978600000001,0.00037247879999999993,-0.0018687158000000002,-0.0027597480000000002,4.741,0,0
-0.012481323999999999,0.0026212006,0.0003648156,-0.0013617638,-0.0018156020000000008,4.742,0,0
-0.011345364,0.0009100606000000001,0.0003276236000000001,-0.0008314572000000001,-0.0017901080000000003,4.743,0,0
-0.007392930000000001,-0.0002518774,0.0004249472,0.0003748628,-0.000489646,4.744,0,0
-0.0023540039999999994,-0.0010276154,0.0004804162,0.0010847508,0.0009240840000000001,4.745,0,0
0.001372478,-0.0010030388,0.00032984060000000007,0.0014358386000000002,0.0015204980000000001,4.746,0,0
0.004815140000000001,-0.0006797331999999999,0.00026873904,0.0025039006,0.0033419459999999997,4.747,0,0
0.008716282,-0.00017092319999999998,-9.100035999999999e-05,0.0034396360000000003,0.005648722,4.748,0,0
0.010623348000000001,0.0007010928,0.00024525104,0.0030490960000000003,0.005900636,4.749,0,0
0.010480302,0.0017803008000000001,0.00189577144,0.0022658940000000005,0.004719984,4.75,0,0
0.010164262,0.0028299176,0.00333907364,0.0012513140000000003,0.0026320719999999996,4.751,0,0
0.0079838224,0.0029652500000000004,0.0037891186000000004,-0.0008102300000000001,-0.0011272679999999998,4.752,0,0
0.0031775284,0.002508636,0.002382368,-0.002703384,-0.004905312,4.753,0,0
-0.0012277116000000002,0.001757234,0.00011148600000000005,-0.003267776,-0.006475608000000001,4.754,0,0
-0.0046655296,0.0003258760000000001,-0.0016025706,-0.0028104060000000005,-0.00640454,4.755,0,0
-0.0085705116,-0.0012919140000000001,-0.0030314345999999997,-0.0022519590000000004,-0.005762038000000001,4.756,0,0
-0.011337831999999999,-0.002088912,-0.0035377946,-0.0014055276000000002,-0.003986942000000001,4.757,0,0
-0.011228774,-0.0025349120000000003,-0.0020194172,-0.00018362960000000008,-0.001517954,4.758,0,0
-0.01063417,-0.003216024,-7.006260000000001e-05,0.0010005624,-0.00018890399999999994,4.759,0,0
-0.009614752,-0.003202424,0.00017875440000000002,0.0019710564,0.00081991,4.76,0,0
-0.005813416000000001,-0.00307591,-0.00025598760000000004,0.0028013014,0.0028105340000000004,4.761,0,0
-0.0015285900000000002,-0.002866472,-0.0006733956000000001,0.003497946,0.00405467,4.762,0,0
0.001680526,-0.00217690226,-0.0012913870000000002,0.003948248,0.004291894000000001,4.763,0,0
0.005964042,-0.00104241566,-0.0019557356000000003,0.0037321420000000004,0.004918008000000001,4.764,0,0
0.010053882,1.590234000000009e-05,-0.002259608,0.0025883060000000003,0.005004172,4.765,0,0
0.01098116,0.00100640234,-0.001996617,0.0010584760000000003,0.003823758,4.766,0,0
0.011033128,0.00276764634,-0.0018118090000000002,-0.0006929660000000002,0.002368476,4.767,0,0
0.010863606000000001,0.0041835046,-0.0015708410000000001,-0.00260507,0.0004835919999999999,4.768,0,0
0.007538212,0.004961644000000001,-0.0007879150000000001,-0.004364924000000001,-0.0022595440000000005,4.769,0,0
0.0028140640000000007,0.005086236,0.00014659100000000006,-0.00483272,-0.004579012,4.77,0,0
-0.0007473299999999998,0.004630097800000001,0.001017342,-0.004353813999999999,-0.00618997,4.771,0,0
-0.004802044,0.0039469818,0.002150852,-0.004057436,-0.0077406720000000005,4.772,0,0
-0.009473502,0.0029451678,0.0031962760000000005,-0.0032388180000000005,-0.007855746,4.773,0,0
-0.011684228000000001,0.0010067977999999999,0.003308568,-0.0015922520000000002,-0.0060229176,4.774,0,0
-0.011608284,-0.0026675742,0.002855332,-0.0006074380000000002,-0.004062773600000001,4.775,0,0
-0.010987898000000003,-0.007435968,0.002485126,-0.00050683,-0.0025103963999999995,4.776,0,0
-0.0083896156,-0.012458276,0.0014665086000000003,0.0002908566,-3.782040000000018e-05,4.777,0,0
-0.0035262995999999994,-0.016206446000000003,0.00028957660000000004,0.0010098026000000002,0.0022969196000000003,4.778,0,0
0.0010051804000000002,-0.017399380000000002,-0.0001152468,0.0008069426,0.0032685252000000005,4.779,0,0
0.0047996844,-0.015355722,-0.000534422,0.0008590306,0.004430479200000001,4.78,0,0
0.0091373584,-0.00964753,-0.001208448,0.0016871386000000001,0.005716736000000001,4.781,0,0
0.011991956000000002,-0.0009524899999999994,-0.0015573366,0.002188254,0.005979388000000001,4.782,0,0
0.01175259,0.00824183,-0.0015921386,0.001996584,0.00521128,4.783,0,0
0.011183982,0.015372430000000003,-0.0017677332,0.002011622,0.004536644,4.784,0,0
0.010059394000000001,0.020289772,-0.0016839078,0.0020629280000000003,0.0035092440000000008,4.785,0,0
0.006081344000000001,0.0217431,-0.0010486158,0.001812734,0.001224378,4.786,0,0
0.0021235740000000005,0.017899826,-0.00019074179999999997,0.0016046620000000002,-0.0006673739999999999,4.787,0,0
-0.00031319599999999974,0.010532784000000002,0.0004554906,0.0014620188,-0.001687386,4.788,0,0
-0.004178668,0.0037010559999999994,0.0008685434000000001,0.0007026048000000003,-0.0033376260000000002,4.789,0,0
-0.008370760000000001,-0.0018974139999999998,0.0012920672000000001,-0.0007298911999999999,-0.004938994,4.79,0,0
-0.009782810000000001,-0.007301254,0.0011439408,-0.0020856332,-0.004577406000000001,4.791,0,0
-0.009951536,-0.010698520000000001,0.0011676828,-0.0032049732,-0.004241552000000001,4.792,0,0
-0.009780766000000002,-0.011389178000000002,0.0015088103999999999,-0.0037007980000000004,-0.004317972000000001,4.793,0,0
-0.007338134400000001,-0.011323824000000001,0.0010868636000000002,-0.002862252,-0.00258614,4.794,0,0
-0.0032753484,-0.010683516,0.0005351016,-0.0010530359999999998,-0.00029906400000000014,4.795,0,0
-2.6400400000000344e-05,-0.007998136199999999,4.0399999999991007e-07,0.0005842520000000003,0.0013935220000000001,4.796,0,0
0.0029097516000000006,-0.0048201622,-0.0009948460000000002,0.0016210200000000001,0.0035556460000000004,4.797,0,0
0.006211761600000001,-0.0017895222,-0.0018150860000000003,0.002290034,0.00573433,4.798,0,0
0.00817211,0.0017231577999999997,-0.001935896,0.002417366,0.006392444000000001,4.799,0,0
0.008350804000000002,0.0040843738,-0.002101876,0.002372468,0.006970928,4.8,0,0
0.008136746000000002,0.005085172,-0.0018802828,0.002367374,0.007396172,4.801,0,0
0.006362975200000001,0.005432362,-0.0009036788,0.001714882,0.005289574000000001,4.802,0,0
0.0021247332000000002,0.004646440399999999,-0.00026621479999999997,0.0005695820000000003,0.0016139060000000009,4.803,0,0
-0.0019266668000000003,0.0028914052,0.0005252772000000001,-0.000590988,-0.001178204,4.804,0,0
-0.005126006800000001,0.0015133324000000002,0.0016600572,-0.0018157859999999998,-0.004325116,4.805,0,0
-0.009128336800000001,0.0007248314,0.0024205560000000004,-0.0030810580000000002,-0.007637434,4.806,0,0
-0.011610702,0.0005004674,0.0022887740000000004,-0.0034285440000000004,-0.008271325999999999,4.807,0,0
-0.011252552,0.0008471570000000001,0.0018695752000000003,-0.0031081640000000005,-0.006440314000000001,4.808,0,0
-0.010694154,0.000915999,0.0015245444000000002,-0.0028484400000000003,-0.004494804,4.809,0,0
-0.009745304000000002,0.0007739417999999999,0.0006529514,-0.0021346304000000003,-0.003213866,4.81,0,0
-0.006275158,0.0004055868,-0.00028749860000000006,-0.0010657584,-0.0003198640000000002,4.811,0,0
-0.0023327,-0.0004920692,-0.0009014826000000001,0.00014285560000000004,0.0010808719999999999,4.812,0,0
-0.000265466,-0.001033552,-0.0009658864000000001,0.0010456836,0.0017853020000000001,4.813,0,0
0.0037882360000000004,-0.0013219248,-0.0016718816,0.0022197656,0.002087198,4.814,0,0
0.007067706,-0.0013143708,-0.0016981606,0.00250044,-0.0023856700000000008,4.815,0,0
0.0087632,-0.0016557228,0.0002828574,0.0008915399999999999,-0.006428354000000001,4.816,0,0
0.008111214,-0.0036399068,0.0015859994,-0.00011883000000000011,-0.006286738000000001,4.817,0,0
0.0014986719999999986,-0.005601972,0.0018502102000000002,0.00034595000000000003,-0.005345420000000002,4.818,0,0
-0.0030650860000000016,-0.00611094,0.0020706242,0.0009179680000000003,-0.0021599320000000003,4.819,0,0
-0.0009481260000000005,-0.005936322799999999,0.0012027702000000002,0.0021044360000000003,0.007420488000000001,4.82,0,0
0.0037126339999999994,-0.004655796799999999,-0.0017909818000000001,0.005067240000000001,0.015555288000000002,4.821,0,0
0.011877761999999998,-0.0009682388,-0.0046533398,0.0070256780000000005,0.01923922,4.822,0,0
0.027128542,0.0033273612,-0.006211594000000001,0.007165370000000001,0.020811320000000005,4.823,0,0
0.037908500000000005,0.007096709200000001,-0.006532008000000001,0.006568072,0.018425254000000002,4.824,0,0
0.03789264,0.010147434,-0.005144488000000001,0.004458142,0.012760874000000002,4.825,0,0
0.030850452,0.011348586,-0.0029935380000000004,0.0009577260000000003,0.004598174,4.826,0,0
0.018067411999999998,0.010455274,-0.0003490799999999999,-0.0025749980000000002,-0.003527526000000001,4.827,0,0
0.0008000520000000007,0.008106633600000001,0.002335974,-0.005743738,-0.011482566000000001,4.828,0,0
-0.018981987999999998,0.0047394336,0.0044321280000000005,-0.008613262,-0.018091680000000002,4.829,0,0
-0.034892328,0.0005294515999999998,0.005566564000000001,-0.009835092,-0.021452120000000005,4.83,0,0
-0.046498960000000006,-0.0027865864000000003,0.006242288,-0.009465622,-0.022023620000000004,4.831,0,0
-0.05399152,-0.005043044400000001,0.006861060000000001,-0.008230736,-0.019706152,4.832,0,0
-0.05345384,-0.007233764,0.006241136,-0.005828008000000001,-0.014508418800000002,4.833,0,0
-0.04507842,-0.008835708000000001,0.004459090000000001,-0.0026872000000000007,-0.007786418800000001,4.834,0,0
-0.032699128,-0.009657266000000001,0.0024234320000000005,-8.0560000000001e-06,-0.0008497587999999998,4.835,0,0
-0.015919868,-0.010485176,-0.00013404400000000005,0.002677736,0.0066543412,4.836,0,0
0.004483272,-0.010863704,-0.002876088,0.00552389,0.0135117332,4.837,0,0
0.022656972,-0.010245368,-0.004674536,0.007132454,0.017772780000000002,4.838,0,0
0.036769492,-0.0089264,-0.005772808000000001,0.007691672,0.019687660000000003,4.839,0,0
0.04708424,-0.0061547680000000006,-0.006727398000000001,0.007863398,0.01961392,4.84,0,0
0.050787559999999995,-0.0012903079999999996,-0.006465234,0.006783086,0.01628314,4.841,0,0
0.0461523,0.006910652000000001,-0.0049924918,0.00441021,0.010283190000000001,4.842,0,0
0.035941642,0.016415596,-0.0035125078,0.0018635700000000006,0.004146642,4.843,0,0
0.021489462,0.021809412000000004,-0.0010345238,-0.0007226419999999998,-0.002331098,4.844,0,0
0.003876242000000001,0.022629308,0.0029457862000000007,-0.003231354,-0.009526158,4.845,0,0
-0.013032558,0.019682916,0.006786660200000001,-0.004990992,-0.014780618000000002,4.846,0,0
-0.026420437999999997,0.011893748,0.008798772,-0.00603135,-0.017728728,4.847,0,0
-0.03661878,0.0016059480000000003,0.008585690200000001,-0.006850272,-0.0194111,4.848,0,0
-0.042524820000000005,-0.006045432000000001,0.006488210200000001,-0.0067568540000000005,-0.018171492,4.849,0,0
-0.04152554,-0.009351584000000001,0.0030171522,-0.0049945119999999996,-0.013298702,4.85,0,0
-0.034998272,-0.009683278000000002,-0.0005650338,-0.002594838,-0.007376084000000001,4.851,0,0
-0.024655442000000003,-0.008315280000000001,-0.0032304478000000003,-3.9905999999999926e-05,-0.0014281440000000001,4.852,0,0
-0.010341042000000002,-0.0061369680000000005,-0.0038790599999999997,0.002972202,0.0052495960000000005,4.853,0,0
0.005685618000000001,-0.0033634764000000004,-0.003274334,0.0052619400000000005,0.010489888,4.854,0,0
0.019263958,-0.0010089824,-0.0033828779999999998,0.006015894,0.012807038000000001,4.855,0,0
0.029615450000000005,0.0009477556000000001,-0.003995759999999999,0.006033612000000001,0.013627180000000003,4.856,0,0
0.03694024,0.0028781416,-0.004285604,0.00561762,0.013140960000000002,4.857,0,0
0.03845428000000001,0.0045380396,-0.003920752,0.0040692968,0.009781926600000001,4.858,0,0
0.03353328,0.005283190000000001,-0.0032176414,0.0018835547999999996,0.0051819786000000005,4.859,0,0
0.02490322,0.004372046,-0.0018735034,-5.883720000000024e-05,0.0012879505999999997,4.86,0,0
0.012989619999999999,0.0024368260000000004,0.00023863460000000003,-0.0020186852,-0.0030713294,4.861,0,0
-0.001606579999999998,8.46060000000002e-05,0.0020745346,-0.0040183232,-0.0073913894,4.862,0,0
-0.014292599999999999,-0.00199987,0.0030441546000000005,-0.0050728200000000005,-0.009822316000000001,4.863,0,0
-0.023360000000000002,-0.0036765880000000006,0.0037631,-0.00510932,-0.010937168,4.864,0,0
-0.03004636,-0.004968288,0.004654066,-0.00473627,-0.01149093,4.865,0,0
-0.0323475,-0.005640224,0.004366346,-0.0035832715999999996,-0.009498671,4.866,0,0
-0.02888314,-0.00599215,0.003343117,-0.0019094356,-0.005609761,4.867,0,0
-0.022530370000000004,-0.006378862000000001,0.0027120374,-0.00036040160000000004,-0.001855249,4.868,0,0
-0.01402695,-0.00595823,0.0014272873999999999,0.0007926884,0.0024862010000000004,4.869,0,0
-0.0022043899999999996,-0.00451307,-0.0008099066000000002,0.0018429924,0.007238411,4.87,0,0
0.00964387,-0.0033396016000000004,-0.0027630586000000003,0.003142816,0.010374612000000002,4.871,0,0
0.018644430000000004,-0.0023767036,-0.0042606516,0.004365768000000001,0.011652762,4.872,0,0
0.02588118,-0.0012986412000000002,-0.005730548,0.005228546000000001,0.012763910000000002,4.873,0,0
0.030656660000000002,-0.00010670319999999994,-0.006263992,0.005400066,0.012103000000000001,4.874,0,0
0.0300185,0.0008779808,-0.005696644,0.00410669,0.008299816000000002,4.875,0,0
0.024996749999999998,0.0021174344,-0.004292370199999999,0.0014269740000000001,0.0038404420000000003,4.876,0,0
0.017811412,0.0040550584,-0.0017346762000000002,-0.0013514280000000002,-0.00034146999999999997,4.877,0,0
0.007610152,0.005510274000000001,0.0016261437999999999,-0.003669202,-0.00535053,4.878,0,0
-0.004283808,0.005908292000000001,0.004217395800000001,-0.005088372000000001,-0.009129570000000002,4.879,0,0
-0.014192408,0.0054670000000000005,0.005352385800000001,-0.005181772,-0.009916788000000001,4.88,0,0
-0.021527018,0.0040672880000000005,0.0060096640000000005,-0.004721398,-0.010088924,4.881,0,0
-0.0270745,0.0017393020000000003,0.005891324000000001,-0.00420395,-0.009677722,4.882,0,0
-0.02825014,-0.0004481220000000001,0.0042159120000000005,-0.0033612694,-0.007222284000000001,4.883,0,0
-0.024483466,-0.002355542,0.0023945729999999997,-0.0026566714000000003,-0.004448936,4.884,0,0
-0.0186719134,-0.003387784,0.001489119,-0.0019870952,-0.002410172,4.885,0,0
-0.0103853734,-0.003243842,0.0004309609999999999,-0.0003694712000000004,0.0009129959999999999,4.886,0,0
0.0001807465999999992,-0.0026690209999999997,-0.000984125,0.0010231748,0.004906266,4.887,0,0
0.0090628666,-0.0015231189999999999,-0.001773391,0.0017459342000000003,0.006768862,4.888,0,0
0.015478812599999999,5.461000000000116e-06,-0.002096862,0.0029604822,0.007932528000000001,4.889,0,0
0.02113664,0.001803317,-0.002554652,0.0037835160000000002,0.009539346,4.89,0,0
0.02375458,0.0033849350000000004,-0.002588164,0.003315104,0.008523115999999999,4.891,0,0
0.021571940000000005,0.004506424,-0.0023391139999999998,0.0024780746,0.00493069,4.892,0,0
0.017393350000000005,0.0047382579999999995,-0.0021665060000000003,0.0019092786,0.00227512,4.893,0,0
0.011789694,0.0037843440000000002,-0.0015075260000000001,0.0009405554000000001,-0.0003361680000000002,4.894,0,0
0.0032190540000000007,0.0015212560000000001,-0.00038332200000000007,-0.0001875366,-0.004162782,4.895,0,0
-0.005532386,-0.0010944860000000002,0.00023196400000000003,-0.0009440966,-0.006328046,4.896,0,0
-0.011340686,-0.0031027700000000004,0.0006389654,-0.0015023412,-0.006494214,4.897,0,0
-0.015510736,-0.0059512620000000006,0.0014646034000000002,-0.0020242592,-0.006717981999999999,4.898,0,0
-0.01827222,-0.008745900000000001,0.0018542634,-0.002258382,-0.006285422000000001,4.899,0,0
-0.017239966000000002,-0.009192634000000002,0.0018869714,-0.0019512013999999998,-0.004682320199999999,4.9,0,0
-0.013386883200000001,-0.008191354,0.0019998494,-0.0013123574,-0.003021297,4.901,0,0
-0.0095421918,-0.007681976,0.001864366,-0.00018337340000000005,-0.0011091789999999996,4.902,0,0
-0.0045073518,-0.006242972,0.000936032,0.0009471066000000001,0.001657141,4.903,0,0
0.0019646482,-0.001588562,-0.00014250600000000003,0.0017133186000000003,0.004501735,4.904,0,0
0.0062694142,0.004636808,-0.000887184,0.0024269320000000006,0.006306917200000001,4.905,0,0
0.0094677314,0.009701324,-0.0018783360000000002,0.003178116000000001,0.007357,4.906,0,0
0.01361886,0.013559194,-0.0028695380000000005,0.0034165500000000004,0.007884864,4.907,0,0
0.015108920000000001,0.016248604,-0.00294197,0.0028140680000000003,0.00657386,4.908,0,0
0.0130493,0.015780182,-0.00238935,0.0020511120000000003,0.003921018000000001,4.909,0,0
0.010534096000000001,0.011667002,-0.0020586241179999997,0.0009375200000000003,0.002004236,4.91,0,0
0.006082434000000001,0.006716459400000001,-0.0009898601180000001,-0.0011118579999999999,-0.0004590340000000003,4.911,0,0
-0.0013012460000000005,0.0028306054,0.0006702898820000001,-0.0028819220000000003,-0.003873242,4.912,0,0
-0.007212446000000001,-0.0003574425999999998,0.001376439882,-0.0034794260000000003,-0.005688572,4.913,0,0
-0.010823286000000001,-0.0033702306000000003,0.0016643998820000002,-0.003774776,-0.0062854140000000005,4.914,0,0
-0.013993882,-0.0060048906,0.0022746320000000004,-0.0037447580000000004,-0.007055446,4.915,0,0
-0.015320960000000002,-0.007540572000000001,0.002046982,-0.0027877382000000006,-0.006508966,4.916,0,0
-0.013364822,-0.008057418,0.0012200212,-0.0011193802,-0.0043947542,4.917,0,0
-0.010133422,-0.0074942260000000005,0.0008059012000000001,0.0003292958000000001,-0.0029604776,4.918,0,0
-0.006709374000000001,-0.005837612000000001,0.00018491720000000017,0.0011580978000000001,-0.0015422656,4.919,0,0
-0.0010063540000000005,-0.0029615460000000007,-0.0006757308000000001,0.0022033158000000002,0.0011228304000000001,4.92,0,0
0.005340966000000001,0.0004916719999999996,-0.0010357702000000002,0.003205202,0.0034840644000000004,4.921,0,0
0.009691868,0.00291733,-0.0012029054000000001,0.002964364,0.0047410666,4.922,0,0
0.013078027999999998,0.00418313,-0.0014321914000000003,0.0025721840000000004,0.006109518000000001,4.923,0,0
0.01552158,0.004058174,-0.0014829314,0.0027078940000000006,0.006836152000000001,4.924,0,0
0.01496172,0.00234389,-0.0014534094,0.0019304272000000003,0.0053036637999999995,4.925,0,0
0.011465466,-0.0005646680000000004,-0.0012777437999999999,0.0007918711999999998,0.0030202018,4.926,0,0
0.007495724,-0.004169966000000001,-0.00073509,-0.00018019280000000003,0.0010294778000000003,4.927,0,0
0.0027931460000000003,-0.006411528,0.000344944,-0.0016237168000000001,-0.0013965942000000002,4.928,0,0
-0.0029258140000000005,-0.0061081794,0.00105379,-0.0026279448000000004,-0.0036244802000000003,4.929,0,0
-0.007136414000000001,-0.005235361399999999,0.0013834252000000003,-0.002640634,-0.004171118000000001,4.93,0,0
-0.009536260000000001,-0.004190118,0.0017241090000000001,-0.0024207984,-0.004033094000000001,4.931,0,0
-0.011772538,-0.0019002818,0.0015230884000000003,-0.0018303700000000004,-0.004000318,4.932,0,0
-0.01264496,-0.0002714108,0.0008984338,-0.00043285,-0.002506372,4.933,0,0
-0.010780464000000002,-0.0001981574,0.00029246579999999995,0.001105522,-0.00017600600000000025,4.934,0,0
-0.008706304000000002,-0.0002326746,-0.00029825340000000003,0.001961144,0.000679458,4.935,0,0
-0.006223623600000001,-0.0001331604,-0.0008913994000000001,0.002221485,0.0011496219999999999,4.936,0,0
-0.0014641955999999997,-0.00022451306000000003,-0.0011186946000000001,0.0024402126000000004,0.002976846,4.937,0,0
0.0028566044000000006,-0.00027269686000000004,-0.001326317,0.0021026304000000004,0.0037083940000000003,4.938,0,0
0.005515808400000001,-3.2805860000000015e-05,-0.0009244723999999999,0.0012195318,0.0029578520000000004,4.939,0,0
0.008189648400000001,0.00013939313999999998,0.00042439760000000006,0.0007652958000000001,0.0031355040000000008,4.94,0,0
0.010046108000000002,-8.570946000000003e-05,0.0022464476,0.0005362142000000001,0.0031177522,4.941,0,0
0.009382703999999999,-0.00036770300000000004,0.0041998536,0.0001721976,0.0014039922000000002,4.942,0,0
0.007686326,-0.0005625982,0.0046741566,8.207999999999566e-07,0.00014767820000000009,4.943,0,0
0.0058930634,-0.0009762032000000002,0.0027186020000000005,-0.0004016026000000001,-0.00040908159999999993,4.944,0,0
0.0024244754000000003,-0.0008596890000000001,-2.1040000000000164e-05,-0.0012903666,-0.0020724616,4.945,0,0
-0.0013371346,0.00026095999999999997,-0.002161084,-0.0019040496000000003,-0.0032406718,4.946,0,0
-0.0034409286000000004,0.0016441119999999999,-0.004092714,-0.002076909,-0.0032127698,4.947,0,0
-0.0050742706,0.0029884860000000003,-0.004417922,-0.0020421584,-0.0037867818,4.948,0,0
-0.006703876,0.003952528,-0.002445096,-0.0016333004000000002,-0.00472669,4.949,0,0
-0.006374534,0.003995648,-0.00077946,-0.0006529183999999999,-0.003958174,4.95,0,0
-0.004917418000000001,0.0032561496,-0.00023830630000000003,0.0002085036,-0.0028113408,4.951,0,0
-0.00448852,0.0023143774000000004,7.201230000000002e-05,0.0006045896,-0.0023895044000000003,4.952,0,0
-0.0029619620000000003,0.0011928648000000001,9.016100000000003e-06,0.0010006440000000002,-0.0005217343999999997,4.953,0,0
0.00012237399999999996,0.00014037680000000006,-3.1744100000000034e-05,0.0012874820000000004,0.0020222236000000003,4.954,0,0
0.002361798,-0.0005111952,0.00015410790000000002,0.001327414,0.0034170756,4.955,0,0
0.00384112,-0.0009899128000000002,4.22818e-05,0.0012076908,0.0039894284,4.956,0,0
0.006015782000000001,-0.0009891588,-0.0004859028,0.0006551427999999999,0.0041251766,4.957,0,0
0.006980506000000001,-0.0004971882,-0.0007089246000000001,-6.411520000000007e-05,0.0030498716,4.958,0,0
0.0054964935000000005,0.0003644718000000001,-0.0006659324000000002,-0.00028084600000000007,0.0016452902000000003,4.959,0,0
0.004024785500000001,0.0016072738,-0.0006713016000000001,-0.00032845800000000006,0.0011643722,4.96,0,0
0.0025518955000000004,0.0028396778,-4.911719999999996e-05,-0.0007374028000000001,0.0007373944000000001,4.961,0,0
-0.00018452650000000013,0.0028516524000000002,0.0010443048,-0.0011209688,-6.939019999999997e-05,4.962,0,0
-0.0025697265,0.0008902164000000002,0.0015301284,-0.0010610108,-0.0005876432,4.963,0,0
-0.0033671560000000005,-0.0017983235999999999,0.0015386044,-0.0014104780000000002,-0.0009210598,4.964,0,0
-0.004461954000000001,-0.0042330416,0.0019603856,-0.002117758,-0.0021986918000000003,4.965,0,0
-0.005261682,-0.0061993016,0.0016799876000000002,-0.0018672404000000002,-0.00312413,4.966,0,0
-0.0041530304,-0.006878544,0.0009273376000000002,-0.0006806604,-0.0024466872,4.967,0,0
-0.0030013734000000005,-0.00485488,0.0007051668000000001,4.9115599999999845e-05,-0.0018456444000000002,4.968,0,0
-0.0024095792000000003,-0.0013485699999999995,0.00028275680000000006,0.0003809209999999999,-0.0017605424,4.969,0,0
-0.0008161371999999998,0.00115408,-0.0006762212,0.001342347,-0.0007707704000000002,4.97,0,0
0.0008752548000000001,0.0030301340000000003,-0.0012532272,0.0017633974000000002,0.0006320056,4.971,0,0
0.0010884412,0.004261054,-0.0009566166,0.0010304374,0.0009928127999999999,4.972,0,0
0.0015535462,0.0041207200000000005,-0.0010136944,0.000794585,0.001504774,4.973,0,0
0.0027920360000000003,0.0031289480000000003,-0.0009812802,0.0010866416000000002,0.002562874,4.974,0,0
0.0025832060000000002,0.0026832120000000004,-0.0002826358,0.0004234252000000001,0.0024391852,4.975,0,0
0.001179864,0.0025423520000000003,4.4920200000000004e-05,-6.333619999999998e-05,0.0019472604000000003,4.976,0,0
0.0008416747999999999,0.0016761422,-5.370040000000003e-05,0.0002507240000000001,0.0020099004000000004,4.977,0,0
0.00043050759999999983,0.0002724782000000001,0.0003027746,-8.590939999999997e-05,0.0011971744000000002,4.978,0,0
-0.0012186904000000003,-0.0018736018000000002,0.0005805698,-0.0005053574,-9.495159999999995e-05,4.979,0,0
-0.0015677392000000001,-0.004118345800000001,0.00027519900000000006,-0.0002054826,-0.0002593348,4.98,0,0
-0.0006558522,-0.0058361738,0.00025402240000000004,-1.0600399999999987e-05,-0.000667976,4.981,0,0
-0.000924665,-0.00626619,0.0004099244,-0.00025445860000000004,-0.0022905340000000003,4.982,0,0
-0.0009627868000000001,-0.004437788,0.00021926520000000002,-0.0002797108,-0.0027197780000000004,4.983,0,0
0.00040367920000000017,0.0013787939999999996,-0.0001014002,-0.00024398740000000006,-0.0020962626000000004,4.984,0,0
0.0002881680000000001,0.009263956,0.0002698942,-0.0005769248,-0.0022552720000000004,4.985,0,0
-0.0005401429999999999,0.014023442000000002,0.0006604308,-0.0005319524000000001,-0.0017796004000000002,4.986,0,0
0.000419773,0.015456364,0.00037553019999999996,4.173159999999997e-05,0.0001327956000000001,4.987,0,0
0.0008695900000000001,0.013698654000000001,0.0004447848,0.0001627002,0.0011866396000000002,4.988,0,0
0.00017542239999999995,0.008063944,0.0008607752,0.0001025234,0.0010141362,4.989,0,0
0.0006370364,-3.0428000000000312e-05,0.0008667372000000001,0.0007019064000000001,0.0013690422,4.99,0,0
0.0011481912,-0.006984708000000001,0.0007632772000000001,0.0010225972000000002,0.0013268397999999999,4.991,0,0
-0.0002998308,-0.00996644,0.0007295028000000001,0.0006112862,0.00012774180000000007,4.992,0,0
-0.0012741628,-0.009464824,0.0001370214000000001,0.0001480896000000001,-0.0006218161999999999,4.993,0,0
-0.0007563612,-0.008001290400000001,-0.0007138110000000001,-0.00045709099999999996,-0.0007823357999999999,4.994,0,0
-0.0008451098000000001,-0.0060516584,-0.001305825,-0.0012489130000000001,-0.0014168243999999998,4.995,0,0
-0.0008130432000000001,-0.0025627944000000008,-0.001841653,-0.0016473192,-0.001666582,4.996,0,0
0.0005435527999999999,-0.0002086484,-0.00212707,-0.0012616882,-0.0010169154,4.997,0,0
0.0012666888,0.00011672760000000002,-0.00166111058,-0.00055472,-0.0007177161999999999,4.998,0,0
0.00032999479999999996,-3.4199999999999964e-05,-0.0009954170799999999,8.741156e-05,-0.0006616014,4.999,0,0
0.0005121073999999998,-0.00049069,-0.0006941664800000001,0.00070007556,3.6508600000000025e-05,5.0,0,0
0.001378978,-0.001485116,-4.510047999999999e-05,0.0008469831600000001,0.000526697,5.001,0,0
0.0006909780000000001,-0.00233944,0.0008433675200000001,0.00018786716,0.0003667838000000001,5.002,0,0
0.0002936436000000001,-0.00254113,0.0009815713000000002,-0.00018141504000000004,0.0009035846,5.003,0,0
0.0012612856000000002,-0.0025272240000000002,0.0011462606,-0.00013276200000000003,0.0019248954,5.004,0,0
0.0010126858000000002,-0.0021961764000000003,0.0016483460000000002,-0.00062208,0.001741773,5.005,0,0
-0.00034075419999999993,-0.0014600820000000001,0.0010427280000000001,-0.0008823936000000001,0.001024741,5.006,0,0
6.170040000000001e-05,-0.0003364320000000001,-0.00014009199999999997,-0.00028737300000000006,0.0013279236,5.007,0,0
0.00047905680000000006,0.000597596,-0.0005530792,6.739679999999998e-05,0.0010972636,5.008,0,0
-0.0004888412000000001,0.001583998,-0.0008665815999999999,-0.00017196800000000002,-3.3522399999999996e-05,5.009,0,0
-7.558739999999998e-05,0.0028525304000000004,-0.0014265442,-6.738160000000001e-05,0.00031859799999999996,5.01,0,0
0.0013281745999999999,0.0031388440000000004,-0.0011563942,-8.442739999999998e-05,0.001226702,5.011,0,0
0.0008678799999999999,0.0029367900000000003,-0.00035791740000000005,-0.0005383180000000001,0.0009193361999999999,5.012,0,0
0.0004869775999999999,0.0031696840000000007,-0.00013700579999999997,-0.0008591280000000001,0.0008003395999999999,5.013,0,0
0.0015378396000000003,0.002922792,-4.7037799999999965e-05,-0.000839986,0.0011129412000000002,5.014,0,0
0.0012443522,0.002275684,0.00015327100000000002,-0.0008090636000000002,0.0002816192,5.015,0,0
0.00011238219999999991,0.0019401446000000002,0.00015901860000000002,-0.0004193096000000001,-0.0006220628,5.016,0,0
0.000513391,0.0006810105999999999,0.00019639199999999999,0.00037448640000000013,-0.00033742300000000005,5.017,0,0
0.0007947384,-0.0018562093999999999,0.0005508464,0.0006502440000000001,-0.00046714440000000004,5.018,0,0
-0.0004753876000000001,-0.004304421399999999,0.0007628936000000002,0.0008591142000000002,-0.0009444560000000001,5.019,0,0
-0.0011095102,-0.006405815400000001,0.00042704140000000005,0.0010778250000000001,-0.00040181660000000003,5.02,0,0
-0.0007008724,-0.007660326,0.0009628438000000002,0.000642031,-8.313380000000002e-05,5.021,0,0
-0.0014215892,-0.007716565999999999,0.0025068836000000003,-0.00023045500000000004,-0.0009658198000000002,5.022,0,0
-0.0022815622000000005,-0.006093375199999999,0.0039591176,-0.0004920746000000001,-0.0013952778000000002,5.023,0,0
-0.0013824762000000002,-0.002399355199999999,0.0045402920000000005,-0.00017173459999999998,-0.0008843452,5.024,0,0
-0.0011009564,0.0017368368000000003,0.0033947580000000003,3.777179999999992e-05,-0.0011806441999999999,5.025,0,0
-0.0016950182,0.0055093008,0.0008458160000000005,0.0005349218000000001,-0.0012613542,5.026,0,0
-0.0006894462000000001,0.0083758588,-0.0020173599999999997,0.0015081138000000002,5.5359800000000106e-05,5.027,0,0
0.0001415552000000001,0.00900997,-0.004451048,0.001874474,0.0006796926000000001,5.028,0,0
-0.0007766028,0.0071725186,-0.00556158,0.0014834648000000001,0.0004504114000000001,5.029,0,0
-0.00016861060000000001,0.0045036040000000005,-0.0042767992000000005,0.0013520528000000001,0.001181083,5.03,0,0
0.0015908974,0.002232674,-0.0022716252,0.0012577368,0.0018844302,5.031,0,0
0.0013002768,0.00058357,-0.0013626152,0.0007046789999999999,0.001142955,5.032,0,0
0.0010861166,4.374399999999997e-06,-0.0013798612,0.000492011,0.0012522122,5.033,0,0
0.0020460006000000003,-0.00017944820000000003,-0.0015708132,0.0009804562,0.0021429328,5.034,0,0
0.0012628566000000001,-0.0005018496000000001,-0.0013792984,0.0006832106000000001,0.0010002607999999998,5.035,0,0
-0.0008912233999999999,-0.0011642596000000002,-0.0009425443999999999,-0.00040729339999999995,-0.0009613392000000001,5.036,0,0
-0.0014969908,-0.0021020856000000003,-0.00019429240000000013,-0.0007904216000000001,-0.0018664240000000002,5.037,0,0
-0.002121734,-0.0027359520000000007,0.0008343996,-0.0010568656,-0.002897714,5.038,0,0
-0.003949076,-0.0029492380000000003,0.0016934596000000002,-0.0017157574000000002,-0.00427358,5.039,0,0
-0.004213144,-0.002761328,0.0015697150000000002,-0.0014639176000000001,-0.003711294,5.04,0,0
-0.0029930380000000004,-0.0024621699999999996,0.001240321,-0.0004433334,-0.001998006,5.041,0,0
-0.002747566,-0.0018524784000000004,0.0014404170000000003,4.0787600000000016e-05,-0.0010870483999999999,5.042,0,0
-0.0023017000000000003,-0.0006615784,0.00111443082,0.00026440640000000004,3.7301599999999934e-05,5.043,0,0
-5.0680000000000104e-05,0.0004708956000000001,0.00043886482,0.0006138656,0.0013123616,5.044,0,0
0.0011254960000000001,0.0009679576000000002,0.00065089762,0.00034253399999999997,0.0015362356000000001,5.045,0,0
0.001340672,0.0014686336000000002,0.0005565316199999999,0.0002443248,0.0015747916,5.046,0,0
0.003137364,0.00186742,-0.00060684038,0.0006586297999999999,0.002323636,5.047,0,0
0.004825914000000001,0.0009579080000000002,-0.000663086,0.000917175,0.002159442,5.048,0,0
0.004943926,-0.001187084,5.0776000000000044e-05,0.0009391860000000001,0.001457186,5.049,0,0
0.0054851200000000004,-0.0037799600000000006,-2.7551799999999955e-05,0.0010752672,0.0019698980000000003,5.05,0,0
0.0063051719999999995,-0.006569154000000001,-0.0002202348,0.0011230006,0.0022196240000000003,5.051,0,0
0.004512248000000001,-0.008951824,3.2503e-05,0.00027828060000000004,0.0013134660000000003,5.052,0,0
0.0020219160000000003,-0.009277546000000001,9.217018000000003e-05,-0.0004975854,0.000582576,5.053,0,0
0.0007058380000000001,-0.006904730000000001,8.132617999999993e-05,-0.0009164398000000001,0.00026968200000000025,5.054,0,0
-0.001992604,-0.0011306500000000004,0.00040428018,-0.0008609221999999999,-0.000922436,5.055,0,0
-0.005345562,0.00639813,0.00041920658,-0.0007795586000000001,-0.0019720379999999997,5.056,0,0
-0.005831154000000001,0.011871650000000001,0.0003059267800000001,-0.00045030459999999994,-0.001457954,5.057,0,0
-0.005124536000000001,0.01438053,0.000423896,0.0003332014,-0.0009392835599999999,5.058,0,0
-0.005386246000000001,0.015195828000000002,0.000309412,0.0007267186000000001,-0.0007827877599999998,5.059,0,0
-0.0036860210000000003,0.013677568000000001,-5.348819999999996e-05,0.0011795532,0.00021284624,5.06,0,0
-0.0007216590000000004,0.009362888000000002,0.0001844786,0.0011291232,0.00114406424,5.061,0,0
0.000314411,0.005752846000000001,0.0006926346,0.0006886892,0.00098535444,5.062,0,0
0.001253789,0.003248614000000001,0.00041201280000000007,0.0004367407999999999,0.0014132580000000001,5.063,0,0
0.003586019,0.000761618,-4.106520000000003e-05,8.80965999999999e-05,0.0019912762,5.064,0,0
0.004047116,-0.002244554,9.295600000000013e-06,-0.0010648454000000002,0.0012377941999999998,5.065,0,0
0.0025082420000000004,-0.005730774000000001,1.2638600000000011e-05,-0.0018024914000000002,0.0006530066,5.066,0,0
0.00216954,-0.007883912000000002,-0.0003231874,-0.0014180094000000002,0.0007383444000000001,5.067,0,0
0.0014601660000000002,-0.008844642000000002,-0.0004156842,-0.001506144,4.588839999999998e-05,5.068,0,0
-0.000989154,-0.010022262,-0.0002316156,-0.0013962052,-0.0009481356000000001,5.069,0,0
-0.00230013,-0.01100185,-0.0001488998,-0.0008092522000000001,-0.0009519896,5.07,0,0
-0.002043042,-0.010242480000000002,-0.0001902224,-0.0012427222,-0.001467478,5.071,0,0
-0.002938538,-0.009097558000000002,1.936140000000002e-05,-0.0023743702000000003,-0.002695388,5.072,0,0
-0.003938104,-0.007929772,0.00037691880000000007,-0.0027298212,-0.002947446,5.073,0,0
-0.0031190282,-0.0057028185999999995,0.0002558368,-0.0027186194000000004,-0.002575338,5.074,0,0
-0.0026338702000000005,-0.0023294206,8.448440000000001e-05,-0.0028347994000000004,-0.0025161292000000003,5.075,0,0
-0.0027136542000000003,0.0011900314000000002,-6.240139999999999e-05,-0.0019891036,-0.0020822818,5.076,0,0
-0.0009308002000000001,0.0031979514000000007,-0.0010454132,-0.0005344476,-0.0007204658,5.077,0,0
0.0015545038,0.0043958114000000005,-0.0024632666,0.00021568440000000003,3.4928200000000056e-05,5.078,0,0
0.002516776,0.004999,-0.0032453972000000006,0.000293801744,-4.3577799999999995e-05,5.079,0,0
0.004065796,0.004219990000000001,-0.0035871752000000007,0.000743398744,0.0007521534000000001,5.08,0,0
0.006274427999999999,0.00382453,-0.003356935,0.0015837929440000002,0.0018261920000000004,5.081,0,0
0.006435926,0.005110848,-0.0014511609999999999,0.001761668944,0.0016304506000000003,5.082,0,0
0.005742052,0.007011672000000001,0.0016413750000000003,0.002052684944,0.0016554206000000003,5.083,0,0
0.005639898,0.008615310000000001,0.003836595000000001,0.0024449180000000004,0.0022681726000000004,5.084,0,0
0.004032164,0.009106776,0.004584585000000001,0.0017980300000000002,0.0008466406000000003,5.085,0,0
0.0005780820000000004,0.0077561844,0.004476686200000001,0.0006626739999999998,-0.0011529053999999998,5.086,0,0
-0.0017259500000000002,0.0048129344,0.0033897074000000006,-1.0650599999999894e-05,-0.001731046,5.087,0,0
-0.00383249,0.0009373423999999996,0.0017951534000000002,-0.0004651176,-0.002639812,5.088,0,0
-0.006932306000000001,-0.0026974375999999998,0.0006376818,-0.0009189414000000001,-0.0034981960000000003,5.089,0,0
-0.007966496,-0.0047441816,-4.156420000000008e-05,-0.00054009,-0.0028312450000000005,5.09,0,0
-0.006602404,-0.005978356000000001,-0.0002735310000000001,0.0005245480000000001,-0.0015130170000000002,5.091,0,0
-0.005840978,-0.006975936,0.00013022979999999994,0.0013642866000000001,-0.0007387810000000002,5.092,0,0
-0.0047796159999999996,-0.007122046,0.00020242779999999998,0.0017557396,0.000464893,5.093,0,0
-0.0014442060000000002,-0.006864758,0.00017635879999999997,0.0024372474,0.0022854650000000004,5.094,0,0
0.001072282,-0.006281050000000001,0.0005419380000000001,0.002958954,0.003404684,5.095,0,0
0.002258414,-0.004302328,0.0005451468000000001,0.0022936864,0.0038495840000000005,5.096,0,0
0.004760658,-0.0010009020000000003,6.502660000000003e-05,0.0012311384,0.004519390000000001,5.097,0,0
0.006994878,0.00224593,-0.0008479934,0.0004870664,0.0048868240000000005,5.098,0,0
0.006806082000000001,0.005153396000000001,-0.0015798568,-0.00034567560000000014,0.003979202,5.099,0,0
0.006427066,0.007389936,-0.0019109079999999998,-0.0007933028000000001,0.0033790620000000004,5.1,0,0
0.006038706000000001,0.008305690000000001,-0.0020392101999999997,-0.0007029944000000001,0.0027486498000000004,5.101,0,0
0.0031753420000000007,0.008099504,-0.0019965267999999996,-0.0007514444000000001,0.0005742958000000001,5.102,0,0
-0.00011165599999999969,0.006911484,-0.0013932702,-0.0007480024,-0.0016883182000000004,5.103,0,0
-0.002084754,0.0051717168,-0.0007433048,-0.0006229748000000002,-0.0030195682000000003,5.104,0,0
-0.004342322,0.0031566868000000004,-0.0004468858,-0.0008760574000000001,-0.0046746762,5.105,0,0
-0.006648462000000001,0.0004893168000000003,-9.342999999999995e-06,-0.0014140302000000002,-0.005947142000000001,5.106,0,0
-0.007025232000000001,-0.0026491531999999996,2.2649400000000007e-05,-0.0014555202000000001,-0.005186062,5.107,0,0
-0.006154134,-0.0058242832000000005,-9.283519999999999e-05,-0.0015724862000000002,-0.004343972000000001,5.108,0,0
-0.005802412000000001,-0.009337409999999999,-8.24826e-05,-0.0016369126000000001,-0.003938586,5.109,0,0
-0.0045202568000000005,-0.012471298,6.826700000000003e-05,-0.0009613108000000003,-0.0021786260000000003,5.11,0,0
-0.0014668508,-0.014039080000000002,0.00019749819999999999,-0.0003240078000000001,-0.00015590799999999996,5.111,0,0
0.0010399112000000002,-0.01410662,0.0006522386,0.00014402219999999993,0.0004085938,5.112,0,0
0.0027454932000000004,-0.012295984000000001,0.0012256766,0.0009914861999999998,0.0014842298000000004,5.113,0,0
0.005237199200000001,-0.008240558,0.0012707570000000002,0.001566077,0.0034225338000000004,5.114,0,0
0.006534992,-0.001291638,0.0012797624000000002,0.0012067507999999998,0.0037831158000000004,5.115,0,0
0.005526956000000001,0.006787802000000001,0.0008461961999999999,0.0007382458000000001,0.0034535318000000004,5.116,0,0
0.005357154,0.012434142000000002,-3.2478000000000064e-06,0.0006174141999999999,0.0037641780000000004,5.117,0,0
0.0052206660000000005,0.015664026,-0.00047072560000000006,0.00046589419999999997,0.0033133470000000003,5.118,0,0
0.0031103240000000002,0.016994540000000002,-0.00045486340000000004,0.0002844781999999999,0.001599255,5.119,0,0
0.0016498340000000002,0.014768554000000001,-0.0008905094000000001,0.0004503303999999999,0.0005242650000000001,5.12,0,0
0.0009980520000000001,0.009187576000000001,-0.0008468748,0.0010114904,3.018899999999997e-05,5.121,0,0
-0.00167359,0.00401577,9.349519999999999e-05,0.001005445,-0.0011081050000000003,5.122,0,0
-0.004829664000000001,0.0006713780000000005,0.0005102710000000001,-6.428700000000011e-05,-0.0021903940000000005,5.123,0,0
-0.006223516,-0.002539926,0.0005278222,-0.001056943,-0.002790082,5.124,0,0
-0.007736496000000001,-0.00564861,0.0008425802,-0.001734487,-0.0034972960000000004,5.125,0,0
-0.008654528000000002,-0.0063543,0.0011212782,-0.002224469,-0.0038007320000000002,5.126,0,0
-0.006734944,-0.005005017600000001,0.00047894120000000005,-0.0019274088,-0.002555912,5.127,0,0
-0.003747732,-0.0041851614,-9.1054e-05,-0.001124906,-0.0010500219999999998,5.128,0,0
-0.001372958,-0.0028814444,-0.0005017958,-0.0005820339999999999,0.00010507599999999979,5.129,0,0
0.0021542059999999997,-0.0008011743999999999,-0.0011469598,-0.00013841100000000001,0.00181921,5.13,0,0
0.006125344,0.00039349360000000006,-0.0017163062,3.298420000000002e-05,0.002869924,5.131,0,0
0.00745233,0.0005451558,-0.0016504406,-0.00038679900000000006,0.0024208656,5.132,0,0
0.007642002,0.0004543196,-0.00034493939999999997,-0.0001046938,0.0020693116,5.133,0,0
0.008280639999999999,0.00036447399999999994,0.0016686186000000004,0.0006518802,0.0023200976000000003,5.134,0,0
0.0068023714,-0.00023168,0.0036079086,0.00048253879999999997,0.0013911067999999999,5.135,0,0
0.0030162554,-0.001150664,0.0033908306000000007,0.0003788444,2.90907999999999e-05,5.136,0,0
0.0002497913999999998,-0.0014800366,0.0014774880000000003,0.0010018423999999999,-7.288100000000005e-05,5.137,0,0
-0.0018988046000000002,-0.0010593866,-0.0001332179999999995,0.0009197904,-0.0006022470000000002,5.138,0,0
-0.005119230600000001,-0.0011338754,-0.0019164492,0.00022585719999999998,-0.002154061,5.139,0,0
-0.006967822,-0.0014791414,-0.0035169591999999997,0.0003072099,-0.0024979662000000004,5.14,0,0
-0.006503214,-0.0013099034,-0.0029805393999999996,0.0007060471,-0.0018390023000000003,5.141,0,0
-0.006459526,-0.0009672502,-0.00093971962,0.0004679857,-0.0019484123000000002,5.142,0,0
-0.006185146000000001,-0.0008180182000000001,-0.00019842362,0.0003687615,-0.0013589403,5.143,0,0
-0.0036852340000000003,-0.00019519679999999997,-0.00049655642,0.0005018047,0.0003525317,5.144,0,0
-0.0013206620000000002,0.0013775532000000002,-0.00047247662,-9.134360000000007e-05,0.0010246075,5.145,0,0
0.00014120399999999992,0.0026838552000000002,-0.00021453582000000002,-0.0007858476000000001,0.0011311455999999998,5.146,0,0
0.003223048,0.0027960574000000004,-0.0003940168,-0.0010190304,0.0020789898,5.147,0,0
0.006465060000000001,0.0017340894,-0.0008983928000000001,-0.001095864,0.0027030498,5.148,0,0
0.0072948100000000005,0.0006613913999999999,-0.0006321734,-0.0010453414000000001,0.0022597608,5.149,0,0
0.007766176,-0.0003986778,-0.00043253631599999995,-0.0008116174000000001,0.0021471756,5.15,0,0
0.008081944,-0.0016505978,-0.0008046609160000001,-0.0004586462,0.0020073428,5.151,0,0
0.0055351440000000005,-0.0019004478,-0.0006303804560000001,-0.0003752968,0.0004889668,5.152,0,0
0.001809548,-0.0011229416000000001,-2.2936456000000006e-05,-0.0007009770000000001,-0.0010348192,5.153,0,0
-0.000570064,-0.0006145095999999999,0.0007173421440000001,-0.0005640118,-0.0011206598000000003,5.154,0,0
-0.003673586,-0.0006689552,0.0013375932600000002,3.763619999999998e-05,-0.0011318164,5.155,0,0
-0.007217172000000001,-0.00047638520000000003,0.00165775566,0.000370931,-0.0011333772,5.156,0,0
-0.007884282000000001,-0.0004435538,0.0015830944000000003,0.0012110798000000002,0.0003567388,5.157,0,0
-0.007389894000000001,-0.0009859320000000001,0.0013093418000000002,0.0021365838000000003,0.0016003868,5.158,0,0
-0.007684138,-0.0014970699999999999,0.0011375018,0.0021415962,0.0008846924,5.159,0,0
-0.006052096000000001,-0.0014986978,0.0009489858,0.0020069552,0.00015050039999999995,5.16,0,0
-0.002520196,-0.0011469426,0.0008919582000000001,0.0016739694000000001,-0.000346836,5.161,0,0
-0.00018486200000000026,-0.0003954414,0.0005574242,0.0006785089999999999,-0.0018840640000000002,5.162,0,0
0.002196922,0.0008162686,4.7782799999999904e-05,-0.0001314302000000001,-0.001977294,5.163,0,0
0.006169560000000001,0.0020427986,-0.0005965412000000002,-0.00038621540000000006,2.0623999999999903e-05,5.164,0,0
0.008685002,0.0025682172,-0.0012906852000000003,-0.0007971424000000002,0.0014169960000000002,5.165,0,0
0.008874788,0.0018577060000000002,-0.0012909326000000003,-0.0011556506,0.0020668964,5.166,0,0
0.008931406,-0.00018668000000000005,-0.0007782394,-0.0011035192,0.002671985,5.167,0,0
0.007978318000000002,-0.002837718,-0.0003068018,-0.0011721345999999998,0.001747753,5.168,0,0
0.004118788,-0.004756184,0.0002687102,-0.0013512776,-0.0006343809999999999,5.169,0,0
2.3921999999999572e-05,-0.0057606459999999995,0.0007463222000000001,-0.0011518996,-0.002351443,5.17,0,0
-0.0025368520000000005,-0.0053192462,0.0005994828,-0.0005114176000000001,-0.0033317394,5.171,0,0
-0.005928396000000001,-0.0026176601999999996,0.0005192902000000001,-0.00011755459999999995,-0.0044130260000000004,5.172,0,0
-0.009001684000000001,0.0009972278000000001,0.0006095714000000001,0.00029887999999999996,-0.005057366000000001,5.173,0,0
-0.00907914,0.0036497638,0.0003849312,0.001042862,-0.004280768000000001,5.174,0,0
-0.008121724,0.0054245978,0.0006393372000000001,0.0011545284,-0.0033503806000000002,5.175,0,0
-0.007338896000000002,0.006489536000000001,0.0011507912,0.0010396202,-0.0025633002,5.176,0,0
-0.004289956000000001,0.006947946,0.0008032326000000001,0.0014016802000000003,-0.00043858419999999996,5.177,0,0
-0.00035427000000000006,0.007253916000000001,0.00038139179999999997,0.0013549608000000002,0.0019541618,5.178,0,0
0.0024479280000000003,0.006018204,8.097020000000007e-05,0.0007162916000000001,0.0030973657999999998,5.179,0,0
0.005990418000000001,0.003407732,-0.0007183098000000001,0.0008440070000000001,0.0044030584,5.18,0,0
0.009633198,4.654399999999949e-05,-0.0013679318000000002,0.0011290152000000002,0.00581301,5.181,0,0
0.011002738000000001,-0.0044395300000000006,-0.0014269818000000002,0.0006993988,0.005255569999999999,5.182,0,0
0.010295324000000002,-0.00896327,-0.0016393478,0.0007670062,0.0040551962,5.183,0,0
0.0087700524,-0.011634834,-0.001986704,0.0010868954000000002,0.0032945086000000004,5.184,0,0
0.0052706844000000004,-0.009062316,-0.0016234104,0.0006105916000000002,0.0019208022000000004,5.185,0,0
-0.0002163956000000005,-0.002002236,-0.0010547643999999998,-0.00018562040000000003,2.004619999999987e-05,5.186,0,0
-0.004526275600000001,0.0038131439999999996,-0.00044304239999999996,-0.0005310628000000001,-0.0011759858,5.187,0,0
-0.0070632376,0.00719156,0.0005998296000000001,-0.0008280138,-0.002048928,5.188,0,0
-0.009531638,0.0096951766,0.0013531136,-0.0013422238000000003,-0.0032459624000000004,5.189,0,0
-0.01078597,0.0082883906,0.0012561552000000002,-0.0014438218,-0.0040342120000000006,5.19,0,0
-0.00962798,0.0031316385999999993,0.0010616150000000001,-0.0013628738000000002,-0.0040171320000000005,5.191,0,0
-0.008657668,-0.0005391974000000002,0.001143691,-0.001746095,-0.0037022040000000006,5.192,0,0
-0.007673294,-0.0020708414,0.000857683,-0.0020105419999999997,-0.0028916901999999998,5.193,0,0
-0.004510826000000001,-0.0023496536000000004,0.0005934682000000001,-0.0014649580000000001,-0.0008407082,5.194,0,0
-0.0010693500000000002,-0.0017552976,0.000327467,-0.0011486847999999997,0.0007100578000000001,5.195,0,0
0.0013981080000000001,-0.0010583284000000002,-0.0003310908,-0.000792573,0.0015300378000000002,5.196,0,0
0.004777796000000001,-9.938639999999989e-05,-0.0009322708000000001,0.000720019,0.0031606738000000004,5.197,0,0
0.008357372,0.0010971776000000002,-0.0012279798,0.0014384970000000002,0.004259988,5.198,0,0
0.009304760000000002,0.0019889592000000003,-0.000902461,0.0008551190000000001,0.003675508,5.199,0,0
0.00903994,0.0026803752,-0.0004171988,0.0010790770000000001,0.0031988674000000003,5.2,0,0
0.008826318000000001,0.003338378,-8.746079999999995e-05,0.0012815650000000001,0.0031106494000000006,5.201,0,0
0.006080828000000001,0.0024894360000000003,0.00023465660000000007,-0.0001486229999999999,0.0010556554,5.202,0,0
0.0018484480000000008,0.0006163039999999996,0.00030169622,-0.0012107189999999999,-0.0018361306000000003,5.203,0,0
-0.0008386459999999997,-0.0010968300000000005,-7.605779999999996e-06,-0.0014254810000000001,-0.0036053366000000004,5.204,0,0
-0.003645496,-0.0030819560000000003,-0.00020775078,-0.0021457922,-0.0055099020000000005,5.205,0,0
-0.007094002,-0.004900238000000001,-0.00041968478,-0.0028235720000000003,-0.007018406,5.206,0,0
-0.00826921,-0.005175894,-0.00122072418,-0.002380202,-0.006575448000000001,5.207,0,0
-0.007868248000000001,-0.004275334,-0.0015415628,-0.0010973899999999997,-0.00506538,5.208,0,0
-0.008008364,-0.0035751499999999996,-0.0013051428,-0.0001891359999999998,-0.003458182,5.209,0,0
-0.006627758000000001,-0.0028994800000000003,-0.0015370540000000002,0.0011755480000000002,-0.0007705020000000002,5.21,0,0
-0.0029816219999999997,-0.0020307100000000002,-0.00113097,0.0026727,0.0020274480000000003,5.211,0,0
4.744600000000003e-05,-0.0005980199999999999,0.000443072,0.0030184900000000004,0.003059824,5.212,0,0
0.0025762260000000005,0.001152442,0.0016905940000000001,0.003143344,0.004040742000000001,5.213,0,0
0.00624338,0.002445256,0.001880596,0.003414178,0.005604210000000001,5.214,0,0
0.008941728000000001,0.0035062100000000005,0.0018776360000000002,0.00289731,0.005640050000000001,5.215,0,0
0.009063834000000002,0.0044410840000000005,0.0018451930000000004,0.0019857446,0.004038831800000001,5.216,0,0
0.009018020000000002,0.004389002,0.0010533895000000002,0.0011189626,0.0029345258000000006,5.217,0,0
0.008377212,0.003387804,0.0011300455,-0.0004014414,0.0015660438000000003,5.218,0,0
0.004920024,0.0024564976,0.0029745635,-0.0017568554,-0.0010917062,5.219,0,0
0.0011868260000000002,0.0015504056,0.0051773375,-0.0022364574,-0.0028091422000000002,5.22,0,0
-0.0012736040000000002,7.238760000000003e-05,0.0057181125,-0.0022254424,-0.0031588000000000002,5.221,0,0
-0.00456263,-0.0021702224000000004,0.004203712,-0.0020609304,-0.0033199480000000005,5.222,0,0
-0.007900664000000002,-0.004508010400000001,0.0014492919999999992,-0.0016509364000000001,-0.0032802840000000005,5.223,0,0
-0.008288360000000002,-0.006556854000000001,-0.0020591280000000003,-0.0010716466,-0.0023591310000000004,5.224,0,0
-0.007319722000000001,-0.00820826,-0.004593392000000001,-0.0012383566000000001,-0.0014419956000000004,5.225,0,0
-0.006712350000000001,-0.008734416000000002,-0.005321658000000001,-0.0014912372000000001,-0.0009672084800000001,5.226,0,0
-0.004056734,-0.007591200000000001,-0.0042830360000000005,-0.0007753152,0.00063592752,5.227,0,0
9.138600000000037e-05,-0.00440102,-0.002978814,-0.00010548520000000001,0.0020883935199999997,5.228,0,0
0.00296566,0.0005781000000000002,-0.002195248,0.0004569750000000001,0.0023893345200000004,5.229,0,0
0.00551484,0.00634821,-0.0019389740000000002,0.0014838610000000002,0.0032093791200000004,5.23,0,0
0.008669556,0.011637722,-0.0023184160000000002,0.0019262040000000004,0.004132804,5.231,0,0
0.009810634,0.014175239999999999,-0.0023024620000000003,0.0014930708,0.0036484160000000002,5.232,0,0
0.008931998000000002,0.013071982800000001,-0.002254032,0.0008586647999999999,0.0028837658,5.233,0,0
0.007857208000000001,0.008815420800000001,-0.0021454760000000003,0.00014241880000000006,0.0029076218000000003,5.234,0,0
0.004965224000000001,0.0018096607999999997,-0.00149878,-0.0005661674,0.0020942982,5.235,0,0
6.768400000000015e-05,-0.0052404192,-0.00045043999999999987,-0.0010769794000000002,0.0005517901999999999,5.236,0,0
-0.00374972,-0.0078360452,0.000716446,-0.0011609924,-0.0004437578000000001,5.237,0,0
-0.006511804,-0.005824748000000001,0.002066748,-0.0008733528000000001,-0.0011486716000000002,5.238,0,0
-0.009874884,-0.0026290239999999998,0.0032723220000000003,-0.0009372888000000002,-0.0021449816,5.239,0,0
-0.011634980000000001,0.0008186699999999999,0.003472546,-0.0011118726,-0.0026887540000000002,5.24,0,0
-0.010851162000000001,0.0034866719999999997,0.0030681236,-0.00086743658,-0.0021596852,5.241,0,0
-0.009945248,0.0032762259999999997,0.0024219776000000003,-0.00047626837999999996,-0.0018050912000000003,5.242,0,0
-0.008613724,-0.000211108,0.0017968136000000002,0.0003191160200000002,-0.0008620872,5.243,0,0
-0.00487333,-0.0045612100000000004,0.0011644116000000002,0.00157629202,0.0012980747999999998,5.244,0,0
-0.0005603419999999999,-0.007536604000000001,0.0005115648,0.00219633002,0.0023515968,5.245,0,0
0.0028714459999999997,-0.009400166000000001,0.00048251790000000005,0.0018404480000000004,0.0020001919999999996,5.246,0,0
0.007091672,-0.010483372000000001,0.00015834190000000003,0.0014182540000000003,0.0021572516,5.247,0,0
0.010799728000000001,-0.010240579999999999,-0.0007465601000000001,0.000984114,0.0019739844,5.248,0,0
0.011842236,-0.007569436000000001,-0.0013483641,0.00043402600000000006,0.0003780724,5.249,0,0
0.011596369999999998,-0.0017564360000000005,-0.0015667613,0.00021041980000000013,-0.0004859992,5.25,0,0
0.010619196000000001,0.005669884000000001,-0.0016012258,0.000703912,-0.0003076012,5.251,0,0
0.007286544000000001,0.011682462000000001,-0.0014122109999999998,0.0008687214000000001,-0.0010126588,5.252,0,0
0.0029672500000000003,0.015295244000000001,-0.0008765116,0.0001911034,-0.0023360436,5.253,0,0
-0.0001736120000000003,0.015837408000000004,-0.00027193160000000004,-0.0005022026000000001,-0.0033611756000000003,5.254,0,0
-0.0033430320000000006,0.012013806000000002,0.00048613840000000003,-0.0015580744000000001,-0.0045599640000000006,5.255,0,0
-0.006921284,0.00593733,0.0008856582,-0.0023211666,-0.005110282000000001,5.256,0,0
-0.008626894000000001,0.0011690800000000007,0.0009044044000000001,-0.0017915899999999998,-0.0041676024,5.257,0,0
-0.008601068,-0.0012837122799999998,0.0011232834,-0.001061452,-0.0029562544000000003,5.258,0,0
-0.009073046000000001,-0.0017465942799999997,0.0013890974,-0.000912632,-0.0020076786000000004,5.259,0,0
-0.008315614,-0.0009718308799999998,0.0011447132,9.032099999999999e-05,-0.0003150626000000001,5.26,0,0
-0.005028584000000001,-0.00018823668000000004,0.00043451319999999994,0.001444975,0.0016629774,5.261,0,0
-0.002094022,-5.181667999999988e-05,0.00020760619999999995,0.001362001,0.0021211778000000004,5.262,0,0
0.00043039800000000024,-0.0010953964,-0.00024132820000000003,0.0011420192,0.002203726,5.263,0,0
0.004628916,-0.0036252424000000004,-0.0012257782000000001,0.0019036292,0.0033091982000000002,5.264,0,0
0.008397602,-0.006509123800000001,-0.001606802,0.0023729002,0.0042513142,5.265,0,0
0.0095412,-0.008361044,-0.0013670486,0.0018979582,0.0041126102,5.266,0,0
0.009862934,-0.008914718,-0.0012725112000000001,0.0016977182000000003,0.003946458200000001,5.267,0,0
0.009312534,-0.008417076,-0.0011227180000000002,0.0015010634000000003,0.003097472,5.268,0,0
0.005696410000000001,-0.005885491999999999,-0.0006972996,0.00019693340000000008,0.0002194800000000002,5.269,0,0
0.0008496620000000002,-0.0016306259999999998,-0.0003455908,-0.0016836766000000003,-0.00265299,5.27,0,0
-0.002689932,0.0015902600000000002,8.273979999999997e-05,-0.0034752686000000003,-0.004947046,5.271,0,0
-0.006410426,0.0029966000000000003,0.0006029884,-0.004629176600000001,-0.0068454480000000005,5.272,0,0
-0.009845618,0.0033535614000000003,0.0012424352000000001,-0.0049160440000000005,-0.007416516000000001,5.273,0,0
-0.010284408,0.0028320574000000004,0.0016527827999999998,-0.0039460834,-0.005904544,5.274,0,0
-0.009613388,0.001363999,0.001779966,-0.0022234514000000006,-0.003869598,5.275,0,0
-0.009226907999999999,0.00023151540000000004,0.0018885000000000002,-0.000866777,-0.0025889280000000003,5.276,0,0
-0.006564960000000001,0.00020744340000000003,0.0015741452000000002,0.0004417490000000001,-0.00020509199999999993,5.277,0,0
-0.0025819600000000003,0.0006246240000000001,0.0009390088,0.001506027,0.002131758,5.278,0,0
0.0002260239999999998,0.0011945179999999999,0.0003633588000000001,0.0016651624000000001,0.0025368252000000004,5.279,0,0
0.003565072,0.0018019584000000001,-0.0005331772,0.0017724944,0.0026511612000000005,5.28,0,0
0.007631838,0.002341938,-0.0015698632,0.002439538,0.0035666932000000006,5.281,0,0
0.00970579,0.002390222,-0.0021711484,0.0022458166000000005,0.0029234411999999998,5.282,0,0
0.010273858,0.0027977880000000003,-0.0026242979999999997,0.0015965258000000002,0.0016404332000000002,5.283,0,0
0.010759568,0.004152538,-0.0025591086,0.0012878230000000002,0.0019116180000000001,5.284,0,0
0.009593182,0.005390982,-0.0016797466,0.000538157,0.0013975462,5.285,0,0
0.006032506,0.005748354,-0.0007184925999999999,-0.0004140610000000001,4.246200000000027e-06,5.286,0,0
0.0021368839999999995,0.005004053999999999,5.4883399999999956e-05,-0.0011472556,-0.00047086160000000003,5.287,0,0
-0.0014860900000000005,0.0028397979999999997,0.0009716974,-0.0019224368,-0.0005471956000000001,5.288,0,0
-0.005791130000000001,-0.0007178980000000002,0.0015215760000000002,-0.003099562,-0.0011458716000000001,5.289,0,0
-0.009675824,-0.0050149700000000005,0.0011723466,-0.003676326,-0.0011337608000000002,5.29,0,0
-0.010845686,-0.008513522,0.0007139532,-0.0033454708,0.0001257872000000001,5.291,0,0
-0.010433508000000001,-0.008893356,0.0003919612,-0.0027392024,0.0012229390000000001,5.292,0,0
-0.009757712000000002,-0.006906292000000001,-0.00036929080000000015,-0.0014467624,0.0020199970000000004,5.293,0,0
-0.006658406,-0.004604784000000001,-0.0010553988,0.0009063296000000002,0.0035720950000000004,5.294,0,0
-0.0022847960000000004,-0.0018610959999999996,-0.0010414866,0.0030264176,0.00498054,5.295,0,0
0.0006628739999999996,0.0007696040000000001,-0.0012286652000000002,0.0040110244,0.005271016,5.296,0,0
0.003759296,0.0014249536,-0.0015456532000000002,0.004927,0.005762318,5.297,0,0
0.007363165999999999,0.00033022560000000017,-0.0013795932000000002,0.005342194000000001,0.006193004,5.298,0,0
0.008602118,-0.0005806504,-0.0013276252,0.004331793400000001,0.0048185834000000006,5.299,0,0
0.008700244,-0.0007762118000000001,-0.0013102282000000002,0.0031018022000000004,0.0030315174,5.3,0,0
0.00915312,-0.0009157468000000001,-0.0009900636,0.0021827118,0.0016615293999999998,5.301,0,0
0.0072795410000000005,-0.0013527264,-0.00010418159999999994,0.0006667178000000001,-0.0010643166000000003,5.302,0,0
0.003797013,-0.0022725664000000003,0.0020084284,-0.0004856626,-0.0034647406,5.303,0,0
0.0012882070000000004,-0.0041888064,0.0056473904000000005,-0.0005278494000000001,-0.003738918,5.304,0,0
-0.001480247,-0.006573533000000001,0.0093909886,-0.0010711542,-0.0041635000000000005,5.305,0,0
-0.005374915,-0.008997878,0.011993940000000002,-0.0017963357999999999,-0.00505377,5.306,0,0
-0.0076844140000000005,-0.010810422,0.011956472000000001,-0.0015486398000000001,-0.0038767604000000005,5.307,0,0
-0.00793978,-0.010324654,0.0062147,-0.0011921333999999999,-0.0020275564,5.308,0,0
-0.008646458,-0.005843294000000001,-0.0025461800000000008,-0.0012178366,-0.0016330247999999997,5.309,0,0
-0.008530614,0.0010632660000000006,-0.009047300000000001,-0.0007605751999999998,-0.0004893347999999999,5.31,0,0
-0.005536448,0.006654146,-0.013414636,0.00036831680000000004,0.0013910972,5.311,0,0
-0.0020365440000000004,0.011046986,-0.014754262,0.0008766506000000001,0.0018843976,5.312,0,0
0.0006798960000000004,0.014663540000000001,-0.010487482,0.0009841266,0.0018437216,5.313,0,0
0.004550322000000001,0.0153428,-0.0040673440000000005,0.0013984552000000001,0.002448766,5.314,0,0
0.008291716000000001,0.01290258,0.00028846199999999996,0.0012364368,0.00209216,5.315,0,0
0.009035942,0.010565602,0.0031398019999999997,0.0005165268000000001,0.00013125400000000014,5.316,0,0
0.008547552,0.008802922000000001,0.0043475480000000006,0.00016387099999999998,-0.0014171740000000002,5.317,0,0
0.007768482000000001,0.0062200398,0.0037534967999999997,-0.00042850099999999997,-0.002668564,5.318,0,0
0.004533812000000001,0.0034089197999999997,0.0029004054,-0.0015980470000000002,-0.0048091440000000004,5.319,0,0
0.0003785940000000001,0.0009865178,0.0017648614000000003,-0.0019386560000000004,-0.0063606700000000006,5.32,0,0
-0.002067902,0.0005082118,-0.0004705766000000001,-0.0019043080000000002,-0.006146784000000001,5.321,0,0
-0.004651604,0.0018646997999999999,-0.0025298086000000003,-0.002123378,-0.005824074,5.322,0,0
-0.00766086,0.00308684,-0.0028251074000000004,-0.0016062500000000003,-0.005251126,5.323,0,0
-0.008020026,0.003677536,-0.002631848,-0.0005990980000000001,-0.0031520559999999994,5.324,0,0
-0.006806300000000001,0.003428002,-0.0021789,-0.0001924590000000001,-0.0008855660000000003,5.325,0,0
-0.006150252,0.00216601,0.0003350380000000004,-0.000146011,0.00065869,5.326,0,0
-0.0045171962,-0.0013684600000000002,0.003908396000000001,0.00011578880000000003,0.0020488660000000003,5.327,0,0
-0.0016787722000000003,-0.0066465380000000004,0.006587286,-0.0001606592,0.003145792,5.328,0,0
7.856780000000015e-05,-0.010121374,0.008285540000000001,-0.0003755285999999999,0.003323696,5.329,0,0
0.0017134758000000002,-0.011232528000000002,0.0072962498,0.0002453904000000001,0.0033231099999999998,5.33,0,0
0.0048200318,-0.011520352000000003,0.0031259457999999996,0.0008317104000000002,0.0035875319999999996,5.331,0,0
0.007191404,-0.009906103999999999,-0.0011446402000000007,0.0011529566,0.003701338,5.332,0,0
0.008075596,-0.0058896972,-0.0047130062000000006,0.0012729926000000001,0.0034424620000000003,5.333,0,0
0.008888328000000001,-0.0028850589999999997,-0.0076922582000000005,0.0010016232000000002,0.0031863280000000004,5.334,0,0
0.008404516,-0.001059143,-0.008020872,4.053120000000008e-05,0.0025280616,5.335,0,0
0.005191020000000001,0.00042792300000000003,-0.004976723999999999,-0.0008613948000000001,0.0006074375999999995,5.336,0,0
0.0021119880000000004,0.00013588499999999998,-0.0015333440000000005,-0.0014231328000000002,-0.0015477164000000003,5.337,0,0
-0.0001717899999999998,-0.0013706918000000001,0.000730074,-0.0019939128,-0.0035612964000000004,5.338,0,0
-0.004020546,-0.0036183100000000004,0.002363602,-0.002409334,-0.005545168400000001,5.339,0,0
-0.007668690000000001,-0.005684440000000001,0.0029967154,-0.002631142,-0.006381108000000001,5.34,0,0
-0.008905984,-0.0059363016,0.0026309296000000004,-0.0022249659999999997,-0.0050542876,5.341,0,0
-0.009698964000000001,-0.0032426296,0.0018774616,-0.0019213764000000002,-0.0032196676000000005,5.342,0,0
-0.010306088000000001,0.0013994404000000002,0.0014438016,-0.0015044582000000003,-0.0015360962000000003,5.343,0,0
-0.007498814,0.0055854804000000004,0.0005077196000000001,-6.49162e-05,0.0012566778000000002,5.344,0,0
-0.0029530520000000003,0.0084769964,-0.0006591058,0.0015415098000000002,0.0036321918000000006,5.345,0,0
0.0006055059999999996,0.009551968000000001,-0.00184185,0.0025490158000000002,0.004573951400000001,5.346,0,0
0.004825358,0.008465544,-0.003163866,0.0034273082000000005,0.0057121614000000005,5.347,0,0
0.009306424,0.006972936000000001,-0.0036224180000000005,0.0038901620000000004,0.007063758000000001,5.348,0,0
0.011298309999999999,0.006798442000000001,-0.002015508,0.0030893718000000003,0.006285306000000001,5.349,0,0
0.011329374,0.00722852,0.0020599580000000006,0.0019940562,0.004299330000000001,5.35,0,0
0.01113869,0.006799544000000001,0.0062532,0.0006174522,0.002636332,5.351,0,0
0.008886632,0.0033175479999999996,0.011845164000000002,-0.0010737758000000002,-0.00021555599999999978,5.352,0,0
0.004384272,-0.003385444000000001,0.013312946000000003,-0.0022034178000000003,-0.0034136360000000003,5.353,0,0
0.00039460800000000007,-0.00988903,0.004767042000000002,-0.0026553576000000003,-0.005057618000000001,5.354,0,0
-0.003391138,-0.015471160000000001,-0.0039220980000000015,-0.0026212016000000003,-0.005777058000000001,5.355,0,0
-0.008016762,-0.0194992,-0.008282028000000002,-0.0023496776000000007,-0.005878604000000001,5.356,0,0
-0.010931224000000002,-0.016178804,-0.013500812000000003,-0.0015930148,-0.0045708092,5.357,0,0
-0.010891230000000002,-0.006123984000000002,-0.014134704000000001,-0.0007458798000000001,-0.0024659651999999997,5.358,0,0
-0.010694398,0.002828636,-0.005179668,-0.00043244840000000007,-0.0009521632000000001,5.359,0,0
-0.009587726,0.008390892,0.001785024,-3.086279999999999e-05,0.0005881568000000001,5.36,0,0
-0.0051298839999999995,0.010802958,0.00357689,0.0010319132,0.0026113828,5.361,0,0
-0.00035806399999999995,0.008962018000000002,0.004537274,0.0016819204,0.00375725,5.362,0,0
0.0030521240000000002,0.003807074,0.0033613280000000002,0.0018530334000000002,0.004114368,5.363,0,0
0.007448476,-0.0011430919999999998,0.0013872936000000002,0.0024904040000000003,0.005067232,5.364,0,0
0.011528684,-0.0032251540000000005,2.433220000000005e-05,0.0028070720000000007,0.005790398,5.365,0,0
0.011801482000000002,-0.0017254559999999998,-0.0005138388,0.0021302204000000005,0.004584931,5.366,0,0
0.009980798,0.002959728,-0.0009779288000000001,0.0012506504000000002,0.003074147,5.367,0,0
0.0076602020000000005,0.006730792000000001,-0.0010725008,0.0004207324000000001,0.0015788670000000003,5.368,0,0
0.002854448000000001,0.00759205,-0.0008885046,-0.0010183355999999998,-0.001559825,5.369,0,0
-0.002428392,0.008278626999999998,-0.0008509352,-0.0018934696,-0.004315085,5.37,0,0
-0.005519172000000001,0.008039247,-0.0002134522000000001,-0.0016084060000000002,-0.004955800000000001,5.371,0,0
-0.008036648,0.0048628690000000006,0.0009931698,-0.0011676954,-0.005043224,5.372,0,0
-0.010398434,0.0020967909999999998,0.0020770718,-0.0006035358,-0.00483774,5.373,0,0
-0.01062326,0.001296247,0.00250901,0.00012107240000000006,-0.0030297380000000006,5.374,0,0
-0.009788854000000001,-0.0004845159999999997,0.003104248,0.0006342044,-0.0012613379999999999,5.375,0,0
-0.00937278,-0.002500884,0.0034148239999999995,0.0006777984000000001,-0.0006677138,5.376,0,0
-0.007084742400000001,-0.0042616039999999996,0.0025792308,0.0009270018,0.0005348222,5.377,0,0
-0.0028272203999999993,-0.006061838,0.0015654027999999999,0.0011953842000000001,0.0018414962000000003,5.378,0,0
0.0006737416000000003,-0.006257242,0.0005001887999999998,0.0008962480000000001,0.0017879842,5.379,0,0
0.003917525600000001,-0.00527148,-0.0008954132000000001,0.0006561260000000001,0.0016136931199999998,5.38,0,0
0.007892071600000002,-0.004012876,-0.0018357602000000002,0.00065572,0.00214331692,5.381,0,0
0.010268994,-0.002975588,-0.0016695430000000001,0.00023383140000000002,0.0017405929200000002,5.382,0,0
0.010357808000000001,-0.0019968048,-0.0010426250000000001,-0.0003655766,0.00016890692000000004,5.383,0,0
0.010355284,-0.0008431908000000002,-0.0005080538000000002,-0.00018524860000000004,-0.0007969970799999998,5.384,0,0
0.009374862,9.062720000000004e-05,0.00028453020000000003,-0.0002660608000000001,-0.0015712159999999998,5.385,0,0
0.0055502220000000005,0.00045778658,0.0010961232000000001,-0.0010257808,-0.002986374,5.386,0,0
0.0013773280000000004,0.0006425937799999999,0.0015617572000000003,-0.0015234802,-0.0037348160000000006,5.387,0,0
-0.001809336,0.0006628817799999998,0.0010645372,-0.0016656062,-0.0033372260000000004,5.388,0,0
-0.005791754,-6.861221999999995e-05,4.057599999999985e-05,-0.0019269202,-0.002702116,5.389,0,0
-0.009462242000000001,-0.0007614362200000001,-0.0005290100000000002,-0.002220146,-0.0020013834,5.39,0,0
-0.010250494,-0.0009688216,-0.0011121366,-0.0016261140000000001,-0.0006624354000000003,5.391,0,0
-0.009834136,-0.0010608050000000002,-0.0016909226000000003,-0.00047317599999999985,0.0005083626,5.392,0,0
-0.00955065,-0.0009711132000000001,-0.0013393496000000003,0.0004300940000000001,0.0013570886,5.393,0,0
-0.0069033820000000004,-0.0006048672,-0.00016402000000000007,0.00144369,0.0029873666,5.394,0,0
-0.00277668,-0.00036230720000000004,0.00042482829999999997,0.002158794,0.004218968,5.395,0,0
0.00024221599999999996,-0.00048635720000000005,9.76989e-05,0.0017400974,0.004094846,5.396,0,0
0.0037920919999999995,-0.000824547,-0.0007497731,0.0013065382000000002,0.0042311960000000004,5.397,0,0
0.008322934,-0.0014130879999999998,-0.0016665860999999999,0.0009995186000000002,0.0046459940000000005,5.398,0,0
0.010673586,-0.00241074,-0.0022574037,0.0003380506,0.003575488,5.399,0,0
0.011058976,-0.003223666,-0.00278049,0.00037061860000000006,0.0025670574,5.4,0,0
0.011672620000000002,-0.0030477208,-0.003148342,0.0012267472000000003,0.0023283274,5.401,0,0
0.010160648000000001,-0.0025230206,-0.002815876,0.0014658204000000002,0.0006651833999999999,5.402,0,0
0.005560008,-0.0019736476000000005,-0.0025155540000000006,0.0010413940000000002,-0.0014250346000000001,5.403,0,0
0.0016058339999999998,-0.0002874475999999999,-0.0024154800000000002,0.000735648,-0.0026025286,5.404,0,0
-0.001634892,0.0020110544,-0.0013985080000000001,-0.000288376,-0.004099776,5.405,0,0
-0.0064446799999999995,0.0029506512000000004,-0.00052107,-0.00185863,-0.005761422,5.406,0,0
-0.010114028,0.0037933430000000002,-2.564160000000001e-05,-0.002766958,-0.00594384,5.407,0,0
-0.010309944000000001,0.005617660000000001,0.0010034504,-0.0026305816,-0.0047152084,5.408,0,0
-0.010235134,0.0059451600000000005,0.0027093984,-0.0020355738,-0.0035059324,5.409,0,0
-0.009886754000000001,0.0044756940000000005,0.004359450400000001,-0.0012405197999999999,-0.0017905584,5.41,0,0
-0.006350956000000001,0.003380454,0.004898262400000001,-9.401379999999989e-05,0.0009975116,5.411,0,0
-0.0021703720000000003,0.00277192,0.004294418,0.0007834222,0.0027145176,5.412,0,0
0.000495774,0.0014318199999999999,0.002888948,0.0013407598000000002,0.00327032,5.413,0,0
0.004104698,0.00039216800000000003,0.0005701,0.00167674,0.004587356000000001,5.414,0,0
0.007899352,0.0004921170000000001,-0.00239521,0.0016147032,0.0052609300000000005,5.415,0,0
0.008982284,0.00025631100000000006,-0.0038207479999999997,0.0012062358000000002,0.004087854000000001,5.416,0,0
0.009347446,-0.0006366109999999999,-0.0038948119999999997,0.0008175050000000001,0.0034300468000000002,5.417,0,0
0.009347982,-0.0012758112,-0.003423038,0.00018217900000000003,0.0027057832000000003,5.418,0,0
0.006311602000000001,-0.0015049772000000003,-0.0020041119999999997,-0.001185445,8.431319999999977e-05,5.419,0,0
0.0018650519999999994,-0.0013899738000000001,-0.0005967479999999998,-0.0019738562000000005,-0.0021065128000000003,5.42,0,0
-0.0015605080000000004,-0.0010206468,0.000609584,-0.001871779,-0.0028145768000000003,5.421,0,0
-0.005266434,-0.0008931768,0.002070442,-0.0017320724,-0.0036093996000000008,5.422,0,0
-0.00879768,-0.0013202986000000001,0.003381514,-0.0014541264,-0.004348234,5.423,0,0
-0.009411512,-0.0023419586,0.003656434,-0.0006292226000000001,-0.003583142,5.424,0,0
-0.008083930000000001,-0.0044020050000000005,0.003848804,0.00016770660000000004,-0.0024739124,5.425,0,0
-0.00662012,-0.006409692000000001,0.005376998000000001,0.00024581160000000006,-0.002116795,5.426,0,0
-0.0039208540000000005,-0.0068975500000000006,0.0075884820000000006,0.0005610578000000001,-0.000808813,5.427,0,0
7.209199999999995e-05,-0.005974460000000001,0.009089328,0.0013373818,0.001067229,5.428,0,0
0.0029634120000000003,-0.003307476000000001,0.009687146,0.0019894279999999997,0.0019045490000000002,5.429,0,0
0.004694382,0.00048011000000000017,0.006931684000000002,0.0023785748,0.0025778754,5.43,0,0
0.006981102000000001,0.00534435,-0.00040869600000000006,0.0025097844000000003,0.0036524420000000005,5.431,0,0
0.008731736,0.009655758,-0.007419156000000001,0.0020436665999999997,0.0032911850000000003,5.432,0,0
0.008913112,0.01047631,-0.01160249,0.0010289442,0.002052375,5.433,0,0
0.008746416,0.008831138000000002,-0.014069080000000001,0.00022761220000000002,0.001831675,5.434,0,0
0.008074318,0.007567458000000001,-0.012534896000000002,-0.0004281046,0.0008042969999999999,5.435,0,0
0.005368852,0.007297138000000001,-0.006854369999999999,-0.001090467,-0.0014111990000000001,5.436,0,0
0.0016411580000000002,0.006616638,-0.0027176620000000005,-0.0015434671999999998,-0.0028012320000000003,5.437,0,0
-0.0014515060000000002,0.007067838000000001,-0.0009483280000000002,-0.0017698328,-0.00361253,5.438,0,0
-0.0055210580000000006,0.007973336000000001,0.0002368441999999999,-0.0020166288,-0.005050378,5.439,0,0
-0.009939922,0.005499152,0.0006160178,-0.0018418476,-0.005512912,5.44,0,0
-0.011911336000000002,-0.0005391479999999997,0.00012033399999999998,-0.0009132016000000002,-0.003979948,5.441,0,0
-0.012628922,-0.009338688000000001,-0.0002920228,-0.00018525560000000007,-0.00222819,5.442,0,0
-0.013217122000000001,-0.017944268,-0.0001059264,0.0003897973999999999,-0.00042495999999999994,5.443,0,0
-0.010791274,-0.020311469999999998,0.00013474540000000003,0.0012965054,0.002060242,5.444,0,0
-0.005594404,-0.015893992,0.0016942378,0.001707855,0.0046746240000000005,5.445,0,0
-0.0011741419999999998,-0.008996951999999999,0.0039812956,0.0016931850000000003,0.006175452,5.446,0,0
0.0033765780000000003,0.00019690800000000171,0.0058895364,0.0021976210000000003,0.007191594,5.447,0,0
0.00840808,0.00895236,0.006067574,0.002314024,0.00778802,5.448,0,0
0.011484092000000001,0.0106096052,0.005528959999999999,0.0015122339999999999,0.006744702,5.449,0,0
0.012173982000000002,0.007321415200000001,0.0038020519999999998,0.0009292544,0.004474248,5.45,0,0
0.012194768000000002,0.0033567952,-0.0016693480000000002,0.0003720769999999999,0.002242852,5.451,0,0
0.010398480000000002,-0.0009210548000000003,-0.00609188,-0.000953497,-0.00045872199999999995,5.452,0,0
0.006476772,-0.0035460188000000004,-0.006050684,-0.0016756350000000002,-0.0032561940000000004,5.453,0,0
0.0026669299999999996,-0.004200128000000001,-0.00509397,-0.001575413,-0.0040955620000000005,5.454,0,0
-0.0007371499999999996,-0.003968584,-0.004286478,-0.0018049054,-0.0042171280000000005,5.455,0,0
-0.004755838,-0.0030613140000000003,-0.0008924702000000001,-0.001919072,-0.004582510000000001,5.456,0,0
-0.00778563,-0.0016434640000000003,0.0017367498,-0.0016637680000000001,-0.004153390000000001,5.457,0,0
-0.0075883800000000005,-0.00041481199999999997,0.0016449018,-0.0008778880000000001,-0.00247557,5.458,0,0
-0.00710135,-7.420399999999997e-05,0.0008366480000000001,-0.0006113290000000001,-0.0021475956,5.459,0,0
-0.005099892,-0.0003489939999999998,-0.000689988,-9.705460000000004e-05,-0.0008020236000000001,5.46,0,0
-0.001780202,-0.00119701,-0.0027645758000000003,0.00034403039999999997,0.0006124464,5.461,0,0
0.003592718,-0.00194491,-0.0046537418,-0.0016249915999999999,-0.0035088596000000002,5.462,0,0
0.00577357,-0.002571274,-0.0036617397999999996,-0.0035845476,-0.008172399600000001,5.463,0,0
-0.003213398,-0.0020583280000000003,0.0003858780000000005,-0.0039285366,-0.01077046,5.464,0,0
-0.015265976,1.5771999999999835e-05,0.007175358000000001,-0.004934671,-0.014514764,5.465,0,0
-0.024748326,0.00101265,0.015136678,-0.005353718,-0.015337392000000002,5.466,0,0
-0.032668946,-0.00015810200000000003,0.020113024,-0.0024638940000000003,-0.008470051999999999,5.467,0,0
-0.033969778,-0.0026522380000000003,0.020994500000000003,-2.9038000000000002e-05,-0.000942352,5.468,0,0
-0.020597038,-0.004855376,0.01403952,0.0015933680000000004,0.005951248,5.469,0,0
-0.00023951799999999933,-0.0058670886000000005,-0.0005203400000000011,0.004394858,0.014035268,5.47,0,0
0.019202282,-0.0038777605999999994,-0.012282720000000002,0.006223174,0.018470300000000002,5.471,0,0
0.035335002,0.0014615114000000001,-0.018743340000000004,0.007128278000000001,0.01978916,5.472,0,0
0.04617038,0.0080899114,-0.0232961,0.007833976,0.02001674,5.473,0,0
0.05186312,0.012988531400000001,-0.020833714,0.007353892,0.018249940000000003,5.474,0,0
0.04842294,0.014194034000000001,-0.012031223400000002,0.004821298,0.012704924,5.475,0,0
0.038832144,0.012973514,-0.0059717334,0.001760936,0.005732204000000001,5.476,0,0
0.025408924,0.010097012,-0.0022466654000000003,-0.0012880880000000004,-0.001130496,5.477,0,0
0.007677124000000002,0.0065159039999999994,0.0012618806,-0.004791944000000001,-0.009147516000000001,5.478,0,0
-0.011507296,0.003922256,0.0028194485999999998,-0.007701272000000001,-0.016180836,5.479,0,0
-0.027235856000000003,0.002428069,0.0037826279999999997,-0.008856964,-0.01901368,5.48,0,0
-0.038833280000000005,-6.779699999999987e-05,0.00505876,-0.008489710000000001,-0.0188737,5.481,0,0
-0.046637540000000005,-0.0025946610000000003,0.0061476379999999995,-0.007476352,-0.01742022,5.482,0,0
-0.046507820000000005,-0.0034490330000000007,0.006466008,-0.0054937912000000005,-0.012819371,5.483,0,0
-0.039218340000000004,-0.004614881000000001,0.00721097,-0.0026698432000000004,-0.006534819,5.484,0,0
-0.028693692000000003,-0.0063802600000000004,0.008517799999999999,0.0003881468000000001,-0.0006322390000000015,5.485,0,0
-0.014641652000000002,-0.007251114000000001,0.009101038,0.0029026468000000003,0.005998081,5.486,0,0
0.002935667999999998,-0.0072103259999999995,0.009281062,0.004783694800000001,0.012591281,5.487,0,0
0.018301647999999997,-0.007517358,0.00879928,0.006067146000000001,0.016555032,5.488,0,0
0.029619808000000004,-0.007750398,0.007451348,0.006426282,0.01807972,5.489,0,0
0.03867144,-0.0058876831999999995,0.004604828000000001,0.0061982420000000005,0.01788466,5.49,0,0
0.042231000000000005,-0.0020218152000000002,0.0002449479999999996,0.005184602,0.01461247,5.491,0,0
0.038251020000000004,0.0014273027999999997,-0.005281682,0.0034315500000000002,0.008917204,5.492,0,0
0.029979256000000003,0.0034185688000000006,-0.010599976,0.0012842759999999996,0.0026945640000000004,5.493,0,0
0.018242236000000002,0.004738121200000001,-0.012722254,-0.0010850100000000002,-0.0037976760000000007,5.494,0,0
0.0011042959999999994,0.004824851400000001,-0.0123107096,-0.003585696,-0.010021436000000002,5.495,0,0
-0.017940684000000002,0.0026700374000000002,-0.010367809600000001,-0.005084106,-0.014046366000000001,5.496,0,0
-0.033901964,-0.0007921426000000001,-0.0049245136,-0.005604938,-0.01584692,5.497,0,0
-0.04531942,-0.0035175806,0.0043260664,-0.006046498000000001,-0.0162939,5.498,0,0
-0.050273960000000006,-0.004736345,0.0111824804,-0.004770941480000001,-0.014343390000000001,5.499,0,0
-0.04597439999999999,-0.005113576000000001,0.011592698,-0.0017852874800000005,-0.009917414000000003,5.5,0,0
-0.033671408,-0.004069420000000001,0.01015747,0.0011079525199999996,-0.004698709999999999,5.501,0,0
-0.017871488000000005,-0.0014600919999999996,0.006264293999999998,0.00404316652,0.0006949500000000008,5.502,0,0
-0.000594408000000002,0.0013565960000000003,-0.0038536060000000003,0.00771767052,0.0066605300000000004,5.503,0,0
0.015966232,0.00419052,-0.013129585999999999,0.010243016,0.0114742,5.504,0,0
0.027953452000000004,0.006466002,-0.015123224000000001,0.01119332,0.013610824,5.505,0,0
0.03564492,0.00765471,-0.01427097,0.01248456,0.014366420000000001,5.506,0,0
0.04008176,0.0079995,-0.011471698000000002,0.013515820000000001,0.01410298,5.507,0,0
0.03872534,0.00728415,-0.004334892000000001,0.01309416,0.011224597999999999,5.508,0,0
0.031879256,0.00674781,0.0023897879999999995,0.011436688,0.006683392,5.509,0,0
0.023234228000000003,0.006154115999999999,0.006115584,0.00897504518,0.0022494060000000002,5.51,0,0
0.012007568000000001,0.003268312,0.008147814000000001,0.004864067180000001,-0.0027423540000000002,5.511,0,0
-0.0021454720000000007,-0.0006969460000000004,0.007700561999999999,-0.0006683728200000002,-0.007344074000000001,5.512,0,0
-0.013513372000000001,-0.0038389600000000006,0.005377257999999999,-0.00605677282,-0.009717572,5.513,0,0
-0.020603548,-0.008167796,0.0022155580000000003,-0.01110910082,-0.010311658000000001,5.514,0,0
-0.025641240000000003,-0.013500186,-0.0014963519999999998,-0.015536598,-0.009852698,5.515,0,0
-0.026348720000000003,-0.015621560000000001,-0.00463565,-0.017835860000000002,-0.007456281800000001,5.516,0,0
-0.020884870000000003,-0.014850142,-0.006046028000000001,-0.0176644,-0.0032681518000000007,5.517,0,0
-0.012611350000000002,-0.012236422,-0.005976600000000001,-0.015390924000000002,0.0008311282000000001,5.518,0,0
-0.002911730000000002,-0.006697522000000001,-0.00532869548,-0.010911614000000002,0.0044247902000000006,5.519,0,0
0.00905309,-0.000253002,-0.00391764948,-0.005425958,0.008193656200000001,5.52,0,0
0.02012341,0.003705786,-0.0024839774800000007,-0.0006047659999999994,0.010611160000000001,5.521,0,0
0.027593439999999997,0.0028154880000000005,-0.0019643174800000004,0.002952868,0.010375264,5.522,0,0
0.03199096,-0.003671052,-0.0015689986800000002,0.0052140960000000005,0.009429018,5.523,0,0
0.03329432,-0.012252092,-0.0010499232000000004,0.005734072000000001,0.007753681800000001,5.524,0,0
0.029392280000000003,-0.017876511999999997,-0.0007757648000000003,0.00471743,0.0036746518000000013,5.525,0,0
0.021361050000000003,-0.019152878,1.3135199999999908e-05,0.0029354940000000003,-0.0012886081999999997,5.526,0,0
0.011347969999999999,-0.011336978,0.0008542354000000001,0.001193814,-0.0056050822,5.527,0,0
-0.0014876099999999995,0.007891962,0.0014786426,0.0004882340000000001,-0.0099178962,5.528,0,0
-0.014606010000000003,0.031237502,0.0035804426,0.000990158,-0.013155870000000002,5.529,0,0
-0.023873170000000006,0.050837002000000006,0.009176468200000001,0.002459352,-0.013742060000000002,5.53,0,0
-0.030314880000000002,0.06053744,0.0162876582,0.004355784,-0.012788424000000003,5.531,0,0
-0.03520482,0.055247528,0.018957356,0.005527446,-0.011179814000000003,5.532,0,0
-0.0359593,0.038004227999999994,0.018225203800000003,0.0046749,-0.008409650000000001,5.533,0,0
-0.0341645,0.011219648,0.0180035238,0.0021312959999999995,-0.0052336048000000005,5.534,0,0
-0.03211258,-0.022321192,0.0159329238,-0.0012177180000000004,-0.0027733468,5.535,0,0
-0.025422429,-0.04165321200000001,0.0093223898,-0.005049386,-0.00036604680000000024,5.536,0,0
-0.012888688999999998,-0.03872434000000001,0.00026468979999999965,-0.007853302,0.0023427072,5.537,0,0
-0.000304768999999999,-0.027295920000000008,-0.008311134000000001,-0.009058496000000001,0.0043797012,5.538,0,0
0.009880011000000001,-0.010078180000000003,-0.016159094,-0.00953346,0.005425202,5.539,0,0
0.019384551,0.013896580000000002,-0.024311594000000002,-0.010153674,0.005858014,5.54,0,0
0.025208500000000002,0.030684980000000004,-0.0288218,-0.011517374,0.005050631999999999,5.541,0,0
0.02457364,0.031444520000000004,-0.023353568,-0.013358994,0.00248532,5.542,0,0
0.02111058,0.024075896000000003,-0.014132473999999999,-0.014988637999999999,6.903600000000008e-05,5.543,0,0
0.0165507794,0.011953476000000003,-0.009505618,-0.01617722,-0.001476074,5.544,0,0
0.0084788194,-0.004546364000000001,-0.006235018,-0.01672252,-0.00331147,5.545,0,0
-0.0011552005999999997,-0.020896644000000002,-0.0040425619999999995,-0.01518174,-0.004026634,5.546,0,0
-0.008440340599999999,-0.033026944,-0.003845856,-0.011749742,-0.0031101314,5.547,0,0
-0.014598480600000002,-0.039264120000000007,-0.00046745000000000033,-0.008327903400000001,-0.0027897534,5.548,0,0
-0.01909104,-0.0377362,0.006963254,-0.004597615400000001,-0.0028096954,5.549,0,0
-0.01931522,-0.029754626,0.012502794000000001,-0.00014864339999999965,-0.0014658554,5.55,0,0
-0.01807608,-0.02145016,0.016746038,0.0034976626000000005,-0.00010416940000000001,5.551,0,0
-0.01669684,-0.012924269799999999,0.024233039999999997,0.0059545306,0.0008342960000000001,5.552,0,0
-0.012387090000000002,-0.006022151800000001,0.02907592,0.008232492000000001,0.0028901640000000006,5.553,0,0
-0.006803214000000001,-0.005296491800000001,0.030306360000000004,0.010613804000000001,0.00532511,5.554,0,0
-0.003248990000000001,-0.0075482858,0.024985210000000004,0.014750272000000002,0.006959418000000001,5.555,0,0
-0.0002274059999999997,-0.0087871118,0.00800257,0.022182146,0.008460242,5.556,0,0
0.0027919520000000003,-0.009581716,-0.01074357,0.030436880000000003,0.010384202,5.557,0,0
0.0029712220000000004,-0.008773204,-0.023007210000000004,0.0367081,0.010632446000000002,5.558,0,0
0.0011493440000000005,-0.0007101239999999995,-0.028963616000000005,0.04004176,0.008825058000000002,5.559,0,0
0.0005011520000000002,0.010936196,-0.022397706,0.03939506000000001,0.007188694,5.56,0,0
0.0004696880000000001,0.017925056,0.00025161400000000243,0.0342768,0.00468395,5.561,0,0
-1.5389999999999946e-05,0.02226051,0.020658914,0.026858840000000002,0.0005413159999999996,5.562,0,0
0.0007541420000000002,0.02402144,0.026228134,0.020246040000000003,-0.0021652060000000002,5.563,0,0
0.0030025900000000003,0.019209992000000002,0.01815712,0.015889320000000002,-0.0032181680000000004,5.564,0,0
0.004807424,0.011787766,0.0027957600000000013,0.013232520000000001,-0.004782552000000001,5.565,0,0
0.007117604000000001,0.0076352170000000006,-0.01203796,0.010177968,-0.005169026,5.566,0,0
0.011625344000000003,0.005826240999999999,-0.023756060000000002,0.005293447999999999,-0.003524394,5.567,0,0
0.015661972,0.005365801,-0.026681106,-0.002635812,-0.0023411840000000005,5.568,0,0
0.017827106000000002,0.006223585,-0.020996558,-0.014135572,-0.0013951988000000001,5.569,0,0
0.020077320000000003,0.008503211,-0.012618914,-0.027643092,0.0006054032000000001,5.57,0,0
0.02139544,0.01264906,-0.005515792,-0.0409655,0.0015217472,5.571,0,0
0.019506680000000002,0.013253656000000003,-0.00109974,-0.05123452,0.00041634720000000014,5.572,0,0
0.016338191999999998,0.007007696000000001,0.0008393559999999999,-0.0530602,-0.0002936887999999999,5.573,0,0
0.013716220000000001,-0.0010687600000000002,0.002437038,-0.044964352,-0.0003618347999999999,5.574,0,0
0.009275694000000001,-0.007556199999999999,0.004757770000000001,-0.031204212000000002,-0.0016039248,5.575,0,0
0.0034227439999999997,-0.014641620000000001,0.005177058,-0.013208032000000001,-0.0025749988,5.576,0,0
-0.0012102520000000002,-0.01972318,0.004575602,0.007042668000000001,-0.0020374528,5.577,0,0
-0.0062927040000000005,-0.01838574,0.0030767380000000003,0.022729608000000002,-0.0022049508,5.578,0,0
-0.012619252000000001,-0.012485774000000002,0.0003948379999999998,0.030409920000000003,-0.002860998,5.579,0,0
-0.017156846,-0.005361814,-0.0022233220000000007,0.03337036,-0.0023837942000000003,5.58,0,0
-0.020162456000000002,0.0006879459999999996,-0.004122804000000001,0.03283868,-0.0020079802000000004,5.581,0,0
-0.02341772,0.005673226,-0.004645302600000001,0.028456520000000003,-0.0023833022,5.582,0,0
-0.024725920000000002,0.009225586000000001,-0.0048408746,0.022756940000000003,-0.0015516981999999999,5.583,0,0
-0.023356920000000003,0.00928436,-0.004055830600000001,0.016705246000000003,0.0007988138,5.584,0,0
-0.021367300000000006,0.0028986000000000003,-0.0034953026000000002,0.008856746000000002,0.0027519,5.585,0,0
-0.017736262000000003,-0.00803572,-0.0035085926000000003,-0.0012204739999999992,0.0049093,5.586,0,0
-0.010611562000000001,-0.014306760000000002,-0.002252856,-0.013404734000000001,0.007985718000000001,5.587,0,0
-0.0026148620000000003,-0.012541600000000002,0.0004105299999999999,-0.027808074000000002,0.009489574,5.588,0,0
0.004661958000000001,-0.007545620000000003,0.0036686360000000003,-0.041877899999999996,0.008527882,5.589,0,0
0.012572078,0.0016966199999999994,0.005728852,-0.05305122,0.0065846588,5.59,0,0
0.017173400000000002,0.013442599999999999,0.0066436406,-0.0596116,0.0032837908,5.591,0,0
0.015909774,0.016566512000000002,0.005643478,-0.05864806,-0.0018197492,5.592,0,0
0.014944074000000002,0.013364130000000002,0.002631356,-0.049378639999999994,-0.0071060872,5.593,0,0
0.016427254000000002,0.01137747,0.00126458,-0.034256126,-0.0118327092,5.594,0,0
0.016497734,0.00761193,0.005518820000000001,-0.017184766000000004,-0.015872582,5.595,0,0
0.017765434,0.004730198,0.0122748334,-0.000995086000000001,-0.01797374,5.596,0,0
0.021645740000000004,0.00637401,0.018341862000000004,0.012264974,-0.01787354,5.597,0,0
0.02156664,0.008687708,0.023899784000000004,0.020799694,-0.0163553,5.598,0,0
0.015115664,0.009618328,0.0229998294,0.02670884,-0.013345483999999998,5.599,0,0
0.006686164000000001,0.00783522,0.013026209399999999,0.03281096,-0.008254934,5.6,0,0
