bandpass 1,bandpass 2,bandpass 3,bandpass 4,bandpass 5,time,onset,mark
0.00980976,0.006040972,-0.001728480000000001,0.00030374439999999997,0.00429587,3.98,1,1
0.013931200000000001,0.008706172,-0.013545300000000001,0.000224287,0.00595996,3.981,0,0
0.01742304,0.010392852000000001,-0.02086624,-8.933700000000007e-05,0.007171898,3.982,0,0
0.016641916,0.00966357,-0.03461604,-0.0008727650000000002,0.005770272,3.983,0,0
0.013358622,0.008404298,-0.033260571999999995,-0.0016007754000000002,0.0034599939999999997,3.984,0,0
0.009824102000000001,0.0063315360000000005,-0.021312137999999998,-0.0020182754,0.001305728,3.985,0,0
0.004331298000000001,0.0026146340000000002,-0.009186314000000001,-0.002597994,-0.001957996,3.986,0,0
-0.002357122,-0.0006872599999999999,-0.0016162820000000001,-0.003140926,-0.004755554,3.987,0,0
-0.007211258,-0.0025747600000000006,0.0027857100000000003,-0.0027044544000000004,-0.005163298,3.988,0,0
-0.010456864000000001,-0.004295488000000001,0.004395416000000001,-0.002277192,-0.005001188,3.989,0,0
-0.013310724000000003,-0.005399634,0.005046384000000001,-0.002106838,-0.005360782000000001,3.99,0,0
-0.0139356,-0.00536549,0.005790230000000001,-0.0010036180000000002,-0.004286030000000001,3.991,0,0
-0.011502098,-0.0041705940000000006,0.006512784000000001,0.000138034,-0.0025250834,3.992,0,0
-0.008660428,-0.002718416,0.009090512,0.00035349260000000005,-0.0019951594,3.993,0,0
-0.005656734000000002,-0.002297492,0.012759698,0.0008428482000000001,-0.0007376714,3.994,0,0
-0.001433224,-0.002366006,0.01297511,0.0015924642,0.0018586766,3.995,0,0
0.002388836,-0.00229832,0.0096616,0.0015777182,0.0035129606,3.996,0,0
0.0052370540000000005,-0.0024201540000000003,0.00699989,0.0013271156,0.004390174,3.997,0,0
0.008562364000000001,-0.00220892,0.001966691999999999,0.0009368973999999999,0.005490636000000001,3.998,0,0
0.01086579,-0.0011315780000000003,-0.005872808000000001,0.0001226914,0.005089238,3.999,0,0
0.01044546,0.00029495599999999986,-0.008218334,-0.0005816786000000001,0.0033062760000000004,4.0,0,0
0.009157208000000002,0.002034014,-0.004158218,-0.0007164286000000003,0.0019510360000000006,4.001,0,0
0.007265659000000001,0.00344441,-0.0002876340000000006,-0.0005534166000000002,0.000554508,4.002,0,0
0.0038277130000000004,0.0040268000000000005,0.0019597199999999994,-0.00017105300000000006,-0.0013826940000000003,4.003,0,0
-6.007700000000018e-05,0.004201786,0.004239636,0.000561555,-0.0027525940000000006,4.004,0,0
-0.002584879,0.0041827,0.00484341748,0.0008504362000000001,-0.0029245860000000003,4.005,0,0
-0.004295933,0.003975286000000001,0.00283854148,0.0006154282,-0.0027834230000000006,4.006,0,0
-0.0060633300000000005,0.003474612,2.6211479999999976e-05,0.00046974880000000003,-0.0027042510000000004,4.007,0,0
-0.006311952,0.0019154119999999998,-0.00179079052,0.000333825,-0.002116527,4.008,0,0
-0.005460254,-0.00026994400000000004,-0.0027180685200000002,5.495399999999988e-06,-0.0012641145999999998,4.009,0,0
-0.004933926,-0.0021081600000000004,-0.0038327920000000007,-0.000260082,-0.0008689846000000002,4.01,0,0
-0.003725879000000001,-0.0037834860000000004,-0.004948496,-0.00011696200000000002,-1.1389600000000092e-05,4.011,0,0
-0.0009333709999999999,-0.004880046000000001,-0.005081934,0.000158758,0.0017046164,4.012,0,0
0.001397917,-0.005110404000000001,-0.004426664,0.00046357019999999997,0.0029796064000000002,4.013,0,0
0.0030958690000000002,-0.0043737920000000005,-0.0034643220000000006,0.0009099798,0.0036903980000000005,4.014,0,0
0.005777807,-0.0033388200000000006,-0.0022195168000000006,0.0010410520000000002,0.004217898,4.015,0,0
0.007149890000000001,-0.002574742,-0.0006155008000000002,0.00043624600000000005,0.0033487456000000004,4.016,0,0
0.0060622172,-0.001311642,0.0011459072000000001,-0.000318358,0.0012384176,4.017,0,0
0.0049154912,3.620999999999995e-05,0.0029540772000000003,-0.00108683,-0.00015511240000000014,4.018,0,0
0.0035435294000000003,0.00040346979999999994,0.0052002972000000005,-0.002198522,-0.0015410504,4.019,0,0
0.00043572740000000004,0.0011140318,0.006968746000000001,-0.0023856120000000005,-0.0035296824000000003,4.02,0,0
-0.0020897926000000002,0.0033416978,0.007221352,-0.0014174180000000002,-0.004261702,4.021,0,0
-0.0029739498000000003,0.0058926278,0.006194183,-0.00047815200000000024,-0.0039415,4.022,0,0
-0.0039249218,0.0089223618,0.004349446999999999,0.0006082339999999998,-0.004034836,4.023,0,0
-0.0042912160000000005,0.013019294,0.0010584930000000002,0.001799922,-0.0032319969,4.024,0,0
-0.0032738180000000004,0.01586577,-0.002695363,0.002256486,-0.0012068208999999998,4.025,0,0
-0.0029166060000000004,0.015150764,-0.0051885230000000004,0.0017920294,-0.00010764690000000001,4.026,0,0
-0.003477076,0.01120718,-0.007230434000000001,0.0013790777999999999,0.0005476011,4.027,0,0
-0.0027735912000000002,0.00424216,-0.008710738,0.0011017498,0.0020823371,4.028,0,0
-0.0016676932000000003,-0.004589340000000001,-0.008196236,0.00048142979999999996,0.003013612,4.029,0,0
-0.0012137172,-0.01092632,-0.005363304,1.2327800000000021e-05,0.0026355386,4.03,0,0
0.0003163948000000001,-0.013710488,-0.0019843760000000004,-0.000155047,0.0028751526,4.031,0,0
0.0030110768,-0.013596342,0.0018774160000000002,-0.0004950234000000001,0.0033819426,4.032,0,0
0.00412267,-0.009075542000000002,0.006873642,-0.0014770054000000001,0.0022194046000000005,4.033,0,0
0.003888794,-0.0028079740000000013,0.010968434,-0.0019390134,0.0006344025999999999,4.034,0,0
0.004100168,1.428479999999988e-05,0.012744098,-0.0018069987999999998,0.00023172199999999996,4.035,0,0
0.0033590390000000007,-0.0009658912000000005,0.011464470000000001,-0.0013287353999999999,-0.0004346138000000001,4.036,0,0
0.000867275,-0.004000353200000001,0.006793218,-3.0669400000000015e-05,-0.0014151092,4.037,0,0
-0.0015709969999999998,-0.009692613200000002,0.001246578,0.0013271186000000002,-0.0009101911999999999,4.038,0,0
-0.002911055,-0.0158228412,-0.0023932670000000006,0.0024475746000000003,-0.00035587099999999995,4.039,0,0
-0.0044304389999999996,-0.018272760000000002,-0.005437319,0.002856358,-0.001031197,4.04,0,0
-0.005637778,-0.016679048,-0.005500820000000001,0.0024891298,-0.0013421932,4.041,0,0
-0.0049804440000000005,-0.012719042000000002,-0.0006513780000000006,0.0016820778000000002,-0.0008651858000000001,4.042,0,0
-0.003983438000000001,-0.006332737999999999,0.003613524,0.0008717318,-0.0013281222000000002,4.043,0,0
-0.003527774,0.0016170419999999997,0.0023088049999999997,0.0002623544,-0.0019932004000000002,4.044,0,0
-0.0019451260000000001,0.008342742,-0.0009171630000000008,-5.662919999999999e-05,-0.001111075,4.045,0,0
-0.00019684999999999982,0.01339911,-0.0033572,-0.00037049300000000006,-0.0005412365999999998,4.046,0,0
0.00023553300000000004,0.016819504,-0.008426822,-0.001005799,-0.0009553448,4.047,0,0
0.001020759,0.015832218000000002,-0.010867398,-0.0007930840000000001,-0.0003909203999999999,4.048,0,0
0.0021751410000000002,0.010006178000000001,-0.010047774,-0.0006812794,0.0008060196,4.049,0,0
0.001867975,0.0042488660000000004,-0.010902174,-0.0013261718,0.0009004780000000001,4.05,0,0
0.0013424684000000002,-0.00014963199999999975,-0.011660514,-0.0009892574,0.0008521538000000001,4.051,0,0
0.0018653214000000002,-0.0038431822,-0.010281062,-0.00039858539999999994,0.001398748,4.052,0,0
0.0018808994000000002,-0.0033953262,-0.008670135999999998,-0.0008402624,0.0008537044,4.053,0,0
0.0016485594,0.0009318578000000002,-0.005189935999999999,-0.0010800716,-0.0002478996,4.054,0,0
0.0021966354000000003,0.0040451258,0.0012008039999999998,-0.0007021536,-0.0004013164,4.055,0,0
0.002638484,0.0053373538,0.005827262000000001,-0.0009818880000000002,-0.0007107566000000001,4.056,0,0
0.0018436900000000003,0.00603222,0.008118314000000001,-0.001009687,-0.0014444206,4.057,0,0
0.0013447949999999998,0.005369136,0.007020102,-6.145000000000044e-06,-0.000620071,4.058,0,0
0.001219247,0.00398365,0.008349002000000001,0.000826627,0.0007086890000000002,4.059,0,0
-0.0003016790000000001,0.002190928,0.016165702,0.001422073,0.0006479206000000002,4.06,0,0
-0.0014021530000000002,0.00013029600000000023,0.023703324,0.001976781,0.0012185926,4.061,0,0
-0.0010410556000000001,-0.001184938,0.026695360000000005,0.001911834,0.0022137006,4.062,0,0
-0.0009215424,-0.0015434073999999998,0.022599980000000002,0.0008904960000000001,0.0013175446000000001,4.063,0,0
-0.0012131366000000003,-0.0014932193999999998,0.010114560000000003,-8.778999999999997e-05,0.00026952059999999997,4.064,0,0
-3.6822600000000036e-05,-0.0010494746,-0.00545076,-0.0004141156,0.0007121159999999998,4.065,0,0
0.0009333434,-0.0010103746000000003,-0.01719836,-0.0011714716,0.00035126419999999996,4.066,0,0
0.00036149800000000003,-0.0021295586000000003,-0.02355774,-0.0019056856,-0.0008697038,4.067,0,0
0.0001874379999999999,-0.0034749872000000006,-0.02239952,-0.0014011798,-0.0005075516,4.068,0,0
0.0001570406,-0.0046713772,-0.016311060000000002,-0.0008420924000000002,8.047640000000001e-05,4.069,0,0
-0.0006417374,-0.005419492000000001,-0.01316192,-0.0011397608000000001,-0.00041300380000000006,4.07,0,0
-0.0007125274000000002,-0.004216996,-0.012827700000000001,-0.0009965288,-6.469e-05,4.071,0,0
0.0005384966000000001,-0.0015533880000000002,-0.008260982,-0.0004565218000000001,0.000935904,4.072,0,0
0.0011659604,0.0002690059999999999,0.0013510580000000005,-0.0007241588000000001,0.0006446018,4.073,0,0
0.001476338,0.0014093880000000001,0.011068358,-0.0008088788,1.2143799999999997e-05,4.074,0,0
0.0017800639999999998,0.0022031330000000003,0.016219438,-0.00012851480000000004,0.00031559020000000005,4.075,0,0
0.0009947979999999999,0.0015914730000000001,0.014148277999999999,-1.4469399999999974e-05,0.00010392679999999997,4.076,0,0
-0.0007697140000000002,-0.0002966789999999998,0.007976679999999998,-0.00020667639999999999,-0.0006752452000000001,4.077,0,0
-0.0021311260000000005,-0.0018028430000000002,-0.0013479400000000006,5.59854e-05,-0.0003481412,4.078,0,0
-0.0027318840000000004,-0.0010868989999999997,-0.01330734,0.0001355846,0.00033816280000000003,4.079,0,0
-0.003537366,0.0006596960000000004,-0.0190262,0.0002683745999999999,-4.8463399999999974e-05,4.08,0,0
-0.0037145560000000004,0.002636012,-0.014690898800000001,0.0008945372,-0.0002506484,4.081,0,0
-0.002445524,0.006226758000000001,-0.0085695968,0.0013483944,0.00040557960000000003,4.082,0,0
-0.0013446620000000002,0.009700296,-0.0034625967999999995,0.0013125106,0.0001942924,4.083,0,0
-0.0010909392,0.009092618,0.0040363832,0.0011611394000000002,-0.0002722626,4.084,0,0
0.0003792328,0.0046582540000000006,0.0115720032,0.0009381834000000001,0.0004863834,4.085,0,0
0.0020659388,-0.0005037359999999994,0.016340622,0.0008181554,0.0009771078,4.086,0,0
0.0020857248,-0.005152376,0.017969080000000002,0.0008629822,0.0003525538,4.087,0,0
0.0022328588,-0.008084432,0.016425000000000002,0.0010232974,0.00031420419999999996,4.088,0,0
0.0030889380000000003,-0.008108754000000001,0.01190138,0.001228958,0.00047728980000000005,4.089,0,0
0.0028157580000000002,-0.004564994000000001,0.0053257800000000004,0.0007509659999999999,-0.0006301402,4.09,0,0
0.0019019926000000001,-0.00023796400000000012,-0.0015528200000000003,0.00021100580000000009,-0.0015145062,4.091,0,0
0.0020289766000000002,0.0017186837999999998,-0.007855460000000002,-0.0001850338,-0.0014868822000000002,4.092,0,0
0.0013353326,0.00035410979999999964,-0.01156882,-0.0006122398,-0.0018262574,4.093,0,0
-0.0008184914000000003,-0.0041459722000000004,-0.010950960000000001,-0.0004401378,-0.0019725232000000004,4.094,0,0
-0.0017412514000000002,-0.0074751522,-0.008242272,-0.00015595940000000003,-0.0011042232,4.095,0,0
-0.001996812,-0.0080278722,-0.003593852,-0.00010089099999999998,-0.0005477917999999999,4.096,0,0
-0.0033471200000000003,-0.008148572,0.0022546480000000006,0.00016122480000000004,-0.0005062716000000001,4.097,0,0
-0.0034711440000000002,-0.006495974,0.004543195999999999,0.0002335368,8.375100000000002e-05,4.098,0,0
-0.001904658,-0.0018278400000000003,0.004164598,-0.00046064719999999997,0.0005248022000000001,4.099,0,0
-0.0015454664000000003,0.001729512,0.004061861999999999,-0.0004735576,0.0001990914,4.1,0,0
-0.0010548744,0.0034004160000000003,0.002746754,8.39182e-05,0.0005294680000000001,4.101,0,0
0.0013522796,0.005960008,0.0014420160000000004,-0.00013787939999999999,0.0014342558,4.102,0,0
0.0026133076,0.00820268,0.0033838140000000006,-0.00019160040000000005,0.001252933,4.103,0,0
0.0022173896000000004,0.009549364000000001,0.004976292,0.00018262679999999997,0.0008806155999999999,4.104,0,0
0.003158548,0.010941652,0.0039048720000000006,-1.0491000000000005e-05,0.0014046844,4.105,0,0
0.003955694000000001,0.011293038,0.0033942900000000003,-0.00041249692000000005,0.0015959424,4.106,0,0
0.002063298,0.009271316,0.005582808,-0.00021786812,0.0012071544,4.107,0,0
0.0005001079999999999,0.006339232000000001,0.008366562000000001,-0.00012436832,0.0012314826,4.108,0,0
0.0005970674,0.003922774,0.007561664,-0.00043585152,0.0006862380000000001,4.109,0,0
-0.0010006966000000001,0.0008359499999999999,0.004366212000000001,-0.0007050557200000001,-0.0011920960000000001,4.11,0,0
-0.0031047246000000003,-0.002652516,0.0001554220000000001,-0.0009175422,-0.002679056,4.111,0,0
-0.0031115086,-0.005648454000000001,-0.007140038,-0.0009441698,-0.0030695178,4.112,0,0
-0.0032511006,-0.00788909,-0.013665938,-0.00025933459999999994,-0.0030859321999999996,4.113,0,0
-0.00424017,-0.00958881,-0.013004834000000002,0.0009844854,-0.0021352301999999997,4.114,0,0
-0.0039945,-0.01114242,-0.008957114,0.0018016214000000001,-0.0002658741999999999,4.115,0,0
-0.0033620700000000004,-0.011343408000000001,-0.006356872000000001,0.0018372432,0.0008783798000000002,4.116,0,0
-0.0035227400000000003,-0.009721030000000002,-0.003673244,0.0014432773999999999,0.0009924008000000001,4.117,0,0
-0.0026564420600000004,-0.007473644000000001,-0.0018516120000000003,0.00042930539999999986,0.0011773734000000001,4.118,0,0
-0.0010106560600000002,-0.0053870068,-0.0020086128,-0.0005223371200000002,0.0012508294,4.119,0,0
-0.00018666006000000012,-0.0019426068000000004,-0.0015168188000000001,2.322687999999995e-05,0.0009998892,4.12,0,0
0.0006861179399999999,0.0033673472,0.00014767519999999996,0.0007890874800000001,0.0013839852,4.121,0,0
0.0022844499399999997,0.0087207692,0.0017536772,0.0009579042800000001,0.0018533580000000003,4.122,0,0
0.003198,0.0122557832,0.0025938092,0.0008492842799999999,0.0012219178000000002,4.123,0,0
0.0035121860000000005,0.013589988,0.001550498,-6.309319999999992e-05,0.00010868579999999991,4.124,0,0
0.004838502000000001,0.012135061999999999,-0.0003714320000000002,-0.0016353392,-0.0004934000000000002,4.125,0,0
0.0058701380000000004,0.007673516,-0.0026538620000000003,-0.0027833472000000003,-0.00167481,4.126,0,0
0.0049437276,0.002492826,-0.006512652000000001,-0.0028353880000000003,-0.0029043140000000003,4.127,0,0
0.0037094496,-0.002425814,-0.009709156,-0.0021784834000000003,-0.002239557,4.128,0,0
0.0027839408000000006,-0.005138888,-0.009458432000000001,-0.001375048,-0.001120781,4.129,0,0
0.00044160879999999997,-0.005062588400000001,-0.006477648000000001,-0.00100621,-0.001187871,4.13,0,0
-0.0018278172,-0.0043364352000000005,-0.0014427940000000007,-0.000543352,-0.0009455330000000001,4.131,0,0
-0.0018957908000000001,-0.0028168371999999996,0.005054686,2.5040000000000045e-05,0.0003576310000000001,4.132,0,0
-0.0018205527999999999,3.604679999999981e-05,0.012794726,0.00026950340000000007,0.000598168,4.133,0,0
-0.002028154,0.0025287948000000003,0.018996228,0.000775976,0.0005272460000000001,4.134,0,0
-0.0005648000000000001,0.0035184991999999997,0.023838159999999997,0.001424846,0.0020072600000000003,4.135,0,0
0.0008266520000000001,0.0036254256000000005,0.029389240000000004,0.00137761,0.0032049,4.136,0,0
0.0011036700000000002,0.0019979515999999998,0.02879122,0.000809948,0.0029456700000000005,4.137,0,0
0.0021909700000000004,-0.0006963464,0.01732942,0.0005728758000000001,0.003083104,4.138,0,0
0.0031975820000000005,-0.0035221304,0.0019088400000000002,0.0002362234,0.0034568880000000004,4.139,0,0
0.0024472604000000003,-0.0061683304,-0.012881880000000002,-0.0007072866000000001,0.002178846,4.14,0,0
0.0015574424,-0.007374021999999999,-0.02948124,-0.0012612686,0.0009116299999999999,4.141,0,0
0.0016492083999999998,-0.0067202780000000005,-0.03910746,-0.0011667534000000001,0.0006441106000000001,4.142,0,0
0.0009480768000000001,-0.004357968000000001,-0.03503876000000001,-0.0014878990000000004,-0.0006152474,4.143,0,0
-0.0005827052,-0.0018565360000000004,-0.025341688,-0.0018927986000000004,-0.0026190734,4.144,0,0
-0.0012725736000000001,0.00016778600000000006,-0.016482534,-0.0015540802,-0.0033366434000000004,4.145,0,0
-0.0021733836000000003,0.0012828984000000001,-0.007574000000000002,-0.0009488916000000001,-0.0036339074,4.146,0,0
-0.0043687296,0.0011994824000000001,0.00197256,-0.0007134820000000001,-0.00449042,4.147,0,0
-0.006124468,0.0010998324,0.00806914,-0.00026923020000000015,-0.004427272,4.148,0,0
-0.006294358000000001,0.0019773604,0.008284919840000002,0.0004477878,-0.0033633900000000004,4.149,0,0
-0.006359128,0.0037063144,0.00926519584,0.0007718132,-0.0025133474000000005,4.15,0,0
-0.005988308,0.0056583020000000005,0.018602261840000002,0.0013635326,-0.0014174314000000002,4.151,0,0
-0.003610006,0.007981854,0.02678006184,0.0019530478000000001,0.0002691006000000001,4.152,0,0
-0.0009424919999999999,0.010194788,0.02755466184,0.0017564114000000002,0.0013495286,4.153,0,0
0.001148262,0.010465334,0.02489151,0.0017929834000000003,0.0023121146,4.154,0,0
0.0038541979999999997,0.005348413999999999,0.012054939999999997,0.0020765636000000002,0.0037699200000000004,4.155,0,0
0.006133626,-0.002880248,-0.010598000000000002,0.00158135,0.004216128,4.156,0,0
0.006150118,-0.008926522000000001,-0.028180780000000002,0.001019169,0.0035264420000000003,4.157,0,0
0.005900736,-0.013547202000000001,-0.03445764600000001,0.0009575574000000001,0.0031829882000000004,4.158,0,0
0.006439806,-0.015820454,-0.031375034,0.0002853294,0.0024459514000000006,4.159,0,0
0.005607394,-0.011818646,-0.0189772,-0.0005928846,0.00026442140000000006,4.16,0,0
0.004585236000000001,-0.004167550000000001,-0.0015711799999999993,-0.0007281698,-0.0016026926000000002,4.161,0,0
0.0049155200000000005,0.0012682500000000007,0.014995480000000002,-0.0006917160000000001,-0.0021180906,4.162,0,0
0.004481054000000001,0.004771802,0.026356086,-0.000357874,-0.0028131888,4.163,0,0
0.002251744,0.006230876000000001,0.029447334000000002,0.00029582600000000006,-0.003457622,4.164,0,0
0.0003353259999999997,0.004757124000000001,0.026149860000000004,0.0007779931200000001,-0.0025282582,4.165,0,0
-0.001120102,0.0028194760000000004,0.015270120000000003,0.0006503439200000001,-0.001330411,4.166,0,0
-0.0033940539999999996,0.0009903900000000003,-0.002912740000000002,0.00026118911999999995,-0.0010032224,4.167,0,0
-0.00485188,-0.001395634,-0.020207080000000002,0.00015950111999999997,0.00014636959999999997,4.168,0,0
-0.004631558,-0.0029462819999999997,-0.02930844,-0.00017372408000000005,0.0016297716000000001,4.169,0,0
-0.003997316000000001,-0.0017113979999999998,-0.027940312000000002,-0.0003855948000000001,0.0018612238,4.17,0,0
-0.0029916948000000003,0.00043358000000000003,-0.018118612,-5.7423800000000024e-05,0.0024037326,4.171,0,0
-0.0008845188000000001,0.00188342,-0.003785331999999999,0.00019615977999999998,0.0032014720000000003,4.172,0,0
0.0010062632,0.003146984,0.006331827999999999,-1.2152340000000034e-05,0.0029719660000000004,4.173,0,0
0.00139299568,0.0034253988,0.008823888000000002,-0.00031366114000000005,0.0021145432,4.174,0,0
0.0015084158800000003,0.0019775188000000004,0.007139860000000001,-0.00060305954,0.0017801102,4.175,0,0
0.0010435546800000002,8.006079999999996e-05,0.0011311539999999994,-0.00085690974,0.0011104303999999998,4.176,0,0
-0.00106563732,-0.0004472171999999999,-0.005335,-0.0007380653199999999,-0.0004652836,4.177,0,0
-0.00325063932,-0.00019012519999999993,-0.004035320000000001,-0.0006952837999999999,-0.0011124076,4.178,0,0
-0.0043802958000000005,0.00011193179999999992,0.0047765,-0.0005474454,-0.0014530628,4.179,0,0
-0.0056866880000000005,0.0003412838,0.01164422,-0.00020727519999999997,-0.0025862518,4.18,0,0
-0.006657546,0.00014029979999999998,0.012971402000000002,-6.6497999999999715e-06,-0.003270098,4.181,0,0
-0.005750852,-0.00039307620000000003,0.009267416,0.0002023622,-0.0023085260000000004,4.182,0,0
-0.004628588,-0.0011229792000000001,0.0025849360000000004,0.00020289660000000003,-0.0016986460000000003,4.183,0,0
-0.004223202,-0.002394227,-0.0035477660000000004,1.0200199999999991e-05,-0.0014178622,4.184,0,0
-0.0028916278,-0.0035799530000000003,-0.007819358,-3.331840000000001e-05,0.00021087579999999996,4.185,0,0
-0.0010070878,-0.003443549,-0.006440572,-0.0004527346,0.0014064238,4.186,0,0
3.610620000000001e-05,-0.0028647550000000005,-9.525200000000053e-05,-0.0016104546,0.0015752178,4.187,0,0
0.0017477222000000002,-0.0025018780000000003,0.004966272,-0.0020107604,0.0019227698,4.188,0,0
0.004518292199999999,-0.000826926,0.005946216000000001,-0.0018684774000000003,0.002777336,4.189,0,0
0.00635993,0.001943508,0.004762492,-0.002034287,0.0026839380000000003,4.19,0,0
0.00736607,0.003598036,0.002707126,-0.001444165,0.002363666,4.191,0,0
0.008198416,0.004176936,-0.00017182800000000006,-0.00024857500000000007,0.0026475580000000004,4.192,0,0
0.007580278,0.00470801,-0.0020630824,0.00032733500000000005,0.0016204600000000002,4.193,0,0
0.00526114,0.004823496,-0.0020921484000000004,0.0006707900000000001,-0.0002802419999999998,4.194,0,0
0.00289848,0.003963028,-0.0013843523999999999,0.0012262016000000003,-0.0015963919999999999,4.195,0,0
0.0005867860000000002,0.002036146,-0.0010985324,0.0010087715999999999,-0.0031852820000000002,4.196,0,0
-0.0023253020000000004,-7.832200000000003e-05,-0.0010896364,0.000741275,-0.0053822620000000005,4.197,0,0
-0.004879228,-0.001945178,-0.001165966,0.000801185,-0.005878156000000001,4.198,0,0
-0.005917188,-0.00371731,-0.0009578100000000003,0.0007151748000000001,-0.0048365342,4.199,0,0
-0.006421420000000001,-0.004778971999999999,0.00031095199999999976,0.0010043311999999999,-0.0042780902,4.2,0,0
-0.006614202,-0.004540488,0.002442236,0.0015439072000000002,-0.0032562902000000003,4.201,0,0
-0.005195582600000001,-0.0033334872,0.005112034,0.0018765738000000001,-0.0010574402,4.202,0,0
-0.003345246,-0.0018464231999999999,0.007933914,0.0017560295999999999,0.00038515779999999985,4.203,0,0
-0.0018175959999999997,-5.760720000000006e-05,0.009329782,0.0013593658,0.001082332,4.204,0,0
0.000946634,0.0010909048,0.007261380000000001,0.0009811135999999998,0.0028264559999999998,4.205,0,0
0.00426537,0.0012487208,0.002385,0.0005537142,0.004091056000000001,4.206,0,0
0.005811810600000001,0.0009086839999999999,-0.0033802600000000004,-1.9364999999999975e-05,0.003461094,4.207,0,0
0.007075592,-0.000541864,-0.00928818,0.00011472120000000004,0.0029465398000000005,4.208,0,0
0.008322646000000001,-0.0028794800000000002,-0.01350256,0.00038527520000000004,0.0026304038,4.209,0,0
0.0067681384,-0.004674428,-0.013022796000000001,-0.00033911859999999995,0.0007097658000000002,4.21,0,0
0.0038621744000000005,-0.005102252,-0.008553608,-0.0007468632,-0.0008577162000000001,4.211,0,0
0.0018968484000000006,-0.003961992,-0.003435942000000001,-0.0007236435999999999,-0.000960145,4.212,0,0
-0.0006340035999999998,-0.001361356,0.0023230180000000005,-0.0009855226000000002,-0.0015661908000000001,4.213,0,0
-0.0042147096,0.0014988560000000002,0.007325778,-0.0005669186,-0.0021915668,4.214,0,0
-0.0061350960000000005,0.00400822,0.008954594,0.0007458374,-0.0012117028,4.215,0,0
-0.0065158659999999995,0.0060574800000000005,0.007783591999999999,0.0016253394,-5.6050800000000036e-05,4.216,0,0
-0.00696792,0.006514140000000001,0.004955386,0.001829253,-2.8540999999999997e-05,4.217,0,0
-0.006208476,0.0061839700000000004,0.0006909220000000003,0.0016869664,0.0005878814000000001,4.218,0,0
-0.003639656,0.008101056,-0.004122518,0.0007514344000000002,0.0014470994,4.219,0,0
-0.001359148,0.010140718,-0.0050379962,-0.0008149676,0.0010153732,4.22,0,0
0.00024147600000000018,0.010112252,-0.0040331282,-0.0019219256000000003,0.0004197494000000001,4.221,0,0
0.0029491900000000004,0.010441202000000002,-0.005857108200000001,-0.0020040976,0.0009109704000000001,4.222,0,0
0.0055046240000000005,0.010423742000000001,-0.006354044200000001,-0.0022367460000000004,0.001057818,4.223,0,0
0.006289640000000001,0.007912918,-0.0042463482,-0.0029573380000000003,-1.468200000000002e-05,4.224,0,0
0.006797552000000001,0.004305078,-0.0032784940000000007,-0.0026578620000000004,-0.00018704180000000007,4.225,0,0
0.00708945,0.00041003399999999966,-0.0028058600000000003,-0.0017173019999999998,0.00019305399999999993,4.226,0,0
0.0051242300000000005,-0.004085886,-0.0018977199999999999,-0.001458894,-0.0006610800000000001,4.227,0,0
0.0022041300000000003,-0.0051547424000000005,-0.0021863000000000004,-0.0008314779999999998,-0.0010038488000000002,4.228,0,0
0.00018056799999999987,-0.0042243504,0.005248864,0.0006565360000000001,-0.0004748436,4.229,0,0
-0.0024061860000000003,-0.0059946104,0.026846388,0.0013743736000000001,-0.0012831755999999999,4.23,0,0
-0.005301874000000001,-0.006988630400000001,0.0479542,0.0014589176,-0.0020594096,4.231,0,0
-0.006015976000000001,-0.0062211304,0.05515384,0.0017588836,-0.0013664956000000001,4.232,0,0
-0.005631852000000001,-0.008345892,0.04508592,0.0012451476,-0.0015336648,4.233,0,0
-0.005951758,-0.012006360000000002,0.013492439999999998,0.0005886256000000002,-0.0022759720000000002,4.234,0,0
-0.00534521,-0.012910980000000002,-0.03288256,0.00046019039999999994,-0.001015456,4.235,0,0
-0.003985762,-0.012961660000000002,-0.06621516,-0.00032658160000000004,0.00040645199999999996,4.236,0,0
-0.0033888160000000002,-0.012974040000000001,-0.06780824,-0.0009213196,0.0009512020000000001,4.237,0,0
-0.002125252,-0.0109157916,-0.04633078000000001,-0.00038969959999999996,0.0030659220000000004,4.238,0,0
0.0009092260000000002,-0.0077647836,-0.014690340000000003,-5.171799999999997e-05,0.005703624000000001,4.239,0,0
0.003857294,-0.003732343600000001,0.012183520000000002,-0.0002467914,0.005891422,4.24,0,0
0.0059838320000000006,0.0008472764000000001,0.017672240000000002,-9.080619999999998e-05,0.005069738600000001,4.241,0,0
0.007681006,0.0040113784000000005,0.0040945600000000006,-2.041599999999977e-06,0.004653356600000001,4.242,0,0
0.007381996,0.0052798540000000005,-0.011047480000000002,-0.00017477380000000003,0.0025337525999999996,4.243,0,0
0.0045172319999999995,0.005308408,-0.018862249600000002,-0.00014761620000000003,0.00015835860000000003,4.244,0,0
0.0017607999999999999,0.0059477359999999995,-0.0204632556,1.4796799999999982e-05,-0.0004566595999999999,4.245,0,0
0.000544866,0.007947376,-0.013651361599999998,0.00023739399999999998,-0.0007674066,4.246,0,0
-0.0005468819999999998,0.010608874,-0.0023319096000000003,0.00019681940000000001,-0.0018186446,4.247,0,0
-0.0021841480000000003,0.010912938,0.0042436424,-0.0001110168,-0.0023479166,4.248,0,0
-0.0041188100000000005,0.007402496,0.006769672,-2.3660199999999987e-05,-0.0019701116000000003,4.249,0,0
-0.006092312000000001,0.003037588000000001,0.011173618,0.00022844979999999998,-0.0021944914,4.25,0,0
-0.00764009,-0.0013600600000000004,0.015734324,0.00047648940000000005,-0.002437875,4.251,0,0
-0.0079848274,-0.005988998,0.016553088,0.0009765614000000002,-0.0016410954000000003,4.252,0,0
-0.006352495400000001,-0.0077126826,0.015443440000000001,0.0014984398000000001,-0.0005333694,4.253,0,0
-0.0024950874,-0.0047147686,0.01247226,0.0016455326,0.00011712760000000012,4.254,0,0
0.0021157666,-0.0013401266000000003,0.007491024000000001,0.0014732104000000003,0.0011674116,4.255,0,0
0.0053770126,0.00038835340000000006,0.003986404000000001,0.0011529503000000003,0.0020216436000000003,4.256,0,0
0.0063810279999999995,0.0016196234,0.004080968000000001,0.0005676492999999999,0.0017559116,4.257,0,0
0.006254231999999999,0.0019380939999999998,0.004253986,0.00016323150000000004,0.0013605488000000001,4.258,0,0
0.006185759999999999,0.0016479,0.002617566000000001,-0.0003186651,0.0007542490000000001,4.259,0,0
0.004461342,0.0014490520000000002,0.001325372,-0.0009563409000000001,-0.0008523510000000002,4.26,0,0
0.0012833639999999997,0.001444848,0.001240152,-0.0010825064000000001,-0.002508677,4.261,0,0
-0.000769268,0.0012558576000000002,0.0007883920000000002,-0.0008622048,-0.0029090966,4.262,0,0
-0.002726422,0.0011320668000000002,-0.00046739600000000013,-0.0008567074000000002,-0.0031556598,4.263,0,0
-0.005717558000000001,0.0008674956000000001,-0.0008262960000000002,-0.0005661114000000001,-0.0036271700000000007,4.264,0,0
-0.0071903620000000005,-0.00030937839999999994,-0.001522974,8.66574e-05,-0.002920862,4.265,0,0
-0.0064870560000000015,-0.0014074464,-0.00193451,0.00011534559999999999,-0.0015447068000000001,4.266,0,0
-0.005087128000000001,-0.0012307199999999998,0.00067439,-0.00025940500000000004,-0.0011046270000000002,4.267,0,0
-0.0027896340000000005,-0.0008634132,0.005322536000000001,-0.000322547,-0.00034511700000000004,4.268,0,0
0.00041412800000000004,-0.00028212599999999984,0.008375756000000002,-0.00031688100000000003,0.001404683,4.269,0,0
0.002827042,0.00234889,0.010415474000000001,-0.0004946574,0.002170939,4.27,0,0
0.004341262,0.00567561,0.01087149,-8.7196e-05,0.0024095298,4.271,0,0
0.006124264,0.007498802000000001,0.00406455,0.0006335540000000001,0.003521496,4.272,0,0
0.007265764000000001,0.008422454000000001,-0.0058100700000000005,0.0009571844000000002,0.003882888,4.273,0,0
0.007041248,0.008024102,-0.01104341,0.0011951984,0.0025822378,4.274,0,0
0.006779340000000001,0.005997894,-0.014698600000000001,0.001182492,0.0017563317999999997,4.275,0,0
0.006466694000000001,0.0023581060000000004,-0.018136865999999998,0.00059829,0.0009958078000000003,4.276,0,0
0.003830192,-0.0024406740000000003,-0.015680988,-0.00022065000000000002,-0.0011688941999999998,4.277,0,0
0.00069202,-0.005771128,-0.009086696,-0.000985344,-0.0030344202,4.278,0,0
-0.000713196,-0.006788280000000001,-0.005185958,-0.001534556,-0.003466696,4.279,0,0
-0.002438248,-0.0067010806,-0.0033504359999999996,-0.001714526,-0.00374727,4.28,0,0
-0.004632648,-0.0063294286,-0.0013578699999999997,-0.0015770241999999999,-0.004033648000000001,4.281,0,0
-0.005523886,-0.0053922466,0.00017271600000000006,-0.0014702856,-0.0029944982000000005,4.282,0,0
-0.005676282,-0.0046126006,0.001541526,-0.0014319756,-0.0018081458000000002,4.283,0,0
-0.00640347,-0.0044486166,0.003042902,-0.001066614,-0.0012497898,4.284,0,0
-0.005893534000000001,-0.004719727999999999,0.004514124,-0.000446728,0.00029318020000000005,4.285,0,0
-0.0037893379999999997,-0.004473886000000001,0.005709444,9.475620000000005e-05,0.0021168482000000002,4.286,0,0
-0.001408292,-0.003298808,0.00759864,0.0006799676000000002,0.0027140804000000004,4.287,0,0
0.001611636,-0.002822816,0.010272818,0.0014824036000000002,0.0034516560000000004,4.288,0,0
0.004979074,-0.002799182,0.012661104,0.0018256960000000001,0.004348070000000001,4.289,0,0
0.006977646,-0.00293353,0.012583676,0.0016502656000000004,0.0033309072,4.29,0,0
0.00687491,-0.0028753620000000002,0.007326835999999998,0.0014151562000000002,0.0017493512,4.291,0,0
0.006189506,-0.002244161,-0.00044322400000000074,0.0011200956000000002,0.0008219432,4.292,0,0
0.0045220282,0.00014239900000000008,-0.007752504000000001,0.00047362960000000003,-0.0011178348000000003,4.293,0,0
0.0014067042,0.004494849,-0.012059602,-0.0001802344,-0.0032568368,4.294,0,0
-0.0011708358000000001,0.008812720999999999,-0.010887662000000003,-0.00014586879999999998,-0.0035759900000000002,4.295,0,0
-0.0026172798,0.013156007,-0.004773722000000001,-3.808539999999996e-05,-0.0034240420000000004,4.296,0,0
-0.0045093098,0.016695806,0.005014918,-0.00012039658000000006,-0.003907784000000001,4.297,0,0
-0.0063341840000000005,0.01780902,0.011267538,0.00016034541999999995,-0.00337644,4.298,0,0
-0.006268238000000001,0.0142411714,0.010198076,0.00045375721999999993,-0.001772508,4.299,0,0
-0.005973040000000001,0.006457431399999999,0.004213139999999999,0.00025130802,-0.0010581499999999999,4.3,0,0
-0.005897078,-0.0013516286000000008,-0.006466200000000002,5.264642e-05,-0.0006916924000000001,4.301,0,0
-0.003758660000000001,-0.007314068600000001,-0.01742764,-1.058299999999999e-05,0.0008502636,4.302,0,0
-0.0008078400000000004,-0.011931102600000002,-0.019273234000000004,-0.00015462899999999999,0.0019654736000000003,4.303,0,0
0.0010801079999999998,-0.013952522000000002,-0.007235554,-0.00036884319999999995,0.0020636236000000003,4.304,0,0
0.003597952,-0.011866112000000002,0.014916666,-0.0005313976000000001,0.0026179296000000004,4.305,0,0
0.006652152000000001,-0.008897978,0.038107546000000006,-0.0009043499999999999,0.0029628140000000002,4.306,0,0
0.007548714000000001,-0.006962362,0.047784666,-0.0013687688,0.0025252820000000002,4.307,0,0
0.006894990000000001,-0.0056408199999999995,0.03382366,-0.0010689914,0.002561748,4.308,0,0
0.006322540000000001,-0.003950820000000001,0.003075660000000001,-0.0009229212,0.00278841,4.309,0,0
0.004079272,-0.001817292,-0.02754094,-0.0014392528,0.0016256280000000003,4.31,0,0
0.0004462480000000002,-0.0005342960000000001,-0.04759872,-0.0013879708000000001,0.00018927199999999988,4.311,0,0
-0.002031748,0.0008860340000000002,-0.0536543,-0.0006795294000000001,-0.00027267000000000025,4.312,0,0
-0.00402383,0.0026992580000000004,-0.041780306,-0.0006742514000000001,-0.0011507100000000003,4.313,0,0
-0.006178344,0.005001926,-0.02075046086,-0.0009853192000000002,-0.0023372040000000003,4.314,0,0
-0.006513192,0.008459468000000001,-0.007601564860000001,-0.0004448496000000001,-0.0019143148000000006,4.315,0,0
-0.0051516669999999995,0.012068798000000002,-0.0019238128599999996,0.0002868224,-0.00047796480000000016,4.316,0,0
-0.004352968999999999,0.014569631999999999,0.00398828714,0.000503353,-0.0004063458000000002,4.317,0,0
-0.0031049389999999997,0.015202141999999998,0.01236937314,0.0003852868,-0.0004237618000000001,4.318,0,0
-0.0006618290000000002,0.011188137999999999,0.019418708,0.0009882908,0.0005920682,4.319,0,0
0.0008965269999999999,0.003068378,0.021212412000000003,0.0017329472000000002,0.000996993,4.32,0,0
0.0015110219999999999,-0.004897882000000001,0.0202322726,0.0016487492000000002,0.0010147990000000003,4.321,0,0
0.00293036,-0.011952022000000001,0.0157840386,0.0018432852000000001,0.0021100580000000006,4.322,0,0
0.004606154,-0.016354964,0.007694098600000002,0.002365842,0.0032535040000000004,4.323,0,0
0.004736428,-0.015243884000000001,0.0011681926,0.002181731,0.0023639680000000006,4.324,0,0
0.004617328,-0.010803086200000001,0.00047335660000000007,0.0017491696,0.0015379680000000002,4.325,0,0
0.004870068000000001,-0.006613700200000001,0.00022160299999999996,0.0012711222,0.0010072742000000001,4.326,0,0
0.0032048120000000005,-0.0030670290612,-0.0035497230000000007,0.00046553220000000007,-0.0007854338000000002,4.327,0,0
0.0005472459999999999,-0.0006898412612000002,-0.007074523,-0.00011345800000000001,-0.0018462138,4.328,0,0
-0.0008235559999999998,-3.552846119999999e-05,-0.010191717,-0.000705187,-0.0016658018,4.329,0,0
-0.002609874,-0.0002744882612,-0.0118736238,-0.0013183716,-0.0021241098,4.33,0,0
-0.004749286,-0.0006601056612,-0.007063882800000002,-0.00140999,-0.0027166440000000003,4.331,0,0
-0.00446485,-0.00010968279999999989,0.004422497200000001,-0.0012456638,-0.0021896700000000003,4.332,0,0
-0.0033580722,0.0011429414000000003,0.013468597200000001,-0.0013816576,-0.0020525196000000002,4.333,0,0
-0.0033632882000000004,0.0019186026000000004,0.016575341200000003,-0.0012542216,-0.0020113318,4.334,0,0
-0.0027340641999999997,0.0022894308000000006,0.014357764000000004,-0.0006935918000000001,-0.0008597618000000002,4.335,0,0
-0.0015136814000000001,0.0029151602000000005,0.0036168440000000027,-0.0003723328,0.00030207820000000007,4.336,0,0
-0.0014059708,0.0036391882000000003,-0.010306776,-0.00040135880000000004,0.00034777819999999994,4.337,0,0
-0.0010434906,0.004288182200000001,-0.017407016,-5.252920000000004e-05,0.00031696279999999995,4.338,0,0
0.0008294234000000001,0.0054177082,-0.015637679999999998,0.0006573728000000001,0.001057943,4.339,0,0
0.0020269114,0.006154006,-0.008633739999999999,0.0006877384000000002,0.0011797090000000001,4.34,0,0
0.0016155846000000002,0.005967694,0.001320560000000001,0.0005670146000000001,0.0010628750000000002,4.341,0,0
0.002057244,0.005433946,0.008774788,0.0005017354000000001,0.0018732830000000003,4.342,0,0
0.002760366,0.004539278,0.010096528000000002,-7.925419999999986e-05,0.0018280308000000003,4.343,0,0
0.000724818,0.0029153302000000003,0.007518160000000002,-0.0006808502000000001,0.0006947148,4.344,0,0
-0.0011718800000000001,-1.6738000000000516e-06,0.0020531880000000005,-0.0006706529999999999,0.0006202248,4.345,0,0
-0.0009125340000000001,-0.0035256798000000006,-0.0024933480000000003,-0.0005929671999999999,0.0008326768000000001,4.346,0,0
-0.001941126,-0.006824873800000001,-0.00209871,-0.0002474022,0.00014055820000000003,4.347,0,0
-0.0035205580000000005,-0.0089276838,0.00270471,0.0006937798,1.2314000000000032e-06,4.348,0,0
-0.002161596,-0.00845806,0.008782758,0.0013721538000000001,0.0010657074,4.349,0,0
-0.000235656,-0.005195420000000001,0.011984670000000001,0.0012864244000000001,0.0008897694,4.35,0,0
-6.724099999999996e-05,-0.0004691140000000001,0.009581526,0.0010754750000000002,-0.00031308859999999993,4.351,0,0
0.0008870530000000002,0.003452496,0.00427528,0.0009042000000000001,-0.00038513799999999993,4.352,0,0
0.0016716158000000005,0.0049873800000000005,-0.0028866000000000005,0.00017948000000000004,-0.00047678199999999987,4.353,0,0
0.0006066498000000002,0.004792348000000001,-0.0128289,-0.00040779920000000004,-0.00147063,4.354,0,0
0.0004384098,0.0039825120000000006,-0.01821242,-0.00035222820000000007,-0.001997962,4.355,0,0
0.0018260948000000002,0.0023266776000000007,-0.0153108954,-8.168800000000001e-05,-0.0015787345999999998,4.356,0,0
0.0023850688,0.001067765,-0.008903307400000001,-0.0002453142,-0.0016731946,4.357,0,0
0.002802334,0.001154047,-0.0013497274000000004,-0.0004234322,-0.0017583045999999998,4.358,0,0
0.004377056,0.001533925,0.0065033126,-0.000568659,-0.0016232966,4.359,0,0
0.004265898,0.001716941,0.0128304526,-0.000884715,-0.0024152206000000002,4.36,0,0
0.0020425260000000002,0.0022732294,0.01432805,-0.0011363616,-0.00334376,4.361,0,0
0.0005565700000000002,0.001837244,0.008333502,-0.0010250364,-0.0033108820000000002,4.362,0,0
-0.0008514360000000001,-0.0005264040000000003,-0.001043678000000001,-0.0007688814,-0.00305711,4.363,0,0
-0.0032735100000000003,-0.0029547640000000003,-0.007886298,-0.0008898154000000001,-0.0032858819999999995,4.364,0,0
-0.004569494000000001,-0.005881264000000001,-0.012782098,-0.00067892916,-0.002475604,4.365,0,0
-0.004125824,-0.010152184000000002,-0.015782118,-0.00023595856000000002,-0.0009445320000000001,4.366,0,0
-0.0038147660000000003,-0.012633856000000002,-0.013717410000000003,-0.00021714682,-0.00021638799999999992,4.367,0,0
-0.0034178120000000005,-0.011085284,-0.009137414000000002,-0.00020254521999999995,0.000697226,4.368,0,0
-0.0017017880000000005,-0.008749576000000002,-0.005321064,0.00030569858000000004,0.0026294480000000004,4.369,0,0
0.00013859400000000002,-0.0050125000000000005,-0.002001964,0.00030371354000000006,0.004113014000000001,4.37,0,0
0.0013497700000000001,0.0023130599999999996,0.0018097339999999997,-0.00013904646,0.004748150000000001,4.371,0,0
0.0026315400000000004,0.00735852,0.005322786,-0.0003867462,0.0058029560000000015,4.372,0,0
0.003772442000000001,0.0078303842,0.00830531,-0.0007920228,0.006474232000000001,4.373,0,0
0.0035807280000000005,0.007570878200000001,0.01099898,-0.0011889246,0.0057825820000000005,4.374,0,0
0.003077466,0.0069874762,0.00957269,-0.0012845282000000001,0.0048758280000000005,4.375,0,0
0.003185238,0.005067522200000001,0.005516916,-0.0013963410000000002,0.0038706344,4.376,0,0
0.001953714,0.0040744962000000004,0.0033472780000000004,-0.0013701510000000002,0.0017030784,4.377,0,0
0.00013540600000000002,0.004551112000000001,0.0009193599999999997,-0.0009800052,-0.00027649359999999993,4.378,0,0
-0.000491588,0.003813464000000001,-0.0024849492000000003,-0.0008081088,-0.0010408482,4.379,0,0
-0.001464014,0.001098056,-0.0027341624000000006,-0.0006938992000000001,-0.0020763602000000003,4.38,0,0
-0.003423208,-0.0035976100000000002,-0.0006995514,-0.0004740464,-0.0026184346,4.381,0,0
-0.0036279680000000005,-0.007535384000000001,-0.0008984734000000001,1.5765599999999983e-05,-0.0014712726,4.382,0,0
-0.0024254804,-0.007649552000000001,-0.0029986554000000004,0.0008524478,-0.0005760186000000002,4.383,0,0
-0.0018204844,-0.004213144,-0.0052371262,0.0019902094000000003,-0.0005323428000000002,4.384,0,0
-0.0003713184000000002,0.0018670299999999996,-0.006998309,0.0030113320000000002,0.0006803972,4.385,0,0
0.0021017296000000003,0.00747799,-0.005180752,0.00371461,0.0019996612000000003,4.386,0,0
0.0032701436,0.01089911,0.0039153880000000005,0.00406027,0.0019500892,4.387,0,0
0.0036181140000000004,0.011395604,0.020871588,0.003707104,0.0023823092,4.388,0,0
0.004691044,0.008005269999999998,0.036441788,0.0028381791999999998,0.00306987,4.389,0,0
0.0049281740000000004,0.003136128,0.040004004,0.0017188260000000003,0.002708393,4.39,0,0
0.004104656,-0.001156758,0.03158297,0.0007549460000000003,0.0018227242,4.391,0,0
0.0037530800000000007,-0.005548078,0.012533910000000002,-0.0004993479999999999,0.0008944662000000002,4.392,0,0
0.0031368984000000005,-0.009286602000000001,-0.012078769999999999,-0.0017434999999999998,-0.0008648518,4.393,0,0
0.0006219464000000001,-0.010798244,-0.02973691,-0.0018072884,-0.0024801618,4.394,0,0
-0.0021175656,-0.011557966,-0.03482966,-0.0013125012,-0.0028522368000000005,4.395,0,0
-0.0036736836,-0.010545381999999999,-0.03091104,-0.0011008632,-0.003259108,4.396,0,0
-0.0051479116,-0.007082972000000001,-0.020723226000000004,-0.0003741856,-0.003813978000000001,4.397,0,0
-0.006421492,-0.00430263064,-0.01137632,0.0007117011999999999,-0.0036208700000000004,4.398,0,0
-0.006279414,-0.00202473464,-0.008112432000000001,0.0008278297999999999,-0.0031511000000000004,4.399,0,0
-0.005411506,0.00041759336000000004,-0.002360192,0.0004653900000000001,-0.003865714,4.4,0,0
-0.005205894,0.00240298136,0.008380848,0.0006043612,-0.004568898,4.401,0,0
-0.0039140058,0.0038778433600000005,0.016961154,0.0007753776,-0.003810406,4.402,0,0
-0.0019582398,0.005291114,0.022732007999999998,0.00042548460000000005,-0.002956914,4.403,0,0
-0.0009103098000000003,0.0073011740000000006,0.02272852,0.00012093059999999998,-0.0027544240000000005,4.404,0,0
0.0005368841999999999,0.008186950000000002,0.01087196,5.1774399999999936e-05,-0.0016801434,4.405,0,0
0.0026701502,0.007040804,-0.00858242,-0.00020469700000000005,0.0002837906,4.406,0,0
0.0040235,0.0057936176,-0.024819960000000002,-0.0004370946,0.0016099446,4.407,0,0
0.004644848,0.0053085136,-0.03280896,-0.0003312306,0.0025500246000000003,4.408,0,0
0.0058681900000000006,0.0046361876,-0.031243678000000004,-0.000618078,0.0031272906000000002,4.409,0,0
0.005751970000000001,0.0037502056000000006,-0.020311542000000002,-0.001573006,0.002295148,4.41,0,0
0.0038026460000000002,0.0020475056,-0.006849822000000001,-0.0021417558,0.0006288999999999999,4.411,0,0
0.0021069500000000002,-0.0012115999999999993,0.0034216180000000004,-0.0023485240000000003,-0.0006320940000000001,4.412,0,0
0.0007701820000000001,-0.0045280680000000005,0.008453558,-0.0023462732000000004,-0.001968704,4.413,0,0
-0.001423768,-0.007365052,0.0092605,-0.0017752768000000002,-0.0031891740000000003,4.414,0,0
-0.0036181499999999997,-0.009229528,0.007942894,-0.0005087728000000001,-0.0030039920000000005,4.415,0,0
-0.003965566,-0.008472812,0.0053976219999999995,0.0008512232000000001,-0.001840892,4.416,0,0
-0.004710802,-0.006360823999999999,0.0030221320000000003,0.0013008330000000002,-0.001428702,4.417,0,0
-0.005532502,-0.005593802,0.00057061,0.0012794244,-0.0009382264000000001,4.418,0,0
-0.004234277999999999,-0.005277442,-0.00022292,0.001459694,0.0010396575999999998,4.419,0,0
-0.002299426,-0.0039913660000000005,0.00353293,0.0012303390000000002,0.0025625676,4.42,0,0
-0.0008785839999999997,-0.0017850399999999999,0.009977122000000001,0.00018219900000000002,0.0026235636,4.421,0,0
0.0015473240000000003,0.0011840140000000004,0.014810752,-0.0002597996,0.0029846936,4.422,0,0
0.004576106,0.004922272,0.016148686,2.1666600000000007e-05,0.003498172,4.423,0,0
0.005699422000000001,0.008216862,0.012170692,-2.4215399999999985e-05,0.002947656,4.424,0,0
0.006562172000000001,0.010240884,0.005175351999999999,0.00015817559999999992,0.002447228,4.425,0,0
0.007698710000000001,0.011576142000000001,0.0029007319999999996,0.00029157160000000006,0.0024558159999999996,4.426,0,0
0.006683332,0.010444044000000001,0.007436071999999998,-0.00023049779999999997,0.001707758,4.427,0,0
0.0038763419999999996,0.00679804,0.014835,-0.000750842,0.00036550199999999997,4.428,0,0
0.0016817680000000002,0.00291644,0.022727539999999997,-0.001275158,-0.0005237480000000001,4.429,0,0
-0.00082247,-0.0014693019999999998,0.027455642,-0.0017667160000000002,-0.001695466,4.43,0,0
-0.004795398,-0.006938882,0.019734761999999996,-0.0016519772,-0.0031770480000000005,4.431,0,0
-0.007161242,-0.009803066000000001,-0.0009376780000000008,-0.0010334064,-0.003288048,4.432,0,0
-0.007356864,-0.009415978,-0.021582658000000005,-0.0004493283999999999,-0.0026026588000000006,4.433,0,0
-0.0076733700000000005,-0.009057666,-0.034083878000000005,-0.00019966839999999993,-0.0025304468000000003,4.434,0,0
-0.007369912000000001,-0.008193694,-0.039849,0.00021168300000000005,-0.0016725728,4.435,0,0
-0.005046492000000001,-0.00600995,-0.036803756,0.0007059442000000001,0.00018399520000000002,4.436,0,0
-0.0029466020000000004,-0.0029964,-0.024657461999999998,0.000916524,0.0010216232,4.437,0,0
-0.0015633820000000003,1.2481999999999858e-05,-0.013483860000000002,0.0012255920000000002,0.001908264,4.438,0,0
0.0011547280000000003,0.0024287859999999996,-0.007654520000000001,0.0018896059999999998,0.003563288,4.439,0,0
0.0036523700000000003,0.004558434,-0.0040466880000000005,0.0021117006,0.004478982,4.44,0,0
0.004360756,0.006439048,-0.0019372660000000004,0.0017719618000000001,0.004337238,4.441,0,0
0.005367738,0.006562122,-0.0006833260000000002,0.0017280192,0.004087408000000001,4.442,0,0
0.0062573360000000005,0.005315986000000001,0.002632092,0.0012677608,0.00329638942,4.443,0,0
0.004528077000000001,0.004924002,0.008062872,0.00021649880000000003,0.0010421694199999997,4.444,0,0
0.002639883,0.005365970000000001,0.01227404,-0.0005337472000000001,-0.00071389258,4.445,0,0
0.0020475424,0.005735904,0.015861614000000003,-0.0005460762400000001,-0.00156819258,4.446,0,0
-0.00026749560000000007,0.0054750300000000005,0.01787938,-0.00064529424,-0.00300106058,4.447,0,0
-0.0036241516000000006,0.004738670200000001,0.013985216,-0.00124061784,-0.004431056,4.448,0,0
-0.0051005846,0.0039370282000000005,0.006647416,-0.00116670584,-0.004178126000000001,4.449,0,0
-0.0062225206,0.0027596182,0.000859358000000001,-0.0008400162399999999,-0.003524969,4.45,0,0
-0.007640644000000001,0.0008737162,-0.0048721,-0.0008994789999999999,-0.0034548324000000003,4.451,0,0
-0.006780286,-0.0006522558000000001,-0.009480476,-0.0009300900000000001,-0.0017048964000000002,4.452,0,0
-0.0045860758000000005,-0.002216014,-0.007271172,-0.0004093952,0.0009414535999999997,4.453,0,0
-0.0028844302,-0.004456718,-0.0012734940000000004,0.0001380088,0.0024353296,4.454,0,0
-0.00026132020000000007,-0.006068212,0.001956964,0.0003721872,0.0032499226000000003,4.455,0,0
0.0032239378,-0.00660375,0.0029707278,0.0003413814,0.0038736740000000006,4.456,0,0
0.0052472478,-0.006620438,0.0038160119999999997,-0.00012280960000000002,0.0033388361600000006,4.457,0,0
0.0066700096,-0.00631527,0.0035639359999999998,-0.00044871040000000003,0.0023220581600000008,4.458,0,0
0.008501088,-0.005297336000000001,0.002069464,-0.0009795264000000002,0.00198471016,4.459,0,0
0.008695458,-0.004084750800000001,0.001786194,-0.0014762344,0.00131608456,4.46,0,0
0.007169802000000001,-0.0027701328,0.0021083162000000003,-0.0014428226,0.0004960585599999999,4.461,0,0
0.005630322000000001,-0.0012304608000000003,-0.00016029200000000025,-0.0008899082000000001,0.00011046839999999993,4.462,0,0
0.0034349660000000007,0.00019610460000000005,-0.0037120760000000004,-0.0001946562000000001,-0.00033483760000000003,4.463,0,0
-0.0007224480000000001,8.261659999999997e-05,-0.006148942,0.00021320159999999995,-0.0011737436,4.464,0,0
-0.00450091,-0.0017444825999999999,-0.008476132,0.0007292976,-0.00197447,4.465,0,0
-0.00634569,-0.0036931346,-0.008864047000000002,0.0008301882,-0.002062708,4.466,0,0
-0.008003596,-0.0057918126,-0.0037209469999999996,0.0002900038,-0.0023113580000000003,4.467,0,0
-0.009066008,-0.007334214,0.0040712330000000005,0.0001718378,-0.002737088,4.468,0,0
-0.007426844000000001,-0.007169078000000001,0.014647793000000001,0.000451388,-0.001966562,4.469,0,0
-0.0047705840000000005,-0.0043925460000000015,0.028746473,0.00043293400000000005,-0.0007530559999999998,4.47,0,0
-0.0032562300000000006,-0.0007925240000000002,0.04294398,0.0008064080000000001,0.00010190200000000029,4.471,0,0
-0.0006322760000000002,0.0020778560000000003,0.05138572,0.001582192,0.0016908040000000002,4.472,0,0
0.0026990240000000004,0.005218296000000001,0.04116678,0.0017009740000000003,0.0033458380000000003,4.473,0,0
0.0043831320000000005,0.0071591580000000005,0.01440108,0.0013782202000000002,0.003245904,4.474,0,0
0.006051526000000001,0.00789568,-0.014951640000000002,0.00100488,0.0027545572,4.475,0,0
0.008723628,0.01052538,-0.04285148,0.000769094,0.0025296244,4.476,0,0
0.009760850000000001,0.014778816,-0.06212624,0.0006530706000000002,0.0010923964,4.477,0,0
0.008396642,0.017371852,-0.05978566,0.0002500866,-0.0006793336000000002,4.478,0,0
0.006485366,0.018414582000000002,-0.04313758,0.0001418368,-0.0016278816000000003,4.479,0,0
0.0033194,0.01682137416,-0.027277787999999997,0.00023496120000000002,-0.0027232948000000005,4.48,0,0
-0.0020021400000000003,0.010426076159999999,-0.013633328000000002,-0.00017176479999999998,-0.004169330000000001,4.481,0,0
-0.0069535000000000005,0.0023102961599999997,-0.0058585678,-0.0005454090000000001,-0.004442016000000001,4.482,0,0
-0.008934314,-0.006719883840000001,-0.0032253398000000005,-0.0006229926,-0.004041574000000001,4.483,0,0
-0.009393116,-0.01595818384,-0.0009840118,-0.001072605,-0.00418267,4.484,0,0
-0.009101342,-0.021111158000000005,0.0014944482,-0.0016021672000000003,-0.00339274,4.485,0,0
-0.0072451040000000005,-0.022031300000000004,0.0033804522,-0.0017374892000000001,-0.00154771,4.486,0,0
-0.005148894,-0.020351114,0.00530242,-0.0016696226000000002,-0.0005132679999999999,4.487,0,0
-0.0033750198,-0.014871734000000001,0.009574972000000001,-0.001162317,0.0005841920000000001,4.488,0,0
-0.0010025377999999998,-0.00686841,0.015046804,-0.00035023100000000006,0.002663524,4.489,0,0
0.0017419622000000002,-0.001131114,0.021925472,0.00022497099999999994,0.003989412,4.49,0,0
0.0039562322,0.000995812,0.028193048,0.0004422928,0.00414638,4.491,0,0
0.0065158502,0.0006928780000000003,0.02858572,0.00038325219999999996,0.00456284,4.492,0,0
0.008474286000000001,6.676120000000001e-05,0.020968920000000002,-0.00015919680000000001,0.0044730740000000005,4.493,0,0
0.00799943,0.0008752392000000001,0.00864432,-0.00047418680000000003,0.0026425320000000004,4.494,0,0
0.0062081346,0.0027680231999999997,-0.004497760000000001,-0.00043581180000000003,0.0007533140000000002,4.495,0,0
0.004067594600000001,0.0051779632,-0.012007050000000002,-0.0008063476,-0.0006287700000000001,4.496,0,0
0.0009583706000000003,0.0064796432,-0.009112470000000001,-0.0011795160000000002,-0.0024975,4.497,0,0
-0.0030288814000000003,0.00599766,-0.0014244700000000006,-0.0012042918000000002,-0.004305420000000001,4.498,0,0
-0.0053494774,0.004597628,0.005878850000000001,-0.0011557590000000001,-0.004274312000000001,4.499,0,0
-0.006648358,0.0028373700000000005,0.00704699,-0.0009012420000000001,-0.00381742,4.5,0,0
-0.0076882,0.0017779560000000002,-0.0017054599999999998,9.77179999999999e-05,-0.00379817,4.501,0,0
-0.006606488,0.002970324,-0.01257446,0.0012333040000000002,-0.002442628,4.502,0,0
-0.004075560000000001,0.004830124,-0.01921458,0.0018655928000000002,-0.0009798659999999998,4.503,0,0
-0.0022300522000000002,0.004865376,-0.02117388,0.0017803904,-0.00016673200000000006,4.504,0,0
-0.0006743662,0.00356697,-0.016519072,0.0014726688,0.000537008,4.505,0,0
0.0024639058,0.0005928579999999999,-0.008171438000000001,0.0011068556000000001,0.002178786,4.506,0,0
0.0038997918000000004,-0.00232756,-0.0019834979999999993,0.0005616772000000001,0.002608018,4.507,0,0
0.0050271498,-0.004717702000000001,0.0023484000000000005,0.0006417252000000001,0.0013952359999999998,4.508,0,0
0.005661340000000001,-0.008320504,0.00793066,0.0011406588,0.001844312,4.509,0,0
0.002776568000000001,-0.009285844,0.017295332000000004,0.0017827324000000001,0.0035707780000000006,4.51,0,0
0.002110232,-0.005741454,0.029851138000000003,0.0026793916,0.005442324,4.511,0,0
0.00550475,-0.001462876,0.038645838,0.0031852400000000006,0.008182758,4.512,0,0
0.009211384,0.0028855060000000004,0.04087302,0.0027585168,0.011894446,4.513,0,0
0.014542302,0.008236166000000001,0.03337764,0.0020428748000000004,0.01302083,4.514,0,0
0.023230502,0.010458596,0.009539099999999998,0.0007625247999999997,0.011515676,4.515,0,0
0.026287820000000003,0.009720858,-0.020004599999999997,-0.0011331312,0.0076555139999999995,4.516,0,0
0.0214934476,0.008510602,-0.03839842,-0.0028164432,0.0012860939999999998,4.517,0,0
0.013610887599999998,0.006502230000000001,-0.04436074,-0.004176746,-0.004891726,4.518,0,0
0.0022844675999999994,0.005559346000000001,-0.04087268,-0.00467796,-0.011009596,4.519,0,0
-0.011423332400000001,0.005558966,-0.026333198000000002,-0.004304212,-0.016453642,4.52,0,0
-0.024042752400000002,0.004701185600000001,-0.008981814,-0.0035690202000000005,-0.01938234,4.521,0,0
-0.03285474000000001,0.0020487416,0.0008981700000000001,-0.0021627962000000003,-0.01973564,4.522,0,0
-0.039254540000000004,-0.0015190264,0.0051105379999999995,-0.0004818462,-0.018682260000000006,4.523,0,0
-0.0412184,-0.0050287224,0.0062433820000000004,0.0004699252,-0.015030566000000002,4.524,0,0
-0.036925519999999996,-0.0077553684000000005,0.006368948,0.0012497772000000002,-0.008828456000000002,4.525,0,0
-0.028581232,-0.009065854000000002,0.010454864000000001,0.0019651294,-0.002612276,4.526,0,0
-0.017131372,-0.009267124000000002,0.016870899999999998,0.0018723026000000004,0.0037515840000000005,4.527,0,0
-0.0027289720000000005,-0.008756404000000002,0.020904331999999998,0.0018791046000000001,0.010403804000000001,4.528,0,0
0.011960128,-0.0074083840000000005,0.022162507999999997,0.0025232572,0.01513127,4.529,0,0
0.023283108,-0.004810022,0.015603399999999996,0.0025155812000000003,0.0171145,4.53,0,0
0.03173836000000001,-0.0016761059999999997,3.5759999999995795e-05,0.0020706972000000003,0.0177548,4.531,0,0
0.0365975,0.0020510640000000004,-0.014780080000000001,0.0015710140000000001,0.01611682,4.532,0,0
0.03527704,0.005915524,-0.0241974,0.0003504860000000001,0.010773440000000002,4.533,0,0
0.029058580000000004,0.007851596,-0.027916012000000004,-0.001268614,0.00415474,4.534,0,0
0.020161392000000004,0.007668520000000001,-0.021011150000000003,-0.00253662,-0.002079680000000001,4.535,0,0
0.008072412,0.006320198000000001,-0.006959310000000002,-0.0031011199999999997,-0.00854702,4.536,0,0
-0.005072348000000001,0.004217452,0.0036772700000000007,-0.00298274,-0.013305500000000001,4.537,0,0
-0.015169668,0.0021056119999999998,0.008880628,-0.0024316560000000004,-0.014743880000000003,4.538,0,0
-0.022992848,0.000599522,0.0093877032,-0.0017543498,-0.01419742,4.539,0,0
-0.02904288,-0.00062886,0.006464801200000001,-0.0010133592,-0.012423622,4.54,0,0
-0.03034224,-0.0022874139999999998,0.0025062012000000005,-0.00019931920000000006,-0.008259516,4.541,0,0
-0.02666388,-0.003961658,-0.0008457327999999999,0.0006105708,-0.0027314560000000006,4.542,0,0
-0.020517368,-0.004935078000000001,-0.0028023568,0.0010664008000000002,0.002028604,4.543,0,0
-0.011488448,-0.00648556,-0.00339989,0.0014740886000000001,0.006890424000000001,4.544,0,0
0.00039783200000000074,-0.008610904,-0.0029793320000000003,0.0022489420000000003,0.011500566,4.545,0,0
0.011356932,-0.008681012000000002,-0.002458398,0.002562162,0.01358508,4.546,0,0
0.019630652000000002,-0.007009658,-0.0019393778,0.0018553636,0.013460759999999999,4.547,0,0
0.025636040000000002,-0.004903262,-0.0019091718000000001,0.0012743716000000003,0.012841402,4.548,0,0
0.028050540000000002,-0.0019819900000000003,-0.0018216958000000002,0.0005788596,0.010200218,4.549,0,0
0.025507020000000002,0.0012010274,-0.0015011878000000002,-0.0010746884,0.005272337999999999,4.55,0,0
0.0195637682,0.0033413234,-0.0003900357999999999,-0.0022799564000000002,0.0011093599999999993,4.551,0,0
0.0115637422,0.0032760674,0.002402818,-0.0025797260000000005,-0.002885822,4.552,0,0
0.0015194021999999992,0.001976299,0.007062038,-0.002635774,-0.007658244,4.553,0,0
-0.008340537800000002,0.0010323408,0.012169532,-0.002130874,-0.01050698,4.554,0,0
-0.0156655578,0.0006740054,0.020535526,-0.0009405940000000001,-0.010911854,4.555,0,0
-0.020671046000000002,0.0008827514,0.036455800000000003,2.324799999999991e-05,-0.010949276,4.556,0,0
-0.02336186,0.0023902014,0.04862338,0.000828236,-0.009630762,4.557,0,0
-0.02227112,0.004756793800000001,0.04728062,0.001862616,-0.005646132000000001,4.558,0,0
-0.017697714,0.006514390000000001,0.03486986000000001,0.00273637,-0.0012010180000000003,4.559,0,0
-0.011524844000000001,0.007158848000000001,0.009547720000000006,0.0032106120000000003,0.0026254019999999998,4.56,0,0
-0.004026063999999999,0.0052629239999999996,-0.026201879999999997,0.0031741,0.006822542,4.561,0,0
0.0045200760000000005,0.0013595859999999999,-0.0543735,0.0029253084,0.010383110000000001,4.562,0,0
0.012007896,-0.0038410340000000005,-0.06438694,0.0019103723999999997,0.011212402,4.563,0,0
0.017635610000000003,-0.008793204000000002,-0.05985684000000001,0.00021959439999999996,0.010455656,4.564,0,0
0.022153680000000002,-0.010281726000000001,-0.04426640800000001,-0.0005938450000000001,0.009321346000000001,4.565,0,0
0.023893300000000003,-0.008823544000000001,-0.025627372,-0.0011595986000000002,0.006061926000000001,4.566,0,0
0.021150750000000003,-0.00573188,-0.012486752,-0.002127249,0.001751884,4.567,0,0
0.015874316000000003,-0.0013590900000000012,-0.0037137560000000003,-0.002334611,-0.00147439,4.568,0,0
0.008528676,0.003637578,0.003463684,-0.001919239,-0.004999458,4.569,0,0
-0.0006800840000000005,0.0069499,0.009552712000000001,-0.0019315658000000004,-0.008732994,4.57,0,0
-0.008568504000000001,0.007082194000000001,0.014606376,-0.0017008496000000001,-0.009938778000000002,4.571,0,0
-0.014357614000000001,0.004062422000000001,0.014366592000000001,-0.0005203835999999999,-0.00947535,4.572,0,0
-0.018531360000000004,0.0004471519999999997,0.009562436,0.00046432640000000007,-0.009451132,4.573,0,0
-0.019767020000000003,-0.0020913060000000002,0.00464787,0.0007912092,-0.008054774,4.574,0,0
-0.01721587,-0.004418686000000001,-8.001999999999765e-06,0.0009450564,-0.004874876,4.575,0,0
-0.012987076000000002,-0.004543292,-0.0027776619999999993,0.0010545630000000001,-0.002261646,4.576,0,0
-0.008109050000000001,-0.002276886,6.760200000000081e-05,0.001172995,0.0002007360000000002,4.577,0,0
-0.0012762100000000003,0.00117919,0.0068491820000000005,0.001433211,0.00390873,4.578,0,0
0.006139110000000001,0.0054167,0.012917108,0.0012304522,0.006814776000000001,4.579,0,0
0.011361300000000001,0.008450800000000001,0.019697680000000002,0.0007040292000000001,0.0077909680000000005,4.58,0,0
0.015115146,0.008998378000000001,0.0261136,0.0006530163999999999,0.008423644000000001,4.581,0,0
0.01892608,0.0086669034,0.028785700000000004,4.619459999999996e-05,0.008085318000000001,4.582,0,0
0.0191154,0.0068288814,0.024169770000000004,-0.0011319654,0.0057187476,4.583,0,0
0.01498199314,0.0017479954,0.01354191,-0.0014246034000000001,0.0027696556000000004,4.584,0,0
0.00977480914,-0.0034239846,0.0010218700000000011,-0.0011724774,0.00014124160000000027,4.585,0,0
0.0031172091400000013,-0.0047578446,-0.01327881,-0.0015469358000000002,-0.0032243304,4.586,0,0
-0.00497069086,-0.0046337332,-0.02195779,-0.0018794420000000003,-0.0065793524,4.587,0,0
-0.011523150860000001,-0.0059015712000000005,-0.021616634000000003,-0.0014139042000000002,-0.007965159999999999,4.588,0,0
-0.015156903999999999,-0.0054514112,-0.017072776000000005,-0.0010426022,-0.008273842,4.589,0,0
-0.01748454,-0.003183487,-0.010600690000000001,-0.0011647462,-0.008130366,4.59,0,0
-0.01753658,-0.0016327590000000001,-0.0047909476000000005,-0.0010195488000000002,-0.0060544480000000005,4.591,0,0
-0.014293384000000001,4.380420000000044e-05,-0.0026032396,-0.00012794280000000003,-0.002753142,4.592,0,0
-0.009636516000000001,0.0031345702000000007,-0.00034340360000000014,0.0007905093999999999,-0.000248582,4.593,0,0
-0.004896642,0.0041000842000000004,0.0049020584,0.0014094714,0.002531526,4.594,0,0
1.3297999999999262e-05,0.0008207800000000006,0.0059191784,0.0019087076000000001,0.005793154,4.595,0,0
0.004517138,-0.0026977119999999997,0.0024523359999999994,0.0021732458000000006,0.007021608,4.596,0,0
0.007527661999999999,-0.003957832,0.0006000679999999992,0.0018805890000000002,0.0068030420000000005,4.597,0,0
0.009909033999999999,-0.0040782380000000005,-0.0009188456000000008,0.000694541,0.0068575200000000015,4.598,0,0
0.01151588,-0.0031393180000000003,-0.0036980575999999996,-0.0005242770000000001,0.005822608000000001,4.599,0,0
0.011241562,0.00041944,-0.0036701815999999996,-0.0014010332000000002,0.003079674,4.6,0,0
0.009362221200000001,0.0032794039999999997,0.00020959840000000005,-0.0018620488,0.0006572940000000001,4.601,0,0
0.006219917200000001,0.0029621098,0.0007515984000000002,-0.0018349674000000004,-0.0013451740000000002,4.602,0,0
0.0012336171999999999,0.0015178718000000001,-0.0032246100000000006,-0.0015819470000000002,-0.0038331700000000003,4.603,0,0
-0.004229002800000001,-0.0001273581999999998,-0.006889878,-0.0008107248000000001,-0.005537424000000001,4.604,0,0
-0.0080639248,-0.0014910342,-0.010026556,-0.0003149248,-0.0058615260000000015,4.605,0,0
-0.010391204000000001,-0.0022204254,-0.011522380000000002,-0.00016499699999999995,-0.005693128,4.606,0,0
-0.011411042000000001,-0.0019001991999999998,-0.008902485,0.0005476904000000001,-0.005123654,4.607,0,0
-0.010458016000000002,-0.0007291471999999998,-0.004193805,0.0012775260000000002,-0.0035292196000000003,4.608,0,0
-0.007437044000000001,0.0017207548000000004,-0.00025937699999999987,0.0015428638000000003,-0.0016065156000000008,4.609,0,0
-0.0042279660000000005,0.0045266348,0.004538139,0.0021064438000000007,-3.697760000000009e-05,4.61,0,0
-0.0012019040000000002,0.005812752000000001,0.011587283,0.0022220720000000003,0.0018072684,4.611,0,0
0.002155374,0.006644562000000001,0.019121488,0.0012405388,0.0037297104,4.612,0,0
0.00466514,0.006458878,0.021332928000000004,0.0008759448000000001,0.00481995,4.613,0,0
0.0060078119999999995,0.004203438,0.015312319999999997,0.0007492068,0.005146736,4.614,0,0
0.007796814000000001,0.0022359784000000006,0.007365740000000002,0.0001282528000000001,0.0053543340000000005,4.615,0,0
0.009194252,0.00021384239999999992,0.0003542039999999999,-0.00016178119999999996,0.004573310000000001,4.616,0,0
0.00836741,-0.0036782576,-0.0073043986,-0.000548736,0.0025584360000000003,4.617,0,0
0.007111050199999999,-0.0058805816,-0.0098727106,-0.0012533499999999999,0.0010304840000000003,4.618,0,0
0.004802258199999999,-0.005940605600000001,-0.004776352600000001,-0.0015511295999999998,-0.000398146,4.619,0,0
0.00013287819999999997,-0.007244322,-0.0008784866000000001,-0.0012125514,-0.0024068320000000002,4.62,0,0
-0.004112901800000001,-0.0073945980000000005,-0.0019261906000000001,-0.0005971634000000001,-0.003503562,4.621,0,0
-0.0062696058,-0.005483058000000001,-0.005007028,-0.0001557372,-0.0036295140000000004,4.622,0,0
-0.008173456,-0.005315518000000001,-0.008430956,-0.0001745472,-0.003994778,4.623,0,0
-0.00940142,-0.005992684000000001,-0.010391282,-0.0003185016,-0.0037558780000000003,4.624,0,0
-0.0075997799999999996,-0.004755233200000001,-0.010409946,-0.00032614540000000004,-0.002300696,4.625,0,0
-0.004778258,-0.0015381712000000001,-0.0082394882,-0.0006885438000000001,-0.0014167989999999998,4.626,0,0
-0.0024431599999999998,0.0030945688,-0.0037758582,-0.0006941326000000001,-0.000680181,4.627,0,0
0.0015650180000000007,0.0092902068,0.0014853218,6.779539999999997e-05,0.001152699,4.628,0,0
0.006153550000000001,0.0159634968,0.0066111498000000005,0.0004988354,0.002547915,4.629,0,0
0.007776944000000001,0.018651300000000003,0.012677907799999999,0.0003339466,0.0026450650000000003,4.63,0,0
0.007823944000000001,0.014780958,0.02052091,0.00048799,0.002882568,4.631,0,0
0.008466982000000001,0.006150258,0.03067918,0.0008535366,0.003682592,4.632,0,0
0.007340686000000001,-0.002624742,0.0440163,0.00050965476,0.0026224038,4.633,0,0
0.004805451600000001,-0.008270650000000001,0.050413700000000006,0.00044037896,0.0005351238000000003,4.634,0,0
0.0037122645999999996,-0.010962872000000002,0.03931632,0.00080160136,-0.00033138619999999966,4.635,0,0
0.0021930366,-0.010607374000000001,0.014616340000000002,0.0005601857599999999,-0.0013821022,4.636,0,0
-0.0013563074000000003,-0.006998872,-0.0178021,0.00024327375999999996,-0.0029736802000000003,4.637,0,0
-0.0041818954,-0.003940398,-0.05049518,0.0005298155999999999,-0.0030362778,4.638,0,0
-0.0052696670000000004,-0.003914868,-0.06845498,0.0008002434,-0.0018144058000000001,4.639,0,0
-0.006542976000000001,-0.003944398,-0.06416561600000001,0.0010918574,-0.0011838456000000002,4.64,0,0
-0.006870750000000001,-0.003295816,-0.046780316,0.001571272,0.0002060104,4.641,0,0
-0.005177732,-0.003038708,-0.024516839999999998,0.0014319798,0.0019555724,4.642,0,0
-0.003984948,-0.0032480520000000004,-0.006172749999999999,0.0009176698000000001,0.0020663862,4.643,0,0
-0.0036173240000000008,-0.0038366220000000005,0.000832368,0.0002767718000000001,0.0020031902000000002,4.644,0,0
-0.002014918,-0.004440496,0.001384104,-0.0005223282000000001,0.002546778,4.645,0,0
2.8119999999999968e-05,-0.004379084,0.0009177240000000002,-0.0010656482000000003,0.002178902,4.646,0,0
0.0009703240000000001,-0.002957284,0.001202222,-0.001143642,0.001306079,4.647,0,0
0.002648072,-0.0003065100000000003,0.003105732,-0.001174156,0.001369205,4.648,0,0
0.004855796000000001,0.003260798,0.010455494000000001,-0.001416418,0.0013182194,4.649,0,0
0.00512555,0.007302624000000001,0.022964274,-0.0016618499999999999,0.0005129112,4.65,0,0
0.004464442,0.010791074000000001,0.034815674000000005,-0.0017843020000000002,-0.00011570880000000001,4.651,0,0
0.0038902992,0.011759070000000002,0.03926512,-0.0019100360000000002,-0.0005069858000000001,4.652,0,0
0.0017602552000000001,0.009950648000000003,0.030084299999999994,-0.0020508040000000003,-0.0011125618,4.653,0,0
-0.0010669048,0.006609614000000001,0.012679720000000004,-0.0016395184,-0.0016193181999999999,4.654,0,0
-0.0023161068,0.0029469120000000003,-0.0038132199999999974,-0.0009246424000000002,-0.001634676,4.655,0,0
-0.0030265768,-0.00037778000000000014,-0.01787474,-0.00044326460000000017,-0.0015748880000000002,4.656,0,0
-0.003686314,-0.0028180720000000005,-0.025171146000000005,-9.477200000000005e-06,-0.00192171,4.657,0,0
-0.0024441172,-0.0032156160000000006,-0.019353935800000003,0.0005987208,-0.0017585060000000002,4.658,0,0
-0.0003173872000000001,-0.0026912660000000003,-0.0088190998,0.0009446712,-0.0011243760000000003,4.659,0,0
0.0008209048,-0.001970954,-0.004143429800000001,0.0006705742000000001,-0.0010402408,4.66,0,0
0.0029614468000000002,0.00029334200000000026,-0.0031025278,0.0005361015,-0.0005176110000000001,4.661,0,0
0.0063184028,0.004241108,-0.0034576118,0.0005816995,0.0006351990000000001,4.662,0,0
0.0075872380000000005,0.007030050000000001,-0.0033422536,0.0006826615,0.001164971,4.663,0,0
0.0064827082,0.007003324000000001,-0.0016340456000000004,0.0009764735,0.001331999,4.664,0,0
0.0055038922,0.0058206279999999996,0.0004888404000000001,0.0011559693,0.0017395918,4.665,0,0
0.0040606302,0.00319891,0.0025278944000000003,0.0009590404,0.0011823860000000001,4.666,0,0
0.0008673322,-0.0017663580000000004,0.0016179443999999998,0.0006386768,0.00012360799999999999,4.667,0,0
-0.0013886198,-0.005600812,-0.0015651839999999998,0.0002601957999999999,-0.00034829839999999995,4.668,0,0
-0.0019491360000000002,-0.006161334,-0.0021733679999999997,-0.0007043782000000001,-0.0012294764,4.669,0,0
-0.003513468,-0.006131854000000001,8.775600000000047e-05,-0.0010336990000000001,-0.0022139684000000003,4.67,0,0
-0.005667338,-0.0055467652000000004,0.003524440000000001,-0.0005494052,-0.0022324864000000002,4.671,0,0
-0.0064045180000000005,-0.0037308236,0.00901318,-0.0005366808,-0.0017174866,4.672,0,0
-0.006660906,-0.0025510316000000002,0.013737384000000002,-0.0006765658,-0.0020059622,4.673,0,0
-0.006808714,-0.0022363856000000002,0.015867864,-0.00028054248000000003,-0.0021096922000000003,4.674,0,0
-0.005474458,-0.0025170115999999998,0.016819204,5.656452000000002e-05,-0.0008800662000000002,4.675,0,0
-0.0038656340000000006,-0.0034163724,0.015511904000000002,-8.253479999999983e-06,3.107580000000004e-05,4.676,0,0
-0.0028247334000000004,-0.0037764540000000003,0.0126699204,8.904011999999998e-05,0.00019121119999999993,4.677,0,0
-0.0012306474000000002,-0.0032348298,0.009534972399999998,0.00026928412,0.0009332712000000001,4.678,0,0
0.0003590245999999999,-0.0021316458,0.003482312399999999,0.00047809880000000004,0.0018155252000000002,4.679,0,0
0.0009146796,-0.0005177057999999999,-0.006470547600000001,0.00028959419999999997,0.0018068792,4.68,0,0
0.0012908484,0.0011862122,-0.015491107600000002,-0.00013871360000000004,0.0019926232000000003,4.681,0,0
0.0022982178000000002,0.0029212122000000004,-0.020325364000000005,-0.0002815454,0.0026741140000000004,4.682,0,0
0.0025274038000000004,0.0047668020000000005,-0.021787960000000002,-0.0008296174000000001,0.002098214,4.683,0,0
0.0021435238000000003,0.006281428,-0.02080994,-0.0015259474,0.0007038300000000001,4.684,0,0
0.0030166848000000002,0.007411610000000001,-0.016696549999999998,-0.0012600598,0.0004131540000000001,4.685,0,0
0.0037562520000000007,0.00777582,-0.009715664,-0.0007701380000000001,7.122200000000002e-05,4.686,0,0
0.0027508830000000004,0.006237472799999999,-0.0031943559999999998,-0.00020223600000000006,-0.0008374333999999999,4.687,0,0
0.001700929,0.0038273988,0.0009887359999999996,0.0009690940000000001,3.700460000000008e-05,4.688,0,0
0.0013164088,0.0020062486000000006,0.0037329140000000004,0.0019586020000000003,0.0018540006,4.689,0,0
0.00027800359999999996,0.0004704541999999999,0.005674622000000001,0.002162844,0.0018440086000000003,4.69,0,0
-0.0007727082000000001,-0.0006480834,0.007079776,0.0017603258000000001,0.0016465546000000001,4.691,0,0
-0.0003479352000000001,-0.0005584044,0.008094388000000001,0.0012855126,0.002164182,4.692,0,0
-8.112060000000002e-05,-0.0003628924,0.008260026,0.0004960964,0.00105139,4.693,0,0
-0.0008947344000000001,-0.0027541662000000002,0.007181698000000001,-0.000197892,-0.0006726300000000001,4.694,0,0
-0.0011784272000000002,-0.0065045018000000005,0.004270432000000001,-0.000396416,-0.001136492,4.695,0,0
-0.0012909734000000003,-0.0083205082,0.00045514200000000083,-0.0002616308,-0.0015545280000000001,4.696,0,0
-0.0022461954000000004,-0.008534704,-0.001799536,-0.00018703039999999995,-0.0024079800000000005,4.697,0,0
-0.0027273660000000006,-0.007868478000000002,-0.00208868,-8.067319999999998e-05,-0.002094152,4.698,0,0
-0.0018720310000000003,-0.004715496,-0.0016523697999999997,0.00018577840000000008,-0.0013388554,4.699,0,0
-0.0018896510000000002,-0.000272152,-0.0007297957999999998,-4.19296e-05,-0.0018734174000000002,4.7,0,0
-0.0023570290000000005,0.0022577200000000004,-2.2785799999999615e-05,0.0004943774,-0.0019856234,4.701,0,0
-0.0014796790000000002,0.0030837420000000004,0.0006254682000000002,0.0010711282,-0.0008329074000000003,4.702,0,0
-0.001049975,0.0028053518,0.0031116022000000007,0.0008153632,-0.00045576700000000015,4.703,0,0
-0.001414,0.0017297974,0.006758862000000001,0.001029636,-0.0005161496,4.704,0,0
-0.00051834,0.0013882194000000001,0.009855716,0.0009910278,0.00037462439999999986,4.705,0,0
0.0005699440000000002,0.0012592734,0.01087619,0.00024921139999999997,0.0005488798,4.706,0,0
0.00012180400000000007,0.000598075,0.008411674000000001,-0.00012675000000000002,-0.0009131082,4.707,0,0
0.0007415520000000001,0.0004259243999999999,0.004009127999999999,0.00016895480000000002,-0.0016543246000000002,4.708,0,0
0.002389752,0.0005656748000000001,-0.0018853520000000003,-0.0003069142,-0.0017548466,4.709,0,0
0.00244247,-0.00014883120000000005,-0.009423972000000001,-0.0008873180000000001,-0.0026411866,4.71,0,0
0.0021663628,-0.0014662412000000001,-0.015232866000000001,-0.0009298556,-0.0025019514,4.711,0,0
0.0028958628,-0.0022178308,-0.016904586000000003,-0.0010702222,-0.0013396414,4.712,0,0
0.0026099748,-0.0015024220000000002,-0.014097352,-0.0011887718,-0.0010790254,4.713,0,0
0.0013182443999999998,0.00303716,-0.005967831999999999,-0.0011469564,-0.0008450822000000001,4.714,0,0
0.0012482164,0.00891214,0.007656868,-0.00043529039999999993,0.0007173418,4.715,0,0
0.0007066676,0.010897746000000002,0.019354708,-0.0002530598,0.0017339372000000001,4.716,0,0
-0.0012366244,0.009990982000000002,0.016754348000000002,-0.0006384877999999999,0.0016074352,4.717,0,0
-0.0023082804,0.006114318,0.003292360000000001,-0.0006279126,0.0024496172,4.718,0,0
-0.002964172,-0.0023422619999999995,-0.00830144,-0.0004585236,0.003207952,4.719,0,0
-0.004547642,-0.010923661999999999,-0.017982136000000003,-0.0006553476,0.00242651638,4.72,0,0
-0.005054556,-0.014357102000000002,-0.023806080000000004,-0.0006388702,0.00195335838,4.721,0,0
-0.0036988978,-0.014157262,-0.016414378000000004,-5.675319999999998e-05,0.00255103838,4.722,0,0
-0.0024359098,-0.011977344,-0.001589738000000002,0.00010890428000000003,0.0023584223799999996,4.723,0,0
-0.0017114759999999998,-0.008579154,0.0077412620000000005,2.1305680000000048e-05,0.0017852317799999999,4.724,0,0
-0.00035091200000000004,-0.005800938,0.012353938,0.00020774528000000008,0.0021948654,4.725,0,0
0.0006991958,-0.004098836000000001,0.015081081999999999,0.0005205412800000001,0.0020718754,4.726,0,0
-8.639040000000002e-05,-0.0031772700000000003,0.01474834,0.00096125628,0.0010862686,4.727,0,0
-0.0007930924000000002,-0.0016216740000000005,0.012460578,0.0013490304,0.0006827856,4.728,0,0
-0.0005713702000000001,-0.00029497,0.011644717999999998,0.0012850598000000001,0.00037909419999999997,4.729,0,0
-0.0010514262000000001,0.0009428020000000002,0.015595038,0.0013962682,-0.0008286098000000001,4.73,0,0
-0.000972481,0.004303380000000001,0.021115398,0.0017684902,-0.0019232378000000002,4.731,0,0
0.001391559,0.009157855999999999,0.022906438,0.0020769602,-0.0019920958,4.732,0,0
0.0027726929999999997,0.011510542,0.01622354,0.0021872502,-0.0023336048,4.733,0,0
0.001980089,0.009695106,-0.0009644000000000007,0.0024237114,-0.0027165048,4.734,0,0
0.0020398414,0.0068928340000000005,-0.02281706,0.0022783192,-0.0018192664000000003,4.735,0,0
0.002027469,0.0034587919999999996,-0.03914588,0.0012376672,-0.0008908764000000001,4.736,0,0
0.0005378192600000001,-0.0013364099999999997,-0.04297808000000001,-8.759479999999992e-05,-0.0008617904000000002,4.737,0,0
0.0003103592599999999,-0.0048742640000000005,-0.033985720000000004,-0.0011331728,-0.0002337024,4.738,0,0
0.00230477726,-0.004999264,-0.018056032,-0.0018011102,0.0011469256000000002,4.739,0,0
0.0038234548599999996,-0.0030286958000000004,-0.004773882000000001,-0.0023908460000000003,0.0014996172,4.74,0,0
0.00502804626,-0.0005289197999999999,0.0002458780000000006,-0.0023837980000000003,0.0018606232000000001,4.741,0,0
0.006941028,0.0023863622,-0.002228922,-0.00252572,0.0025671060000000004,4.742,0,0
0.006810532,0.005443096200000001,-0.006597258000000001,-0.0026403140000000004,0.0020261260000000005,4.743,0,0
0.004459772000000001,0.0086901782,-0.008092386,-0.0024851840000000005,0.0009883640000000003,4.744,0,0
0.00277936,0.011173074000000002,-0.004971920000000001,-0.0022536680000000003,0.0004690498000000001,4.745,0,0
0.0015023444000000002,0.012131479999999998,0.0014925199999999994,-0.0016016780000000003,-0.0002746176,4.746,0,0
-0.0011322416000000002,0.009981953800000002,0.00798742,-0.0009842832,-0.0010568116,4.747,0,0
-0.0037217476000000003,0.0036570138,0.013508176,-0.00031705362,-0.0011461476,4.748,0,0
-0.0049599216,-0.0033206662,0.018686856,0.00019151058000000003,-0.0018450476,4.749,0,0
-0.006586725599999999,-0.0081390862,0.020693760000000002,0.00010425658000000007,-0.0030350114,4.75,0,0
-0.008124368,-0.010792556600000001,0.02089916,-0.00042591342,-0.0035584280000000006,4.751,0,0
-0.007620618000000001,-0.0102808124,0.02431426,-0.00035629662,-0.0031212680000000004,4.752,0,0
-0.005757640200000001,-0.006246264600000001,0.025399440000000002,-0.00022518699999999998,-0.002449358,4.753,0,0
-0.0034350848,-0.0011565368000000004,0.02375306,0.00014350680000000011,-0.001249848,4.754,0,0
-0.0002699048000000001,0.0020551032,0.018818432,0.0013425428000000002,0.0010368159999999999,4.755,0,0
0.0028189132,0.0033101096000000005,0.003832611999999999,0.0017554112000000002,0.002456544,4.756,0,0
0.0043882912,0.0039781916,-0.013081308,0.0015743896,0.002556292,4.757,0,0
0.0050872114000000005,0.0037680174000000004,-0.023848547999999997,0.0016451184000000002,0.002786404,4.758,0,0
0.0046933439999999995,0.0021403156,-0.032804587999999996,0.001318044,0.0029045600000000005,4.759,0,0
0.00268968,-0.0018276843999999997,-0.035554699999999995,0.0006652064,0.0015661,4.76,0,0
0.0008877859999999999,-0.0072934004,-0.026332372000000003,0.0004272092,0.000603304,4.761,0,0
0.0003203339999999999,-0.010615060400000001,-0.016780114,0.000506818,0.000572492,4.762,0,0
-5.711400000000025e-05,-0.010352634800000001,-0.011277462000000002,0.0008170520000000001,-0.000341912,4.763,0,0
-0.00033851799999999995,-0.007674228800000001,-0.005563842000000001,0.0010968344000000002,-0.000864136,4.764,0,0
0.00012384000000000012,-0.0031956868,-0.00235251,0.0009997306,-0.000276812,4.765,0,0
0.0002622382000000002,0.0012995591999999997,-0.001454632,0.0008223234000000002,-0.000472258,4.766,0,0
-0.0005664629999999999,0.0035795792000000003,-0.00044378600000000027,0.00046429460000000007,-0.00130296,4.767,0,0
-0.00038049099999999995,0.005338252,0.003354002,-0.0002793434,-0.0006778737999999999,4.768,0,0
0.001481801,0.00725022,0.012047882,-0.0008461634000000001,-0.00012427979999999998,4.769,0,0
0.002884555,0.008375118,0.02300523,-0.0009930988000000003,-0.0007990317999999999,4.77,0,0
0.0040119248,0.00995999,0.031002384,-0.0008707078,-0.0004239978,4.771,0,0
0.005705162,0.01035016,0.033994460000000004,-0.0009262958,0.0006613282,4.772,0,0
0.006434782000000001,0.0074583159999999996,0.030939856,-0.0012679218,0.0005214644,4.773,0,0
0.005134132600000001,0.0023330680000000006,0.018481896,-0.0014736458,-0.0003107156,4.774,0,0
0.0035372986,-0.003696072,0.001974535999999999,-0.001762875,-0.00043619759999999997,4.775,0,0
0.0023271918000000004,-0.00787573,-0.008475704,-0.001860742,-0.0009215995999999999,4.776,0,0
-1.4534199999999926e-05,-0.0084151364,-0.013186224000000002,-0.0014590535999999999,-0.0022179696000000004,4.777,0,0
-0.0021793562,-0.006762674399999999,-0.015476816000000003,-0.0010757108,-0.0024628228,4.778,0,0
-0.0032332828,-0.004353630399999999,-0.012462328000000002,-0.0006378468,-0.0024507648,4.779,0,0
-0.0046639288,-0.0007302424,-0.007596678000000001,-0.0002370788,-0.0031572988000000005,4.78,0,0
-0.006762456,0.0019047676000000001,-0.010016098000000001,-0.0003613008,-0.0033617308,4.781,0,0
-0.007905272,0.0018565338000000003,-0.016638458000000002,-7.033519999999994e-05,-0.0023507008,4.782,0,0
-0.008273146,0.0019452298000000004,-0.019445842,0.0007893820000000001,-0.001581924,4.783,0,0
-0.008571788,0.0025305018000000004,-0.019013600600000003,0.0013269140000000002,-0.000745318,4.784,0,0
-0.007244124,0.0029967478000000004,-0.016799142599999997,0.001615328,0.0015793159999999999,4.785,0,0
-0.0049254448000000004,0.0033540158,-0.009880028600000002,0.0015808740000000003,0.00326526,4.786,0,0
-0.0034630128000000004,0.0018631160000000002,-0.0009757405999999997,0.000983154,0.003526604,4.787,0,0
-0.0022494534000000004,-0.0014641700000000003,0.0037913154,0.00038820240000000006,0.0037004340000000003,4.788,0,0
1.0022600000000144e-05,-0.0038346940000000005,0.00530476,0.0002621924,0.004118818,4.789,0,0
0.0016036566,-0.005417164,0.0071338320000000005,0.0004095684000000001,0.0033554460000000006,4.79,0,0
0.0019170534,-0.007303942000000001,0.008950998000000002,0.0008853498,0.0023052462000000004,4.791,0,0
0.0032375194,-0.0070264540000000006,0.01005961,0.0012826822000000001,0.0018742374000000003,4.792,0,0
0.00423373,-0.004764778000000001,0.010840228,0.001085753,0.0005710894,4.793,0,0
0.0033769802,-0.0033292998000000002,0.010141638000000001,0.0006347922,-0.0007710005999999999,4.794,0,0
0.0026020562000000002,-0.0026439966000000007,0.0076505896,0.0002083767,-0.001254079,4.795,0,0
0.0024656122,-0.0012597046000000001,0.0043079696,-0.0004153307,-0.0014491352,4.796,0,0
0.0013750334,0.0005738634,0.0014779575999999996,-0.0007500515000000001,-0.0018593564,4.797,0,0
0.0004942384000000001,0.0023943494,-0.0008982244000000001,-0.0005565043,-0.0014762108000000002,4.798,0,0
0.0012741042000000001,0.0047506672,-0.0022059284000000004,-0.0006396115,-0.0005096428000000001,4.799,0,0
0.0016116702000000002,0.00706508,-0.0013295080000000003,-0.000848304,-8.49844e-05,4.8,0,0
0.0017956302,0.00803177,0.00030902800000000025,-0.0005071658,0.0004152318,4.801,0,0
0.003479705,0.008454218,0.0004052780000000002,-4.824540000000001e-05,0.0013864938000000002,4.802,0,0
0.004710968,0.008410072000000001,0.0005088140000000004,-3.087960000000003e-05,0.0022394122,4.803,0,0
0.004732588,0.0069524520000000005,0.002046300000000001,0.00014564619999999994,0.0026037782000000002,4.804,0,0
0.00554914,0.00549271,0.0027836980000000002,0.0005901722,0.0028618682,4.805,0,0
0.006453274,0.00492562,0.008697362000000002,0.0006578838,0.002553822,4.806,0,0
0.005893746,0.004588722,0.024084844,5.352779999999994e-05,0.001231396,4.807,0,0
0.005485834,0.002153258,0.038363896,-0.0005005104,3.644e-05,4.808,0,0
0.004829998,-0.0031504819999999996,0.03962471,-0.0006009488000000001,-0.0008582750000000001,4.809,0,0
0.0016686820000000003,-0.008279600000000002,0.023394500000000002,-0.0008111156,-0.002136883,4.81,0,0
-0.0021638240000000004,-0.012213091999999998,-0.007171899999999998,-0.00068610288,-0.0028578070000000004,4.811,0,0
-0.004918378000000001,-0.015724328000000003,-0.037127320000000005,-5.423488000000007e-05,-0.0025791710000000003,4.812,0,0
-0.008402894000000001,-0.016850080000000003,-0.05420628,2.2693120000000016e-05,-0.0027310010000000003,4.813,0,0
-0.011809808000000001,-0.014621160000000001,-0.056200172,-0.00018816168000000002,-0.0032826860000000004,4.814,0,0
-0.011964788,-0.010751518000000002,-0.040528840000000003,0.00015512712,-0.0026976659999999996,4.815,0,0
-0.010698486,-0.005682106000000001,-0.014407179999999999,5.939399999999999e-06,-0.0017694938,4.816,0,0
-0.009849584000000002,-0.0008124860000000007,0.00397642,-0.0003045306,-0.0012065058,4.817,0,0
-0.007157813000000001,0.0035036139999999995,0.007048074,0.0004241474,4.5080200000000036e-05,4.818,0,0
-0.0029209189999999997,0.009257154,0.003867186,0.000743123,0.0017826882000000002,4.819,0,0
0.0008359210000000001,0.015565792,0.0017006439999999996,0.0003385672,0.0027717562000000003,4.82,0,0
0.004498219,0.01937248,-0.0025568480000000005,0.0007451224,0.0037337640000000005,4.821,0,0
0.008645745,0.01952958,-0.0077886560000000014,0.0011208724,0.004993214,4.822,0,0
0.011572014,0.014888040000000002,-0.005751242,0.0007827438000000001,0.004883406000000001,4.823,0,0
0.012408274,0.005604400000000001,0.0012621180000000004,0.0003986096,0.0039301348,4.824,0,0
0.012435726000000001,-0.0032330399999999995,0.006892848000000001,0.00024525140000000007,0.0032074556000000003,4.825,0,0
0.011630132000000001,-0.007752588,0.01481462,4.166379999999996e-05,0.0015753236,4.826,0,0
0.0085998332,-0.007539287999999999,0.023979728,-0.00045199240000000005,-0.0009986703999999998,4.827,0,0
0.0045435472,-0.0034618979999999997,0.02507132,-0.0005184524,-0.0024136823999999996,4.828,0,0
0.0012261232000000003,0.0023638918,0.019010626,-0.0007053804,-0.0034028191999999997,4.829,0,0
-0.0026573688000000005,0.0055264796,0.011835805999999999,-0.0014368844,-0.00513415,4.83,0,0
-0.006691594800000001,0.004140837600000001,0.001623906,-0.0017459628,-0.0059972919999999996,4.831,0,0
-0.008652578000000001,-0.00046628239999999964,-0.009375474,-0.0012386246000000004,-0.00550359,4.832,0,0
-0.009605756000000002,-0.0065566124,-0.012892766,-0.0011003486000000003,-0.00532707,4.833,0,0
-0.010633546,-0.0105757222,-0.011315638,-0.0008954166000000001,-0.005345674000000001,4.834,0,0
-0.010308566000000002,-0.01287279,-0.010750116,0.00024670939999999993,-0.0036763404000000003,4.835,0,0
-0.009218514,-0.014657460000000002,-0.008967056000000001,0.0006819511999999999,-0.0016970444000000001,4.836,0,0
-0.008430268000000001,-0.013858536000000003,-0.006449036000000001,0.00020526159999999997,-0.0005991543999999999,4.837,0,0
-0.006494831,-0.010341716000000003,-0.00522963,0.00016601859999999997,0.0011732596000000003,4.838,0,0
-0.003234625,-0.006525396,-0.0032492859999999997,0.0006410465999999999,0.0034224456,4.839,0,0
-0.00032601500000000003,-0.0032788979999999997,0.001784372,0.0004389328,0.004405914,4.84,0,0
0.0021938730000000003,0.00011938199999999991,0.007733312000000001,0.00014347099999999997,0.004573270000000001,4.841,0,0
0.004991953,0.003019956,0.012523972000000001,0.00032403360000000003,0.004861410000000001,4.842,0,0
0.0065645519999999995,0.005159820000000001,0.014976838000000001,0.00017591599999999997,0.0040470792,4.843,0,0
0.006378518,0.007183140000000001,0.011548208,-0.0001977166,0.0024460652000000004,4.844,0,0
0.0055562039999999995,0.008592442000000002,0.004943908,-2.6722799999999994e-05,0.0014875002000000002,4.845,0,0
0.0034819360000000006,0.008077532,0.0014846179999999996,0.0007202772000000001,0.0004074082,4.846,0,0
-0.0003506279999999993,0.006490206060000001,0.0015847979999999997,0.0011053842000000001,-0.0011048937999999999,4.847,0,0
-0.003672174,0.0056328120600000016,-0.0008987219999999998,0.0010121806,-0.001591285,4.848,0,0
-0.00480185,0.004935394060000001,-0.004486370000000001,0.0007897652000000001,-0.000920657,4.849,0,0
-0.00510748828,0.005002734060000001,-0.00346269,0.0003415752000000001,-0.0008092073999999999,4.85,0,0
-0.00398846428,0.00680788406,-0.0014343200000000002,-0.00025177719999999997,-0.00042374231999999987,4.851,0,0
-0.0005055522800000004,0.007882394000000001,-0.00205352,-0.0004565892000000001,0.00125973968,4.852,0,0
0.0026302937200000003,0.007104316000000001,0.0007985000000000006,-0.00034381320000000006,0.0020517396800000002,4.853,0,0
0.00360262972,0.004955614000000001,0.0063525634000000004,-0.0002494992,0.0017796680800000002,4.854,0,0
0.0041025260000000004,0.0011250400000000001,0.0015425833999999994,0.00016929839999999996,0.00248395748,4.855,0,0
0.004671038000000001,-0.0029945180000000003,-0.0065956166000000005,0.0006059988,0.0034498464,4.856,0,0
0.0035164800000000006,-0.005682966000000001,-0.0067047765999999984,0.00037972879999999997,0.0028168743999999997,4.857,0,0
0.0021029652,-0.007350698,-0.006240636599999998,0.0003052384,0.0020668623999999997,4.858,0,0
0.0019987072000000002,-0.008443716,-0.004084879999999999,0.0005354784799999999,0.001665694,4.859,0,0
0.0012361452,-0.008080536000000001,0.007023,0.00015359887999999991,-0.00032549999999999983,4.86,0,0
-0.0009881148,-0.006928386,0.01581822,-0.00058745912,-0.002817174,4.861,0,0
-0.0027793928000000006,-0.005683868,0.011412062,-0.0008657131200000001,-0.003992524,4.862,0,0
-0.004125664,-0.004208864,0.004992521999999999,-0.0008492165200000001,-0.004519264,4.863,0,0
-0.006162758000000001,-0.003115856,0.002956087999999999,-0.00083293172,-0.005020402,4.864,0,0
-0.006890070000000001,-0.0020797768,3.286999999999962e-05,-0.00044668051999999995,-0.0042787580000000006,4.865,0,0
-0.005843292000000001,-0.0013425068,-0.0024242960000000003,-0.00014468691999999997,-0.0026660038,4.866,0,0
-0.005222104000000001,-0.0012386008,-0.002846884000000001,2.218480000000018e-06,-0.0018703404,4.867,0,0
-0.004315962,-0.0009914788000000001,-0.0060609240000000005,0.00022341048,-0.0009838281999999998,4.868,0,0
-0.001660494,-0.00032569380000000006,-0.01262909,0.00021857046,0.00028253179999999993,4.869,0,0
0.0008059100000000002,0.000261699,-0.016559372,-0.00015585074000000002,0.0006709999999999999,4.87,0,0
0.002723248,0.001485399,-0.018809966,-0.00018067028,0.0009398518000000001,4.871,0,0
0.005833604000000001,0.004265161,-0.019773580000000002,1.9740519999999993e-05,0.0023347364,4.872,0,0
0.008586736000000001,0.007188235,-0.015804540000000002,-8.175688e-05,0.0035387342,4.873,0,0
0.009060008,0.008702698000000002,-0.010593788,0.00022040426000000002,0.0035812242,4.874,0,0
0.008801179999999999,0.008889552000000002,-0.007879464,0.00058970466,0.003877288,4.875,0,0
0.008284567999999999,0.0080009,-0.004760314000000001,0.00022355460000000004,0.0034670164000000004,4.876,0,0
0.0056958500000000006,0.0052843560000000005,0.002123026,-0.0004888516,0.0010081524,4.877,0,0
0.0023798020000000003,0.0019946700000000005,0.010330806000000001,-0.0009419876,-0.0014011276,4.878,0,0
-6.832599999999974e-05,9.235599999999982e-05,0.016620574,-0.0013428758000000002,-0.0029826216000000006,4.879,0,0
-0.0029832680000000003,-0.0016434560000000002,0.01936945,-0.0014471421999999999,-0.004754547600000001,4.88,0,0
-0.0065544600000000015,-0.0037256420000000004,0.01751012,-0.0011060001999999998,-0.005779294,4.881,0,0
-0.008494882,-0.004668388,0.012004524,-0.0004549154,-0.004811487999999999,4.882,0,0
-0.008876482000000002,-0.004933046,0.005618174000000001,-9.73278e-05,-0.0037443256,4.883,0,0
-0.009144324,-0.005164828,0.0013144560000000003,-0.00030400960000000004,-0.0029749255999999996,4.884,0,0
-0.007860238,-0.00480017,-0.0014022580000000004,-0.00019982340000000004,-0.0008483595999999999,4.885,0,0
-0.0047818900000000004,-0.00417924,-0.00236167,0.00039121060000000006,0.0011927164,4.886,0,0
-0.001935016,-0.0032517840000000006,-0.0020278300000000004,0.0011142518000000002,0.0020511024,4.887,0,0
0.000719972,-0.0012901560000000002,-0.0028557540000000003,0.0017827002,0.0028626520000000003,4.888,0,0
0.004519602,0.001334226,-0.003924465,0.0023689422,0.0039130779999999995,4.889,0,0
0.007821382,0.004092488,-0.003249167,0.0023798352000000004,0.003799568,4.89,0,0
0.009565154000000001,0.007284574,-0.0007577069999999996,0.0016668298000000002,0.003109132,4.891,0,0
0.01102578,0.009629968,0.005863609,0.0007609571999999999,0.00295575,4.892,0,0
0.01076955,0.007484416000000001,0.018697003,1.671000000000002e-05,0.0020388570000000003,4.893,0,0
0.006895213999999999,0.0021088920000000002,0.029027712000000004,-0.000657632,0.00024541099999999985,4.894,0,0
0.002133444,-0.0013981599999999996,0.029603900000000002,-0.0008594218,-0.0009138470000000001,4.895,0,0
-0.0014850840000000002,-0.003332638,0.019325632000000002,-0.0005819014,-0.0014898750000000003,4.896,0,0
-0.005402594,-0.0042343680000000005,-0.00015996799999999645,-0.0006276036,-0.0028172730000000003,4.897,0,0
-0.00803452,-0.0016077720000000002,-0.018795187999999997,-0.000565032,-0.0034419420000000004,4.898,0,0
-0.007478618,0.002874768,-0.028606188,0.000352344,-0.0025244872000000002,4.899,0,0
-0.006462568000000001,0.004358072400000001,-0.026797480000000002,0.0012355506,-0.0021643572,4.9,0,0
-0.0061453440000000005,0.0027256923999999993,-0.01491312,0.0015236096,-0.0020158756,4.901,0,0
-0.003977924,-0.00037001760000000003,-0.0019049919999999997,0.0019510764,-0.00043016159999999986,4.902,0,0
-0.001296056,-0.005481765600000001,0.0024125080000000003,0.0022159728000000004,0.0013923144,4.903,0,0
0.0003302800000000002,-0.010465905600000002,-0.0007856719999999994,0.0014510108,0.0018600356,4.904,0,0
0.0028166720000000005,-0.012482384000000001,-0.006071832000000001,0.00016995279999999996,0.0024938596,4.905,0,0
0.005809476000000001,-0.011904206,-0.010211716000000003,-0.0004693612000000001,0.003153258,4.906,0,0
0.007189474,-0.009444662,-0.00992433,-0.0012476452,0.0020816140000000003,4.907,0,0
0.007146358,-0.004931018,-0.008255162,-0.001922652,0.0010547756000000002,4.908,0,0
0.007447496000000001,-0.0003707640000000001,-0.007356658,-0.0013940460000000001,0.0011419396,4.909,0,0
0.006619136,0.0025594800000000003,-0.0062628300000000005,-0.0011237646,0.0004115596,4.91,0,0
0.003976218,0.004288784,-0.0048820724000000005,-0.0013655146,-0.0009476164000000001,4.911,0,0
0.0015797320000000004,0.0034110200000000003,-0.0028120344000000003,-0.0011796086,-0.0011733664000000003,4.912,0,0
-0.0008298040000000005,0.0014671960000000003,0.0003506175999999999,-0.0011816026000000001,-0.0016799880000000003,4.913,0,0
-0.004139024,0.001708014,0.0055532736,-0.0017692966,-0.0029215080000000006,4.914,0,0
-0.00673049,0.0014293620000000002,0.0117000056,-0.0016064200200000003,-0.0027616456000000003,4.915,0,0
-0.007829504000000001,-0.0005017839999999999,0.013779872,-0.00072662202,-0.0014111116000000003,4.916,0,0
-0.008639032000000001,-0.00021422779999999997,0.010973966000000002,4.3233979999999876e-05,-0.0006924625999999999,4.917,0,0
-0.007796628000000001,0.0025643282000000003,0.00728345,0.00096644398,-0.00014542539999999994,4.918,0,0
-0.004809414000000001,0.0041741562,0.003642436,0.0014990499800000001,0.0012918846,4.919,0,0
-0.0016436579999999999,0.0056598102,0.004052376,0.0017206860000000001,0.0025052262000000002,4.92,0,0
0.0014004580000000005,0.0088520522,0.011396656000000002,0.0017702660000000002,0.0037648382000000005,4.921,0,0
0.005137424,0.010668534,0.01980203,0.0016136140000000002,0.0054619592,4.922,0,0
0.00811654,0.00934248,0.022448854,0.000892386,0.005585898,4.923,0,0
0.00818562,0.00616153,0.014349808,-7.418399999999993e-05,0.0037417219999999994,4.924,0,0
0.007153496000000001,0.0030533319999999997,-0.0025106120000000006,-0.000601924,0.0018465340000000004,4.925,0,0
0.006265868000000001,0.0006604853999999997,-0.017298632,-0.00151153,-0.00031852599999999975,4.926,0,0
0.003637046,-0.00036295460000000006,-0.024825044,-0.002271326,-0.00342586,4.927,0,0
0.00014554399999999984,-2.0605999999997885e-06,-0.024316066000000004,-0.0018958482000000002,-0.004606044,4.928,0,0
-0.002023314,0.0002118354000000001,-0.012556846000000002,-0.0007090782,-0.0035245444000000003,4.929,0,0
-0.00391977,7.233940000000007e-05,0.003010434000000001,0.00023373380000000008,-0.0032447284000000002,4.93,0,0
-0.006033188,-7.564199999999995e-05,0.011273114000000002,0.0009836498,-0.0037104864000000004,4.931,0,0
-0.0070145220000000005,-0.0006452560000000001,0.012872722000000001,0.0016487316000000003,-0.0031321103999999997,4.932,0,0
-0.007426632000000001,-0.002206342,0.008983116000000001,0.0016946084000000001,-0.0022075624,4.933,0,0
-0.008010222000000001,-0.0032565680000000005,-0.00015096399999999996,0.0010943334,-0.0018577479999999998,4.934,0,0
-0.006730016000000001,-0.0031060980000000003,-0.009542024,0.0005101432,-0.00030039999999999993,4.935,0,0
-0.003631914000000001,-0.0049425,-0.016529744000000002,0.00023039899999999997,0.002126958,4.936,0,0
-0.0008075040000000001,-0.008377104000000002,-0.021543680000000003,-0.00041311480000000007,0.0032265419999999998,4.937,0,0
0.0026438120000000006,-0.008878080000000002,-0.023241740000000004,-0.0009636314000000001,0.003793794,4.938,0,0
0.006605726000000001,-0.0067610080000000015,-0.01991606,-0.0008693696,0.0045516260000000005,4.939,0,0
0.008321348,-0.004726560000000001,-0.014913325999999998,-0.0006432774000000002,0.004064442,4.94,0,0
0.00777664,-0.0011819600000000008,-0.010629004000000001,-0.0007976012000000002,0.002500679726,4.941,0,0
0.007195336000000001,0.00372836,-0.006027728,-0.0007206072,0.0018208177260000003,4.942,0,0
0.005656274,0.006322966000000001,0.0003949319999999993,-0.0005742172,0.0008001057260000003,4.943,0,0
0.0023825979999999997,0.005055678,0.011433892,-0.0010370219999999999,-0.0014262202740000002,4.944,0,0
-0.000647868,0.0019488219999999991,0.026085958,-0.001619666,-0.002592456274,4.945,0,0
-0.0031258180000000003,-0.00026271200000000023,0.040353276,-0.0016829222,-0.002787261,4.946,0,0
-0.006032208000000001,-0.0018703120000000003,0.04915706,-0.0012220716000000001,-0.003017081,4.947,0,0
-0.008346632000000001,-0.0028906500000000003,0.04877444,-0.00048530959999999995,-0.002805373,4.948,0,0
-0.008377726,-0.0021213070000000002,0.03764706,0.0003249144,-0.0016554236,4.949,0,0
-0.007531858000000001,-0.000822125,0.01693242,0.0009219984000000002,-0.0010778366000000002,4.95,0,0
-0.006743312,-0.0010914890000000002,-0.006707399999999999,0.0014242206000000001,-0.0011630256,4.951,0,0
-0.00437301,-0.0019010770000000001,-0.02200198,0.001461983,-0.00020848360000000002,4.952,0,0
-0.0011260720000000003,-0.0022779364000000005,-0.01933812,0.0009130200000000001,0.0005153324,4.953,0,0
0.0014096299999999998,-0.0016137454,-0.006849139999999998,0.00039334000000000016,0.000815411,4.954,0,0
0.004371518,0.0011456046,0.0022493200000000026,0.0002857812,0.0018531320000000002,4.955,0,0
0.00758223,0.004381032600000001,0.00834666,0.0003377472,0.0029461060000000004,4.956,0,0
0.008782284,0.006247984600000001,0.004133679999999997,0.00025420204,0.002871192,4.957,0,0
0.008157426,0.005432832,-0.018383740000000003,0.00021182344000000004,0.002435108,4.958,0,0
0.006942365800000001,0.0027140940000000002,-0.04358908,0.00022493964000000005,0.0019866096,4.959,0,0
0.0045024058,-7.52079999999999e-05,-0.055689340000000004,-0.00013607715999999998,0.0001744295999999997,4.96,0,0
0.0013183958000000003,-0.002072308,-0.05576006000000001,-0.00070377416,-0.0018790324000000002,4.961,0,0
-0.0009275382,-0.0027674120000000003,-0.044804504,-0.0009146424000000002,-0.0030426904000000004,4.962,0,0
-0.0026585282,-0.002148306,-0.023861004000000005,-0.0009998227999999999,-0.0039395844000000005,4.963,0,0
-0.004536166,-0.0009513560000000001,-0.0017986840000000026,-0.0008886178,-0.00484178,4.964,0,0
-0.005897660000000001,-0.0005181456000000001,0.015335275999999998,-0.0002762382,-0.004394824,4.965,0,0
-0.006059968000000001,-0.0007663704000000002,0.025492856,0.00046836680000000006,-0.0028362080000000002,4.966,0,0
-0.005676348,-0.0003905524000000001,0.028093140000000003,0.0010260092,-0.0020997228000000003,4.967,0,0
-0.004571048800000001,0.0008587656,0.02314457,0.0016996572000000003,-0.0009526567999999999,4.968,0,0
-0.0020899108000000007,0.0006666675999999999,0.014465135999999996,0.002003772,0.0009735332000000001,4.969,0,0
0.0004984691999999999,-0.0009335247999999999,0.007765786,0.0014362398000000002,0.0020855472,4.97,0,0
0.0025212892,-0.00183848,0.001995978,0.0010351424000000003,0.0024382352,4.971,0,0
0.0047308192,-0.00284401,-0.0005530960000000001,0.0009920084,0.0033040559999999997,4.972,0,0
0.006635212,-0.0035329426,0.00282459,0.0004066498,0.004130592,4.973,0,0
0.007136592,-0.0028150406,0.006853304,-0.0004553302,0.0035825500000000003,4.974,0,0
0.00700551,-0.0018071286,0.007039634,-0.001127272,0.0029904508,4.975,0,0
0.0067737280000000006,-0.0006455426,0.004856242,-0.0019145126,0.0023774884,4.976,0,0
0.005285564,0.0014605474,0.0028725040000000005,-0.0021808727999999998,0.0008441623999999999,4.977,0,0
0.0033377040000000004,0.004619326,0.0018345720000000002,-0.0013645922,-0.00028356600000000007,4.978,0,0
0.002434852,0.008172572,0.0016056660000000002,-0.00020648219999999998,-0.0006609352,4.979,0,0
0.000415618,0.01003675,0.001950996,0.0008440838000000001,-0.001781814,4.98,0,0
-0.003100762,0.008758957999999999,0.0034345680000000003,0.0015536516,-0.0028067856,4.981,0,0
-0.005463030000000001,0.006525236,0.0052712440000000005,0.0015633818,-0.0025524456,4.982,0,0
-0.007364230000000001,0.003153696,0.006561636000000001,0.000715945,-0.0028315952,4.983,0,0
-0.00997843,-0.0022704240000000005,0.007412182,-0.00028724100000000004,-0.0032455199999999996,4.984,0,0
-0.009960126,-0.0047630020000000006,0.006467736000000001,-0.0004236296,-0.0015065859999999999,4.985,0,0
-0.006788540000000001,-0.0023792000000000006,0.0032124639999999995,2.1164600000000045e-05,0.0007958739999999999,4.986,0,0
-0.003533534,0.0004958639999999995,0.001418642,0.00022964459999999997,0.0016762,4.987,0,0
0.00028548400000000056,0.0028653439999999997,0.0016151859999999998,0.00033746920000000003,0.002726414,4.988,0,0
0.004822844,0.00595605,0.001546666,0.0007235806,0.004336664,4.989,0,0
0.007635830000000001,0.0051700819999999995,0.003271502,0.0004636646,0.004163486,4.99,0,0
0.007799924,-0.0011586339999999995,0.005165794,-0.00035693739999999996,0.0026074260000000004,4.991,0,0
0.007013383999999999,-0.008518814,0.001445731999999999,-0.00061593626,0.0021855024000000003,4.992,0,0
0.005250801,-0.014013654,-0.006006908000000001,-0.00066921226,0.0012315164,4.993,0,0
0.001978647,-0.015704478,-0.011446968000000002,-0.00075445086,-0.0012691476,4.994,0,0
-0.0009871970000000002,-0.012751515999999997,-0.013889998,-0.0006476084599999999,-0.0025861336,4.995,0,0
-0.002814545,-0.007115185999999998,-0.012246160000000002,-0.00082110246,-0.0029639016,4.996,0,0
-0.004804345,-0.0013516800000000003,-0.007077452000000001,-0.0009912878,-0.00435153,4.997,0,0
-0.0070306200000000004,0.0021139800000000005,-0.0024747980000000003,-0.0006145896,-0.005224258,4.998,0,0
-0.008172506,0.0006299180000000006,-0.00040988000000000005,-0.0003273444,-0.0042451400000000005,4.999,0,0
-0.008718992,-0.003791604,0.00015420199999999998,2.969799999999966e-06,-0.0038341960000000002,5.0,0,0
-0.008461714,-0.006567144,0.0007155719999999999,0.0006786218,-0.003503828,5.001,0,0
-0.005755624000000001,-0.007350884,0.001933948,0.001144604,-0.0010306699999999998,5.002,0,0
-0.0013250240000000002,-0.006799056000000001,0.003823228,0.0015218500000000002,0.0016435240000000002,5.003,0,0
0.00243442,-0.0031983479999999997,0.00480843,0.0018375300000000002,0.0029052920000000003,5.004,0,0
0.005702846,0.002855732,0.00374324,0.001752424,0.0042084259999999995,5.005,0,0
0.008520642,0.008334422000000001,0.0015990280000000002,0.0016311716,0.005379878,5.006,0,0
0.008747712000000001,0.012366016,-0.000737892,0.0011921354000000001,0.004632046,5.007,0,0
0.007315478,0.015377948,-0.0036927460000000002,1.2029399999999909e-05,0.0029903304000000004,5.008,0,0
0.006538318,0.017603320000000002,-0.00579529,-0.0013621726,0.0016177164000000005,5.009,0,0
0.005301328,0.016853584,-0.005965708,-0.0021291086,9.364000000000204e-07,5.01,0,0
0.002372672,0.011333516000000002,-0.005567334,-0.0020487056000000003,-0.0013531256,5.011,0,0
-0.00029346600000000004,0.004544256,-0.004032906000000001,-0.0018111134000000002,-0.0019768756,5.012,0,0
-0.002619658,5.425999999999673e-06,0.0003392339999999999,-0.0013950008,-0.002840114,5.013,0,0
-0.005863541999999999,-0.0031589120000000007,0.007202738,-0.000601658,-0.00375085,5.014,0,0
-0.008041842,-0.005183350000000001,0.012924754000000002,-0.0001857834,-0.0039252060000000005,5.015,0,0
-0.007936088,-0.0044957800000000004,0.016031692,-0.0003729664,-0.0034344804000000003,5.016,0,0
-0.007511126,-0.003270134,0.015596236000000001,-0.0005011114,-0.0028711944000000002,5.017,0,0
-0.006702696,-0.0036735200000000004,0.008323816000000001,-0.00010542000000000003,-0.0015464684000000002,5.018,0,0
-0.0036823240000000007,-0.005340158000000001,-0.002414603999999999,0.0004888492,0.0013649876000000002,5.019,0,0
-0.00044481200000000016,-0.006780984000000001,-0.011470264,0.0008249226000000001,0.0035036676,5.02,0,0
0.0019506900000000001,-0.006609414000000001,-0.014650614000000003,0.0010406498,0.003955292,5.021,0,0
0.00494436,-0.005574910000000001,-0.00717197,0.0012424046000000001,0.00465312,5.022,0,0
0.0073753740000000005,-0.004537314,0.006600429999999999,0.0012633946000000001,0.005312820000000001,5.023,0,0
0.008177724,-0.003241978,0.017924429999999998,0.0009924372,0.0039686800000000005,5.024,0,0
0.008370012000000001,-0.0014291059200000002,0.020736168,0.0006816026,0.0027356316,5.025,0,0
0.007868456000000001,-0.00049330312,0.012325597999999998,0.0005329488,0.0025388895999999997,5.026,0,0
0.0055830454,-0.00041277312,-0.0024317420000000024,0.00035660389,0.0009631896,5.027,0,0
0.0025600633999999997,-0.00015955312,-0.014255182000000002,0.00017887989000000003,-0.0005636544,5.028,0,0
-0.0001265566000000001,0.0010433968800000002,-0.020086162000000005,0.00016102409000000003,-0.0007548418,5.029,0,0
-0.0033854926,0.0027801808000000004,-0.019512134,-2.4319309999999976e-05,-0.0013157414000000002,5.03,0,0
-0.006539702600000001,0.004376354000000001,-0.014209194000000001,-0.0005036783100000001,-0.0022680014000000005,5.031,0,0
-0.00725754,0.006772354,-0.013245374,-0.0008396592,-0.0024247674,5.032,0,0
-0.005566682000000001,0.009493714,-0.016982254000000002,-0.0012473732,-0.0025828754,5.033,0,0
-0.0041613724,0.010504864000000001,-0.020006774,-0.0015124316000000003,-0.0024066392,5.034,0,0
-0.0027944823999999993,0.009568948,-0.019930278000000003,-0.0011529446000000004,-0.0011128512000000003,5.035,0,0
6.265960000000016e-05,0.009563208,-0.015465662,-0.0007073405200000001,0.0003787628000000002,5.036,0,0
0.0018773616000000003,0.010424368,-0.00816481,-0.00046241432,0.0013960828000000002,5.037,0,0
0.0020446756000000003,0.010106768,-0.00031732999999999957,-0.00028084912,0.001975282,5.038,0,0
0.003193418,0.008048642600000001,0.00788923,-0.00054746752,0.0022826372,5.039,0,0
0.004703068000000001,0.0033467425999999995,0.022421428,-0.00083004452,0.0019948932000000003,5.04,0,0
0.004552462,-0.004609885400000001,0.041654572,-0.0005407746000000001,0.001208212,5.041,0,0
0.004190874,-0.013114125400000001,0.05669864000000001,-0.0003316154,0.0007659926,5.042,0,0
0.003825284,-0.0194514054,0.06336064000000001,-0.0004484926,0.00034305739999999994,5.043,0,0
0.000984298,-0.022803640000000003,0.05489262,-0.0005238086,-0.0013419986,5.044,0,0
-0.002424092,-0.021119440000000003,0.025677079999999998,-0.0006581426,-0.0033255126000000003,5.045,0,0
-0.004476716,-0.015444968000000002,-0.01393932,-0.0010763592,-0.004500227400000001,5.046,0,0
-0.007293002000000001,-0.0101070224,-0.044173340000000005,-0.0010955123999999998,-0.005220810000000001,5.047,0,0
-0.00972358,-0.006358008399999999,-0.05842422,-0.0005067123999999998,-0.0052397500000000005,5.048,0,0
-0.008908962,-0.0025312104,-0.058513380000000004,0.0004112816000000001,-0.0040485616,5.049,0,0
-0.006812802,0.0007232276000000001,-0.043183038,0.0011273996,-0.0025123998000000005,5.05,0,0
-0.00495932,0.0043599556,-0.019104477999999998,0.0016323502000000004,-0.0012372538000000003,5.051,0,0
-0.001294366,0.00874493,0.001529122,0.0024609560000000003,0.0006132142000000001,5.052,0,0
0.0026960260000000002,0.010583737999999999,0.011061262000000002,0.0027790340000000005,0.0019137322,5.053,0,0
0.0050396220000000005,0.0101351506,0.008938642,0.0024346508000000003,0.00199601582,5.054,0,0
0.0073787620000000005,0.0091503478,0.0010719799999999984,0.0022814028000000004,0.0025812040200000005,5.055,0,0
0.009591628,0.006349041,-0.00805344,0.0017202725999999999,0.00311659602,5.056,0,0
0.009721916,0.0019430616000000003,-0.016335248,0.0004116686000000001,0.00222449722,5.057,0,0
0.008070934000000002,-0.0004041304000000001,-0.018222098,8.158459999999998e-05,0.0015903372200000002,5.058,0,0
0.0065033196,-7.5189999999999936e-06,-0.008853997999999998,0.00035953980000000003,0.0016706732,5.059,0,0
0.004141797599999999,0.0011908578,0.006859322000000001,-1.3550200000000018e-05,0.00020992119999999992,5.06,0,0
0.00026007760000000004,0.0014724126,0.019686042,-7.849800000000003e-05,-0.0019909588000000004,5.061,0,0
-0.0028398824000000003,0.0012002180000000003,0.023919270000000003,0.00010477159999999991,-0.0032430980000000007,5.062,0,0
-0.0044274124000000005,0.0014687502000000003,0.020544853999999998,-0.00043886840000000006,-0.0044120060000000004,5.063,0,0
-0.006338744,0.0007894924,0.014413933999999998,-0.0008693896,-0.005191516,5.064,0,0
-0.008376562,-0.0009976695999999998,0.006673254600000001,-0.0004855796000000001,-0.004141546,5.065,0,0
-0.008566790000000001,-0.0025796036,6.519659999999999e-05,-0.00017251740000000004,-0.001815102,5.066,0,0
-0.007742094000000001,-0.0037360116000000002,-4.482340000000083e-05,-0.000401593,0.00014315600000000019,5.067,0,0
-0.006714626000000001,-0.0045903398,0.0051100026,-0.000729303,0.002196758,5.068,0,0
-0.004009886,-0.0050535,0.0105242826,-0.000872061,0.004566566,5.069,0,0
-0.0005028600000000002,-0.005486118,0.013019122000000001,-0.0014170250000000001,0.005669022,5.07,0,0
0.0021782579999999998,-0.00507132,0.011409772,-0.0019771752000000004,0.005783952,5.071,0,0
0.00534774,-0.0030114980000000005,0.005916592000000002,-0.0017516772000000002,0.006487580000000001,5.072,0,0
0.009023872,-0.00010020999999999988,-0.001443528,-0.0010831206,0.007100064,5.073,0,0
0.010727756,0.0033805660000000006,-0.006837628,-0.0006439414000000001,0.005815568000000001,5.074,0,0
0.010534748000000002,0.006369034,-0.010052846,-0.00034601180000000013,0.004225396,5.075,0,0
0.009314724,0.008608056000000001,-0.009996934,-3.278140000000001e-05,0.0031517410000000004,5.076,0,0
0.005896686,0.010709476,-0.006987354000000001,8.662119999999997e-05,0.000771307,5.077,0,0
0.0005744900000000004,0.011325514,-0.005364374000000002,-0.0001659864,-0.0017766530000000002,5.078,0,0
-0.003866266,0.010018314,-0.004198808,-0.0004820056000000001,-0.002711629,5.079,0,0
-0.006723866,0.008384260000000001,-0.0010143700000000001,-0.0001574312,-0.0031451850000000004,5.08,0,0
-0.009287492000000001,0.004380126000000001,0.001408786,0.0003434244,-0.00366256,5.081,0,0
-0.010442394,-0.002469354,0.0012966345999999998,0.0007738658,-0.002876673,5.082,0,0
-0.009550176,-0.007822894,0.0025355746,0.0012008608,-0.0016487110000000002,5.083,0,0
-0.00821764,-0.011777854,0.0038410358000000003,0.0013847214000000001,-0.0011265669999999998,5.084,0,0
-0.00614369,-0.014442720000000001,0.0020324778000000003,0.0013893534,-0.00034971939999999994,5.085,0,0
-0.0018074580000000003,-0.013069346,-0.0013323442,0.0013982554,0.0006963786,5.086,0,0
0.0023127420000000004,-0.00923058,-0.0036845928,0.001204676,0.0009856182,5.087,0,0
0.005394900000000001,-0.0062334582,-0.0046512128,0.0011440600000000001,0.0013417022000000002,5.088,0,0
0.00874242,-0.0030052301999999994,-0.006449006,0.0015209266000000003,0.0026641302000000003,5.089,0,0
0.010820152,0.0001108038000000002,-0.008685692,0.0014030162000000003,0.0030428966,5.09,0,0
0.010621951999999999,0.0012179258000000002,-0.009136320000000002,0.0008610442000000002,0.0022221126000000003,5.091,0,0
0.009777512,0.0011019318000000003,-0.007921385999999999,0.0002413516000000001,0.00177474,5.092,0,0
0.008921262000000001,0.0008302598000000001,-0.006706362,-0.0006642643999999999,0.000524194,5.093,0,0
0.006333532000000001,0.0010734198000000002,-0.002219356,-0.0014663904,-0.001996716,5.094,0,0
0.003529482000000001,0.0020686638000000004,0.009764888000000001,-0.0015960598,-0.0031949340000000004,5.095,0,0
0.0011386200000000003,0.0026545558,0.022500578,-0.0012845316,-0.003246506,5.096,0,0
-0.00258242,0.0016982078000000002,0.028549044,-0.0010677876000000002,-0.0038390460000000005,5.097,0,0
-0.00690227,0.0016062180000000004,0.028619434,-0.0005463686000000001,-0.00433846,5.098,0,0
-0.008271116,0.0011176860000000001,0.017306573999999998,-0.00014353960000000002,-0.0031795516,5.099,0,0
-0.008265846,-1.2639999999999527e-06,2.857399999999996e-05,-0.0008718158,-0.0015388576,5.1,0,0
-0.006914287999999999,0.002914528,-0.007964086,-0.0018815860000000002,-0.0014781815999999998,5.101,0,0
-0.0016500080000000001,0.007118344,-0.008261766000000004,-0.002401626,-0.0023055415999999997,5.102,0,0
0.0006467139999999997,0.007599268,-0.00526682,-0.0031215730000000003,-0.0037406316,5.103,0,0
-0.0026571900000000007,0.007294114000000001,0.0017676459999999999,-0.0035352660000000004,-0.006552958,5.104,0,0
-0.007455530000000001,0.008045038000000001,0.008135170000000002,-0.002612048,-0.00994755,5.105,0,0
-0.014224158,0.006184102000000001,0.009227490000000001,-0.0012982599999999999,-0.011526198,5.106,0,0
-0.022774558,0.003264052,0.00685043,0.0005566899999999999,-0.010793427999999999,5.107,0,0
-0.02555722,0.0020114239999999995,-0.0001664300000000004,0.003030308,-0.0073629299999999984,5.108,0,0
-0.021555562000000004,0.0011437720000000004,-0.008291156000000001,0.00438455,-0.00239117,5.109,0,0
-0.014474792000000002,-0.00095588,-0.01579726,0.004842870000000001,0.0025093700000000004,5.11,0,0
-0.003732452,-0.005077004,-0.02502118,0.005229542,0.00820839,5.111,0,0
0.008567168,-0.009382914,-0.029007154,0.004813352,0.013306798000000002,5.112,0,0
0.019499828,-0.01119091,-0.026184974000000003,0.0034631420000000007,0.016256819999999998,5.113,0,0
0.028226050000000003,-0.01134811,-0.019289594000000004,0.0023876080000000003,0.01765212,5.114,0,0
0.035341960000000006,-0.011012038,-0.010092298000000001,0.0012520840000000003,0.0177081,5.115,0,0
0.03793132,-0.0084921526,-0.0018306780000000005,-0.0006798899999999998,0.014412158000000001,5.116,0,0
0.034552360000000004,-0.0039514788,0.005170876,-0.0023622219999999998,0.008253058000000002,5.117,0,0
0.027985187999999998,-0.00026539680000000005,0.009612876,-0.0033451760000000005,0.001860698,5.118,0,0
0.017659828,0.0018815312000000002,0.008404355999999998,-0.004226148,-0.004936602,5.119,0,0
0.003575048000000001,0.0039525632,0.0052070599999999995,-0.0043455080000000005,-0.011410362,5.12,0,0
-0.010220871999999999,0.0049603718,0.004187100000000001,-0.0029287180000000003,-0.014752160000000002,5.121,0,0
-0.020767332,0.004268896,-0.0003855620000000003,-0.0015751820000000003,-0.0152133,5.122,0,0
-0.02855544,0.0029164760000000003,-0.005876802,-0.0009757452000000002,-0.014934300000000001,5.123,0,0
-0.03239064,0.0022574380000000005,-0.004184442,7.693279999999994e-05,-0.012396582,5.124,0,0
-0.030581960000000002,0.001876994,-0.0020679208,0.0012513467999999998,-0.007643508,5.125,0,0
-0.02509525,0.0011171176,-0.0042440428,0.0014863508,-0.003157716,5.126,0,0
-0.016915786,0.0015754776,-0.0040849228,0.0015451128,0.0018618839999999998,5.127,0,0
-0.006415305999999999,0.0033417656000000002,0.0034767172000000008,0.001981126,0.007768364000000001,5.128,0,0
0.004435613999999999,0.005639465600000001,0.014301057200000002,0.0016573074,0.012148306000000001,5.129,0,0
0.013535433999999999,0.005569925600000001,0.022731236000000002,0.0008517209999999999,0.014453272000000001,5.13,0,0
0.021001864000000002,0.002682648,0.025159737999999997,0.00022891259999999997,0.015857760000000002,5.131,0,0
0.02617322,0.0003831899999999994,0.0197757,-0.0007380214,0.015024798000000002,5.132,0,0
0.0264181,-0.001601108,0.008108680000000004,-0.0018272254000000002,0.011072412000000004,5.133,0,0
0.022636815999999997,-0.004460276,-0.006952279999999999,-0.0023317508000000003,0.005800886,5.134,0,0
0.016546699999999998,-0.005039739999999999,-0.018130359999999998,-0.0027162584,0.0003152659999999998,5.135,0,0
0.007864260000000001,-0.0008806479999999997,-0.018766360000000003,-0.003299772,-0.005714354,5.136,0,0
-0.0024322799999999998,0.0037548320000000005,-0.009647659999999999,-0.0032117340000000004,-0.010745492,5.137,0,0
-0.01121072,0.005235848,0.0004474200000000009,-0.00256492,-0.012912886,5.138,0,0
-0.017899716,0.0044384340000000015,0.00908226,-0.00217953,-0.01356154,5.139,0,0
-0.02330534,0.0020035160000000003,0.019438900000000002,-0.001980918,-0.013189240000000001,5.14,0,0
-0.025261739999999998,-0.0015652360000000002,0.02689222,-0.000427456,-0.010048021800000001,5.141,0,0
-0.02243614,-0.004145004000000001,0.028407040000000005,0.0018789140000000002,-0.005270291800000001,5.142,0,0
-0.017868099999999998,-0.005852326000000001,0.0258023166,0.0031413020000000003,-0.0012469358,5.143,0,0
-0.012271830800000001,-0.007310984000000001,0.015353136600000004,0.004462804000000001,0.0032314442,5.144,0,0
-0.0037884708000000002,-0.005980018,-0.005162123399999998,0.005666692000000001,0.0078871842,5.145,0,0
0.0048365692,-0.0029082739999999998,-0.0269358034,0.00512698,0.010042726000000002,5.146,0,0
0.0115061292,-0.0014994259999999995,-0.0409191634,0.003581914,0.01035784,5.147,0,0
0.0175852692,0.0005199600000000005,-0.042997110000000005,0.0025063051999999995,0.010196832000000001,5.148,0,0
0.02243388,0.004457506,-0.03167795,0.0011870532,0.008121054800000001,5.149,0,0
0.023169000000000002,0.006567342,-0.01229063,-7.879279999999995e-05,0.0042664228,5.15,0,0
0.020320236,0.0072773560000000004,0.008391110000000002,-0.00035073480000000006,0.0010603487999999996,5.151,0,0
0.014961418,0.007803698,0.029606910000000004,-0.0007513388,-0.0018290711999999999,5.152,0,0
0.006598318000000001,0.006139924,0.04153548,-0.00113304,-0.0055041392,5.153,0,0
-0.0024376019999999997,0.002348902,0.034685200000000006,-0.0008601542000000001,-0.007570800000000001,5.154,0,0
-0.009840202000000001,-0.001615638,0.016771200000000003,-0.0006893742,-0.007437572000000001,5.155,0,0
-0.015919278000000002,-0.006650256,-0.005800120000000002,-0.000806485,-0.007759536000000001,5.156,0,0
-0.020778040000000005,-0.012176938,-0.031086960000000004,-0.0005839406000000001,-0.007573814,5.157,0,0
-0.02156954,-0.013967456000000003,-0.04716042000000001,-0.000300435,-0.0053553708,5.158,0,0
-0.018882838000000002,-0.013098548000000002,-0.04436806200000001,-0.0002733428,-0.0026721588000000003,5.159,0,0
-0.015178574000000002,-0.011034663600000001,-0.030538522000000005,-0.000139603,-0.0004142047999999999,5.16,0,0
-0.008760926,-0.0064019756,-0.014121882,-2.99888e-05,0.0022313772,5.161,0,0
-0.0002329459999999995,-0.0005561276000000002,-0.0011450800000000008,9.946600000000004e-06,0.005012167200000001,5.162,0,0
0.0074748340000000005,0.0048223724,0.004020518000000001,-0.000167675,0.006821726,5.163,0,0
0.013253492,0.0085287204,0.0038992820000000004,-0.000382953,0.007523166,5.164,0,0
0.017494728,0.009438112,0.0016701170000000005,-0.0003623362,0.00764348,5.165,0,0
0.019007700000000002,0.009079292,0.001813777,-0.0010038536,0.006749034,5.166,0,0
0.017074362000000003,0.008286828,0.007000615000000001,-0.0016047314000000002,0.004457422,5.167,0,0
0.012976052,0.005394297600000001,0.016095437,-0.00137248286,0.0019128639999999998,5.168,0,0
0.007063302,0.00271548704,0.024791315,-0.00162575286,-0.001146312,5.169,0,0
0.00011328200000000014,0.0016816670400000002,0.027758000000000005,-0.00200429146,-0.004659036,5.17,0,0
-0.0063566180000000005,-0.0009919469599999997,0.02258652,-0.00108744946,-0.006641412000000001,5.171,0,0
-0.01148962,-0.00428887096,0.012456939999999998,0.00013631654000000016,-0.007103874000000001,5.172,0,0
-0.01575913,-0.00590262056,0.0028815220000000014,0.0004681600000000001,-0.007528248000000001,5.173,0,0
-0.017592200000000002,-0.0066881020000000005,-0.00479815,0.0007773972,-0.00675314,5.174,0,0
-0.015971064,-0.005980166,-0.008277626,0.0017349172000000002,-0.0040307500000000005,5.175,0,0
-0.012781485,-0.00215067,-0.0055673858,0.0021409572000000003,-0.0015826680000000002,5.176,0,0
-0.007824553,0.00471077,-0.0014239077999999997,0.0017329732000000001,2.2774000000000036e-05,5.177,0,0
-0.00040055299999999924,0.012553870000000002,0.0001523122,0.0018313032000000001,0.0024618520000000005,5.178,0,0
0.007109287000000001,0.018417562000000005,0.00019321420000000002,0.0021930580000000003,0.005223784,5.179,0,0
0.012000271,0.020790390000000002,-0.0006692478,0.001762013,0.006553204,5.18,0,0
0.014879792000000001,0.019804862,-0.0024410820000000002,0.000815817,0.0072459740000000005,5.181,0,0
0.016329120000000003,0.015028805800000003,-0.0042895220000000005,5.908899999999991e-05,0.007698656000000001,5.182,0,0
0.014844496,0.006080465800000002,-0.005473576000000001,-0.0006072170000000001,0.0063356454,5.183,0,0
