bandpass 1,bandpass 2,bandpass 3,bandpass 4,bandpass 5,time,onset,mark
0.001035078,0.0013033364000000003,-0.0026100980000000004,0.0006513144,3.6972199999999985e-05,6.207,0,0
-0.000382346,0.0008652744000000002,-0.0030936120000000004,0.0007565532,-0.0011482618,6.208,1,1
-0.001324848,0.00019899840000000028,-0.003417128,0.0011083892,-0.0025689278,6.209,0,0
-0.002787478,-0.0011368355999999999,-0.0034443720000000007,0.0010729882,-0.0045967278,6.21,0,0
-0.004584076,-0.0020686296,-0.002711872,0.0007511708000000001,-0.006855774,6.211,0,0
-0.0053670079999999995,-0.0021349124000000002,-0.002257872,0.0005795694,-0.007727622000000001,6.212,0,0
-0.004752532000000001,-0.0019468484,-0.002332772,0.00017257459999999998,-0.006422779200000001,6.213,0,0
-0.004452692,-0.0017704104000000002,-0.0021025212,-0.0005683334,-0.004259843200000001,6.214,0,0
-0.004439454,-0.0014293104,-0.0015583759999999998,-0.0005961844000000001,-0.0024278222,6.215,0,0
-0.003021734,-0.0007639944000000002,-0.000740568,0.00034163300000000015,-5.1588199999999995e-05,6.216,0,0
-0.0010361079999999996,0.0001932940000000001,0.000306052,0.0012065080000000002,0.0018099898000000002,6.217,0,0
0.0005777500000000002,0.0015971,0.001665842,0.0019043320000000003,0.002193713,6.218,0,0
0.0029140500000000005,0.003357628,0.0027873192,0.002593242000000001,0.002172563,6.219,0,0
0.00546309,0.004007042,0.0029419660000000003,0.002279596,0.0022087362000000003,6.22,0,0
0.0062451,0.003188788,0.002099772,0.000892592,0.0018333712000000004,6.221,0,0
0.0060985480000000005,0.001602358,0.00136101,-0.000337748,0.0015171392,6.222,0,0
0.0057322599999999994,-0.00022407599999999992,0.0010509220000000001,-0.001260222,0.0013555712000000001,6.223,0,0
0.0036651720000000004,-0.0016718648,0.0009940040000000002,-0.001996812,0.0005891258000000001,6.224,0,0
0.000795338,-0.0020261401999999997,0.001777448,-0.0021769479999999997,0.0008355336,6.225,0,0
-0.0010597900000000001,-0.0015806962,0.003153688,-0.00207187,0.0017420966,6.226,0,0
-0.0026822260000000002,-0.0009541210000000002,0.003997222,-0.0019580020000000004,0.0016513826,6.227,0,0
-0.004598919999999999,-0.000488289,0.002526234,-0.00174591,0.0015918906,6.228,0,0
-0.005159648,-0.0003252102,-0.0003076859999999997,-0.0012868094000000002,0.00220236,6.229,0,0
-0.0042132032000000005,-0.0003937336,-0.0020720720000000003,-0.0010431168,0.0025174980000000004,6.23,0,0
-0.0033882062,-0.00043593280000000004,-0.003100172,-0.0010166488,0.002609532,6.231,0,0
-0.0023795288,-0.00035472,-0.003994467999999999,-0.0004765272,0.003387394,6.232,0,0
-0.00045925079999999975,-0.0007749520000000001,-0.003364438,-1.68728e-05,0.003913542,6.233,0,0
0.0007256392,-0.0015138400000000002,-0.0013814768000000002,-0.00023551860000000003,0.003637554,6.234,0,0
0.0011410764000000001,-0.0019731812,-0.0006359524000000001,-0.0001549564,0.0031261880000000002,6.235,0,0
0.0026282094000000004,-0.0017726882,-0.0009554824,5.564740000000005e-05,0.0026439320000000003,6.236,0,0
0.0041891359999999996,-0.0010649222,-0.0010929244,-0.0003533742,0.0019203160000000003,6.237,0,0
0.004840298,6.146180000000012e-05,-0.0012942204000000001,-0.0009324406000000001,0.0006305359999999999,6.238,0,0
0.005689906,0.0017170198,-0.0014998482000000003,-0.0012975994000000001,0.00012140999999999999,6.239,0,0
0.00605763,0.0030501978,-0.0008599706000000001,-0.0009268402,0.000723634,6.24,0,0
0.004256332,0.003250578,0.0003819753999999999,0.000344474,0.00106768,6.241,0,0
0.001903948,0.0027856300000000003,0.0011128314,0.00168162,0.0015184180000000001,6.242,0,0
0.000279024,0.0022704920000000003,0.0017156871999999999,0.002992916,0.0021046644,6.243,0,0
-0.00186637,0.001193875,0.0020121758,0.0042605180000000005,0.0013636524,6.244,0,0
-0.003761862,4.5831000000000083e-05,0.0017998878,0.004466158000000001,-0.0003974355999999999,6.245,0,0
-0.004146568,-0.0004904250000000001,0.0018842898,0.003654072,-0.0017965935999999997,6.246,0,0
-0.004167742,-0.0010575930000000001,0.0027151278,0.0027559286,-0.0035022195999999998,6.247,0,0
-0.00449275,-0.001561261,0.003582786,0.0021347186,-0.0050468959999999995,6.248,0,0
-0.0034266022,-0.0015286963999999999,0.004029004,0.0016426385999999999,-0.005276492,6.249,0,0
-0.0014763722000000002,-0.0010545978,0.004651148000000001,0.0011441732000000001,-0.0055608720000000006,6.25,0,0
-0.0002671602000000001,-0.0005850978,0.004529124000000001,0.0003676771999999999,-0.005917868000000001,6.251,0,0
0.0015829718000000001,-0.00021816279999999994,0.0025918480000000003,-0.0003659574,-0.0047747552,6.252,0,0
0.0039144938,0.0002803568,0.000299386,-0.0009192734,-0.002450009200000001,6.253,0,0
0.004972706,0.0007126732,-0.0018668000000000005,-0.0016908854000000002,-0.0007250732000000006,6.254,0,0
0.005184398,0.0010542666,-0.004604646,-0.00210224,0.0005291489999999998,6.255,0,0
0.0054199700000000005,0.0014815526000000001,-0.00583093,-0.001478544,0.0017881522,6.256,0,0
0.00453952,0.0018202196,-0.004714796,-0.00092238926,0.0016141626000000001,6.257,0,0
0.0021166839999999998,0.001523096,-0.0030537180000000004,-0.0010569892600000002,-4.843339999999999e-05,6.258,0,0
-1.0419999999999917e-05,0.00021465200000000007,-0.0017438720000000003,-0.0008068192600000001,-0.0011856473999999999,6.259,0,0
-0.001965194,-0.0017070260000000002,-0.0011547000000000003,-0.0007894392600000001,-0.0018972696,6.26,0,0
-0.00462017,-0.0033544000000000004,-0.0015008320000000001,-0.00132646926,-0.0031748228,6.261,0,0
-0.006445856,-0.004285016,-0.0022351280000000003,-0.0015920880000000002,-0.003543966000000001,6.262,0,0
-0.0062215280000000005,-0.004396426,-0.0029322060000000006,-0.001832792,-0.0024859780000000002,6.263,0,0
-0.005892506,-0.0033719259200000002,-0.0027790160000000005,-0.002069234,-0.00150406,6.264,0,0
-0.005651188,-0.0018131003200000002,-0.0019055156000000002,-0.00150602,-5.586600000000012e-05,6.265,0,0
-0.003424782,-0.0007813435200000001,-0.0008699498,-0.0007750540000000001,0.002248836,6.266,0,0
-0.001101674,0.00031918648,0.0012436122,-0.0006981304000000001,0.003134126,6.267,0,0
2.123599999999989e-05,0.00163225448,0.0033530402,-0.0003072104000000001,0.0030066124,6.268,0,0
0.0017810960000000002,0.0023419224,0.0041664782000000004,0.000124662,0.0032769564,6.269,0,0
0.003761658,0.0029643588,0.0043810908,-0.00028461580000000005,0.0027614464000000004,6.27,0,0
0.004090360000000001,0.0034773960000000002,0.003891605,-0.0008243204000000002,0.0012982624,6.271,0,0
0.004183478,0.0031065354000000007,0.0016054990000000002,-0.0007390204000000001,0.0007715102000000001,6.272,0,0
0.004627206,0.0027017474000000006,-0.001255799,-0.00031985520000000003,0.00046817180000000003,6.273,0,0
0.0034199298,0.0029649494000000003,-0.002585993,-0.00012577640000000005,-0.0010465602,6.274,0,0
0.0015249918000000001,0.0029373134,-0.002297434,2.3197599999999962e-05,-0.0021226802,6.275,0,0
9.780979999999976e-05,0.0025191084,-0.001312868,0.00017630659999999998,-0.0021529942,6.276,0,0
-0.0021575182000000003,0.0019884250000000003,0.00011149399999999985,5.173499999999999e-05,-0.0021615584,6.277,0,0
-0.0050649862,0.000650173,0.001889024,-0.0002684488,-0.0024804644,6.278,0,0
-0.006264222,-0.001148445,0.0025660246,-0.00034003528,-0.0021014504000000005,6.279,0,0
-0.005820102000000001,-0.0022931790000000002,0.0019781766,-0.00022178387999999998,-0.0014267762,6.28,0,0
-0.005259173000000001,-0.002655768,0.0009175885999999998,-0.00025964787999999996,-0.0013818281999999997,6.281,0,0
-0.0036741119999999998,-0.0022159762,-0.00034309739999999997,0.00018625412,-0.0007162377999999998,6.282,0,0
-0.0007036200000000001,-0.0009350922000000001,-0.0010158014000000001,0.00068671272,0.0007245341999999998,6.283,0,0
0.001376112,8.231720000000009e-05,-0.000877856,0.0009442739999999999,0.0015376122,6.284,0,0
0.00226701,7.59920000000002e-06,-0.0007024870000000001,0.0017129743999999998,0.002116826,6.285,0,0
0.0039467930000000005,-0.00010115479999999995,-0.0004933104000000001,0.0022708399999999997,0.0031258880000000003,6.286,0,0
0.00532667,4.881540000000004e-05,0.00013085700000000004,0.0017716919999999998,0.002917994,6.287,0,0
0.005135998000000001,-0.0003982006,0.000751827,0.0009316899999999998,0.0017264080000000002,6.288,0,0
0.004878056,-0.0005013548,0.00018884499999999999,0.00014698599999999977,0.0015295784,6.289,0,0
0.0043661832,0.0001943612,-0.0010545340000000002,-0.0012690400000000001,0.0014479184,6.29,0,0
0.0021958772000000002,0.0003440108,-0.0012968086000000002,-0.0022752360000000004,-8.721599999999934e-06,6.291,0,0
-0.00019608479999999996,-0.00017786920000000003,-0.001213342,-0.0020710964,-0.0009165876,6.292,0,0
-0.0017750247999999999,-0.00023162620000000006,-0.0013842000000000004,-0.0012260324,-9.818160000000002e-05,6.293,0,0
-0.0035404508,-1.2117400000000048e-05,-0.00063593,0.00017977759999999998,0.00034481,6.294,0,0
-0.004862236000000001,0.00015408260000000003,0.001061228,0.0018894676000000001,0.00041223999999999986,6.295,0,0
-0.004709678000000001,0.00034337479999999997,0.0017207480000000002,0.0033359836,0.001411072,6.296,0,0
-0.00412489,8.010079999999989e-05,0.0014469934000000003,0.004013944,0.0018667555999999999,6.297,0,0
-0.0037809280000000002,-0.00031392620000000003,0.0007194934000000002,0.00397361,0.0012547136,6.298,0,0
-0.002198712,-0.0009954422,-0.0006015405999999999,0.0033521420000000002,0.0011699896,6.299,0,0
-4.648599999999988e-05,-0.0018356202000000001,-0.0014926246,0.002663862,0.0013349796,6.3,0,0
0.0010051600000000002,-0.002282924,-0.0018358492000000001,0.0021339840000000002,0.0013080076000000001,6.301,0,0
0.0022542740000000006,-0.002464774,-0.0018490272000000001,0.0016753078000000003,0.0017785140000000001,6.302,0,0
0.004141058,-0.002436754,-0.0015932852000000001,0.0010038098,0.002289326,6.303,0,0
0.005178158,-0.0023084119999999997,-0.0006140802,-0.0002651782000000001,0.0018429036,6.304,0,0
0.005123858,-0.0018537120000000002,0.00018472980000000001,-0.0016137922000000002,0.0010077336,6.305,0,0
0.005134982000000001,-0.0007752300000000002,0.0005022244,-0.0027624702000000004,0.0003598696,6.306,0,0
0.0044943660000000005,0.00048154200000000006,0.0013870610000000002,-0.0036384700000000004,-0.0010348204,6.307,0,0
0.0022261340000000003,0.00123798,0.002482055,-0.003998884,-0.0029754764,6.308,0,0
0.00022438599999999992,0.0019515700000000001,0.00350212,-0.0033837560000000004,-0.004244416,6.309,0,0
-0.0009985040000000003,0.002535462,0.004227926,-0.002962278,-0.0050613640000000005,6.31,0,0
-0.002837154,0.002360014,0.004706254,-0.003460734,-0.0050710880000000005,6.311,0,0
-0.0042864420000000006,0.0017880501999999999,0.0040629106000000005,-0.003366086,-0.003708622000000001,6.312,0,0
-0.003929842,0.0011408222000000002,0.0013197326,-0.0024988780000000004,-0.001959746,6.313,0,0
-0.003878208,2.833819999999989e-05,-0.0015807174,-0.0015558440000000005,-0.0005174919999999999,6.314,0,0
-0.004347494,-0.0014853978000000001,-0.0035507654,-0.0005195619999999999,0.0005402872,6.315,0,0
-0.0029689744,-0.0027293898,-0.0052393454,0.0007349498,0.0010725044,6.316,0,0
-0.0011317964000000002,-0.00326579,-0.005882302,0.0015545862,0.0010448064,6.317,0,0
-4.572239999999991e-05,-0.0029949799999999995,-0.004455014,0.0019678322,0.0011569644,6.318,0,0
0.0014310876,-0.0018707619999999998,-0.00227122,0.0019466402,0.0018630884000000003,6.319,0,0
0.0034736415999999997,-7.562200000000023e-05,-0.0005052899999999998,0.0013921569,0.0025779112,6.32,0,0
0.0045488360000000005,0.001389026,0.0011825660000000001,0.0011201853,0.0025175864,6.321,0,0
0.0046024080000000005,0.002696474,0.00211813,0.0008064715,0.0024711364,6.322,0,0
0.004905380000000001,0.00361885,0.00240661,0.00012562769999999992,0.0025483104000000004,6.323,0,0
0.0039616758,0.0032665128,0.0018550672000000002,-0.0006160683,0.0011978844000000003,6.324,0,0
0.0014169758000000003,0.0021264828,0.0011450116000000002,-0.000848283,-0.0006336136000000001,6.325,0,0
-0.0006389901999999999,0.0009913408000000001,0.0012815676000000002,-0.0007459950000000001,-0.001492202,6.326,0,0
-0.0024810022000000004,-0.00020628719999999994,0.0018897756,-0.0010526276,-0.002554658,6.327,0,0
-0.0047939182,-0.0014503052000000001,0.0030280476,-0.0012446938000000001,-0.0042334700000000005,6.328,0,0
-0.005453194000000001,-0.0017818490000000003,0.0037801764000000002,-0.0013855698,-0.004718034,6.329,0,0
-0.0040804964,-0.001050631,0.0036772667200000004,-0.0018106938,-0.0035907412600000004,6.33,0,0
-0.0030337306000000003,0.00037288300000000007,0.0021405227200000003,-0.001545984,-0.0021075252600000005,6.331,0,0
-0.0022760106,0.0010834850000000001,-0.0002814312799999999,-0.00023601199999999985,-5.995260000000004e-06,6.332,0,0
-0.0008594506,0.0008422870000000002,-0.00242290728,0.0010746320000000003,0.00271851074,6.333,0,0
-0.0001936706,0.000493888,-0.00436131328,0.001825976,0.00426820274,6.334,0,0
-0.0004391264,-0.000638338,-0.005811714000000001,0.0022867884,0.0045233800000000005,6.335,0,0
0.0004222258,-0.0017125156000000002,-0.006516182000000001,0.0021794462,0.004152632,6.336,0,0
0.0021225238,-0.0013148636,-0.006299174000000001,0.0013887594,0.002468834,6.337,0,0
0.0032627538000000005,-0.0003030256,-0.005381611600000001,3.141939999999995e-05,-0.000403488,6.338,0,0
0.0045643878,0.0004326824000000001,-0.0037735376,-0.0006197986,-0.0024137640000000005,6.339,0,0
0.005674732,0.001252817,-0.0019032896000000005,-0.0005353148,-0.0035927240000000003,6.34,0,0
0.0041654199999999995,0.0012962408000000002,0.00013230040000000026,-0.0013384446,-0.00518193,6.341,0,0
0.001278498,0.00033779479999999993,0.0018861784000000002,-0.0017986958000000002,-0.005652808,6.342,0,0
-0.000895924,-0.0005392332000000001,0.0024888520000000006,-0.0010113518,-0.00358354,6.343,0,0
-0.0037069380000000003,-0.0010087592000000002,0.00280529,0.0002444042,-0.0006390419999999996,6.344,0,0
-0.0067253420000000005,-0.0014331738,0.002763438,0.001378022,0.0010151760000000002,6.345,0,0
-0.007379676,-0.002036268,0.002118136,0.0025265500000000002,0.0024439896,6.346,0,0
-0.006331671999999999,-0.002255666,0.0016803579999999999,0.0030441426000000003,0.0039435896,6.347,0,0
-0.0058384199999999995,-0.002153006,0.001601054,0.0023294666000000003,0.0037838036,6.348,0,0
-0.004235048,-0.0020025346,0.0011979404000000001,0.0009652326,0.0028157656,6.349,0,0
-0.00097897,-0.001542615,0.0008828478,-0.0001673265999999999,0.0030007055999999995,6.35,0,0
0.0010941000000000002,-0.000459799,0.0010382514000000002,-0.00046374260000000005,0.003553398,6.351,0,0
0.00262311,0.0008259050000000002,0.0007677844000000001,-0.00032970920000000004,0.0037885880000000003,6.352,0,0
0.005053458,0.0022944190000000002,0.0002913956,0.00029588080000000005,0.004319634,6.353,0,0
0.006772202000000001,0.0036094916000000005,0.00016588840000000002,0.0006181062000000001,0.003999672,6.354,0,0
0.007053558000000001,0.004511364,0.00021424800000000005,0.0004058954,0.0029223638,6.355,0,0
0.007469914000000001,0.005418668000000001,0.00025502900000000004,0.0003097440000000001,0.0021594538000000003,6.356,0,0
0.007198152000000001,0.00536085,0.0007549000000000001,0.00023516200000000005,0.0005860038,6.357,0,0
0.004831966,0.0042760160000000005,0.0011601928,6.991100000000003e-05,-0.0015785802,6.358,0,0
0.002280968,0.0028505080000000003,0.0008650836000000002,0.0003421276,-0.0027397102000000003,6.359,0,0
-0.00042198400000000014,0.0010000179999999999,0.0006552326000000002,0.0009056896000000001,-0.0033750300000000002,6.36,0,0
-0.00418078,-0.0017139340000000003,0.0007286120000000001,0.0008946238000000002,-0.004142612,6.361,0,0
-0.00681321,-0.0038357420000000005,0.00046017219999999997,0.0007793328,-0.004477876,6.362,0,0
-0.007040952,-0.004581768000000001,4.035719999999998e-05,0.0009267118,-0.0042053640000000005,6.363,0,0
-0.0069691,-0.004958610000000001,6.458719999999997e-05,0.0009549038000000001,-0.003988026,6.364,0,0
-0.006376196000000001,-0.004532160000000001,-0.00019621280000000008,0.0008757859999999999,-0.0036601780000000005,6.365,0,0
-0.0034238280000000003,-0.003363626,-0.0008648968,0.0008982686,-0.0024637960000000003,6.366,0,0
-0.0004674919999999999,-0.002190592,-0.0013448830000000003,0.0004157815999999999,-0.001042278,6.367,0,0
0.00116285,-0.001452186,-0.001632442,-0.00032176040000000006,-0.0001264370000000001,6.368,0,0
0.0032791860000000003,-0.0005239220000000001,-0.0019021740000000004,-0.000652677,0.0013195190000000001,6.369,0,0
0.005531126000000001,0.0005434999999999999,-0.0019764860000000004,-0.0008073618000000001,0.0028200589999999998,6.37,0,0
0.006129834000000001,0.00154987,-0.0016676928000000002,-0.0009986008000000002,0.0023221766000000002,6.371,0,0
0.005982136,0.002734722,-0.0012291184,-0.0010156668,0.0014375785999999999,6.372,0,0
0.006094906,0.003690524,-0.0005472484000000001,-0.0008861488000000001,0.001465087,6.373,0,0
0.004703709600000001,0.004230218000000001,0.0006788656000000001,-0.0011639162000000002,0.0007943063999999999,6.374,0,0
0.0019004375999999996,0.0033199282,0.0019105996,-0.0013704280000000001,-0.00032804640000000005,6.375,0,0
-0.00046552040000000044,0.0018388281999999999,0.0027605824000000003,-0.0009051564,-0.00050113,6.376,0,0
-0.0029640904,0.0006874622000000001,0.0035418880000000004,-0.0003318246000000001,-0.00027108800000000006,6.377,0,0
-0.005871728400000001,-0.0011575618000000001,0.004103144,0.00014625480000000001,-0.0009544294,6.378,0,0
-0.007330120000000001,-0.0028362917999999997,0.00367356,0.0008893648000000001,-0.0016140248,6.379,0,0
-0.006761903999999999,-0.0028683660000000002,0.0024241600000000003,0.0013486252,-0.0015650542000000003,6.38,0,0
-0.006213817999999999,-0.001930332,0.0007995680000000001,0.0011190694,-0.0017790822,6.381,0,0
-0.00523952,-0.0011210979999999998,-0.0013248140000000001,0.0008963744000000002,-0.0018506742000000001,6.382,0,0
-0.002223352,0.00042926400000000016,-0.0029739500000000004,0.0005482058000000001,-0.0010706682000000002,6.383,0,0
0.0006411420000000001,0.002109838,-0.0033839748000000004,-0.0003449662000000001,-0.0004281404000000001,6.384,0,0
0.0025822480000000005,0.0024948702000000007,-0.0020842988000000003,-0.0010214182000000001,0.0001361697999999999,6.385,0,0
0.005238772,0.0021114238,0.0007260031999999999,-0.0011584616000000002,0.0017953278,6.386,0,0
0.007271322,0.0014094876,0.0028569092000000004,-0.0011436870000000002,0.0033047998,6.387,0,0
0.006722633999999999,0.00024860560000000004,0.0028964492000000007,-0.001134772,0.0035962297999999997,6.388,0,0
0.005746808,-0.0008925524,0.0020446660000000005,-0.0007181498,0.0037500100000000002,6.389,0,0
0.005058104,-0.0011803978,-0.000239382,-0.00044300100000000005,0.0035897740000000004,6.39,0,0
0.002930237,-0.0010729493999999998,-0.00415067,-0.0008567738000000002,0.0019325260000000004,6.391,0,0
0.0004271870000000003,-0.0006334672,-0.0057486640000000006,-0.0009342290000000002,-0.00017585599999999984,6.392,0,0
-0.0009813769999999999,0.0003155307999999999,-0.004150318,-0.0008005640000000001,-0.0014298879999999998,6.393,0,0
-0.002577415,0.0007222709999999999,-0.0020014340000000003,-0.0010571562000000001,-0.003019476,6.394,0,0
-0.005054773,0.0003960221999999999,0.00010571200000000043,-0.0011499750000000001,-0.004894442,6.395,0,0
-0.006137872000000001,-6.156780000000011e-05,0.0016368380000000005,-0.000914517,-0.005193716,6.396,0,0
-0.006060234000000001,-0.0008569258000000002,0.000676818,-0.0010116732,-0.0047579480000000006,6.397,0,0
-0.006424838,-0.0019562538,-0.0019969059999999997,-0.000736552,-0.003832906,6.398,0,0
-0.00547698,-0.002618624,-0.004276924,0.000420744,-0.0007582280000000003,6.399,0,0
-0.0024787539999999997,-0.002497186,-0.005209330000000001,0.0012915860000000002,0.002773826,6.4,0,0
-1.0033999999999911e-05,-0.0021132476,-0.0045849524,0.0016878274,0.0046505,6.401,0,0
0.0020964220000000006,-0.0014885082,-0.0028510744,0.0019122136400000001,0.006020718,6.402,0,0
0.005090586,-0.00023417619999999985,-0.0009821322,0.00150222744,0.006961884,6.403,0,0
0.007037094000000001,0.0008420298000000002,0.0003222898000000001,0.00025047544000000003,0.005878357999999999,6.404,0,0
0.007329912,0.0015418438,0.0013615258,-0.0008445525600000001,0.0038067576000000002,6.405,0,0
0.00712253,0.0022378914000000002,0.0022683662,-0.00140901196,0.0023715336,6.406,0,0
0.006250294000000001,0.0025309020000000002,0.0033932041999999996,-0.0016105868,0.0005779556,6.407,0,0
0.003605418,0.002290444,0.004698166,-0.001276129,-0.0021446924000000003,6.408,0,0
0.0005407040000000004,0.0021146480000000002,0.005416768000000001,-0.0009245100000000001,-0.0041097324,6.409,0,0
-0.002096978,0.002057456,0.005684046,-0.0009133920000000001,-0.004866106,6.41,0,0
-0.004982772000000001,0.0013650818,0.00522115,-0.0009282580000000001,-0.005481066000000001,6.411,0,0
-0.007027220000000001,0.00011141379999999993,0.003423124,-0.0006560258,-0.005424238,6.412,0,0
-0.007352208000000001,-0.0007434882000000001,0.001640982,-0.00048417940000000003,-0.0038011354000000003,6.413,0,0
-0.006818702000000001,-0.0013641582000000001,0.0005860499999999999,-0.00022592499999999998,-0.0023281534,6.414,0,0
-0.006104224,-0.0019634282,-0.0006359138000000002,0.000664403,-0.0017159681999999999,6.415,0,0
-0.003732244,-0.0017210028000000002,-0.0015788818000000001,0.0017640110000000002,-0.0002733162000000001,6.416,0,0
-0.000862622,-0.0012709908000000001,-0.0018275698,0.0021143394,0.0012505678,6.417,0,0
0.0008637180000000002,-0.0015189128000000001,-0.0021484038,0.0019859266,0.0017297832,6.418,0,0
0.0027713420000000004,-0.0016495248000000001,-0.0023825478,0.0020883472000000004,0.0021671731999999997,6.419,0,0
0.005065994000000001,-0.0013399518,-0.002623544,0.0015596394,0.003087312,6.42,0,0
0.005969002000000001,-0.0013907440000000002,-0.002580454,0.0006496073999999999,0.003262438,6.421,0,0
0.005491728,-0.0010757600000000003,-0.0019364007999999999,0.00022767103999999999,0.0026173112000000003,6.422,0,0
0.005573034000000001,-0.00020130979999999997,-0.0016568788000000001,-5.211196000000006e-05,0.0020574302000000004,6.423,0,0
0.004650565400000001,0.000158151,-0.0013196768,-9.705196000000003e-05,0.0010625742,6.424,0,0
0.0017416973999999999,-0.00014004399999999998,-0.00048605679999999996,0.00026741584,-0.0004336758000000002,6.425,0,0
-0.0007680246,-0.0005296249999999999,0.00022648919999999998,0.00037209164,-0.0018067298000000002,6.426,0,0
-0.0025092366,-0.0005053338,0.000895108,0.00018839079999999998,-0.0033476010000000004,6.427,0,0
-0.0049678746,-0.0005164864,0.001711244,-1.581940000000006e-05,-0.005210208000000001,6.428,0,0
-0.006770413999999999,-0.0004065152000000001,0.002083548,-0.0006523434,-0.006189172000000001,6.429,0,0
-0.006598176,-0.0001537372,0.00199775,-0.0016841374000000002,-0.00577826,6.43,0,0
-0.006245994000000001,6.0094999999999986e-05,0.00196968,-0.0021669912,-0.00427423,6.431,0,0
-0.0055664320000000005,0.00020242880000000002,0.0016312788000000002,-0.001519504,-0.0010258340000000004,6.432,0,0
-0.0032053680000000005,0.0003108932,0.0008913807999999998,-0.0003733199999999999,0.0028912520000000004,6.433,0,0
-0.0006391720000000005,0.0007635011999999999,0.0004227581999999998,0.00013601979999999997,0.004933792,6.434,0,0
0.001287182,0.0013295052,-9.55754e-05,0.00031274580000000007,0.0051472678,6.435,0,0
0.003939652,0.0018566569999999998,-0.0012305134,0.0004805197999999999,0.004397031600000001,6.436,0,0
0.006514722000000001,0.002244602,-0.0019208742,-0.0005255702,0.0028007801999999997,6.437,0,0
0.007654996000000001,0.002621482,-0.0016981627999999999,-0.0015022254000000002,0.0014375682000000002,6.438,0,0
0.008089488,0.002938986,-0.0018724962,-0.0009501972000000001,0.0020772522,6.439,0,0
0.007773992,0.002875438,-0.0018423444,0.00011520080000000015,0.0033904144,6.44,0,0
0.005093252000000001,0.0022569332000000005,-0.0009667216,0.0010283048000000001,0.0033690192,6.441,0,0
0.0014517619999999997,0.0015596592000000002,-0.000391592,0.0020585628,0.0027160885999999995,6.442,0,0
-0.0007806700000000003,0.0008764216,4.420260000000001e-05,0.002650146,0.0015790965999999997,6.443,0,0
-0.0031422900000000003,-0.0004914504,0.0007112926000000001,0.0022771000000000002,-0.00036496740000000003,6.444,0,0
-0.005866764,-0.0018070144000000002,0.001000675,0.0018263952,-0.0023697314,6.445,0,0
-0.0066283900000000005,-0.0023259696,0.0006131502000000001,0.0016060692000000002,-0.0026785000000000003,6.446,0,0
-0.006281516000000001,-0.0026838196000000003,0.00036294660000000005,0.0012232028000000001,-0.0019432420000000002,6.447,0,0
-0.0066209319999999995,-0.0030434320000000004,0.00018491100000000011,0.0007430208,-0.0015720152000000002,6.448,0,0
-0.0056468074,-0.0028537560000000003,4.330000000000143e-07,0.0005186203999999999,-0.0007244352000000001,6.449,0,0
-0.0029174734000000004,-0.00260275,0.0006517624000000001,0.0005610579999999999,0.0008161628000000001,6.45,0,0
-0.0009956394000000001,-0.0024429680000000002,0.0019583824,0.000512374,0.0017423868000000001,6.451,0,0
0.0003200612000000001,-0.001430016,0.0030364864000000003,0.000325581,0.0021005988,6.452,0,0
0.0024462692,-0.00044480599999999996,0.003987128,0.00019014620000000002,0.0030436739999999997,6.453,0,0
0.0041299086,0.00015401000000000016,0.004770912,-0.0001263254,0.003337724,6.454,0,0
0.0044383966,0.0012023660000000003,0.003763616,-0.0010343442,0.0022577460000000006,6.455,0,0
0.004936688600000001,0.0018661802000000003,0.001536398,-0.0019428902000000001,0.0010330160000000003,6.456,0,0
0.005278052,0.0017039282000000005,-6.870799999999979e-05,-0.0022121908,-0.00017246000000000015,6.457,0,0
0.0034187059999999997,0.0014100102000000002,-0.001728336,-0.0021476426,-0.002074846,6.458,0,0
0.0007955939999999995,0.0014768442,-0.0042874,-0.0019142286000000004,-0.003825166,6.459,0,0
-0.0011444700000000003,0.0014753602,-0.005742424,-0.0015110586000000004,-0.004725770000000001,6.46,0,0
-0.0036109860000000005,0.0009568980000000001,-0.0051077959999999995,-0.0012381446,-0.005437438000000001,6.461,0,0
-0.0055389720000000005,0.0001184020000000002,-0.004043611999999999,-0.0011420646000000001,-0.0049620714,6.462,0,0
-0.005432958,-0.0005675960000000001,-0.003054784,-0.0009672526,-0.0028976214000000005,6.463,0,0
-0.004699710000000001,-0.0011413920000000002,-0.001238912,-0.0005754285999999999,-0.0008875633999999999,6.464,0,0
-0.0038586318,-0.0013987760000000002,0.000921556,0.00035684339999999995,0.0004479901999999999,6.465,0,0
-0.0012907118000000002,-0.0003566940000000003,0.001563333,0.0015898334,0.0013608041999999998,6.466,0,0
0.0018836242,0.0007947059999999998,0.0012709419,0.0023118394,0.0013087458,6.467,0,0
0.0034616902,0.0013896214,0.0008573919,0.0022739528,0.0002907638,6.468,0,0
0.0046277642,0.0019531554,0.0003161838999999998,0.0017525962000000002,-0.00010198020000000006,6.469,0,0
0.006338314000000001,0.0020677334,-7.080030000000003e-05,0.0007635502000000003,0.00047778019999999993,6.47,0,0
0.006505228,0.0018995394,-0.0012553793,-0.0006792978,0.0016168042,6.471,0,0
0.00506444,0.0016024734000000002,-0.0031900182000000003,-0.0015059717999999999,0.002579946,6.472,0,0
0.004486616,0.0013177802000000002,-0.0037777502000000004,-0.001453817,0.002571806,6.473,0,0
0.0037464896000000006,0.0008339756,-0.0029356682,-0.001280579,0.001588478,6.474,0,0
0.0014564636,0.00041021299999999993,-0.0023354079999999998,-0.0009415122000000001,-8.754399999999984e-05,6.475,0,0
-0.0005363244,-0.00018671680000000002,-0.00039710799999999975,-0.0005887182000000001,-0.0014187079999999999,6.476,0,0
-0.0021546424,-0.0013784468,0.002658778,-0.0007361642000000002,-0.0024329,6.477,0,0
-0.004826728400000001,-0.002528745,0.0044187820000000004,-0.0009047492000000001,-0.003158828,6.478,0,0
-0.006977110000000002,-0.0034947164000000003,0.005201774,-0.0004426006,-0.0028155420000000003,6.479,0,0
-0.0073294280000000015,-0.0041590838,0.0054832660000000005,0.0001298446,-0.0014634060000000002,6.48,0,0
-0.0072269,-0.004863442000000001,0.00545464,0.0006366306,-0.0008447099999999999,6.481,0,0
-0.0063239080000000005,-0.00464245,0.004617976,0.0013202166000000001,-0.0007037988000000001,6.482,0,0
-0.0030875539999999993,-0.003173573,0.0025295120000000003,0.0015080406000000002,0.00045327520000000007,6.483,0,0
0.0002997900000000005,-0.0016302090000000005,-0.0005504140000000004,0.0006969826000000001,0.0013453572000000002,6.484,0,0
0.0021964700000000003,-0.00030226500000000013,-0.0033895760000000005,-0.00028628339999999994,0.0017636972,6.485,0,0
0.00435491,0.0010673969999999999,-0.005118124,-0.0006739836,0.0026815212,6.486,0,0
0.006221894,0.002113429,-0.0059587039999999996,-0.0010199314,0.003565182,6.487,0,0
0.006308682,0.002168002,-0.00536309,-0.0012807516,0.003362914,6.488,0,0
0.005949024000000001,0.0022945260000000003,-0.0034817871999999997,-0.0008047616,0.00250413,6.489,0,0
0.005597952000000001,0.0023214820000000006,-0.0015327128000000001,-3.0423600000000032e-05,0.0014720659999999997,6.49,0,0
0.0037255440000000003,0.0018403724000000002,-0.0004955818,0.0001382156,-0.0005764419999999999,6.491,0,0
0.0012122580000000003,0.0015928638,0.0002543442,0.00014267500000000004,-0.00265444,6.492,0,0
-0.00092311,0.0014944538,0.0007859912,0.00014485360000000003,-0.00348889,6.493,0,0
-0.003074942,0.0009501838000000001,0.0016894204000000002,-0.00038378239999999997,-0.004400350000000001,6.494,0,0
-0.004844414,0.0002637046,0.003772842,-0.0010824104,-0.005253766000000001,6.495,0,0
-0.0053147559999999995,0.00032676540000000005,0.005547911,-0.0013624274,-0.0046568140000000004,6.496,0,0
-0.00471696,0.00049396,0.006398817,-0.0010034109999999998,-0.0035378026000000007,6.497,0,0
-0.004458938000000001,0.00014857399999999995,0.006457368000000001,-0.00087173356,-0.0033271706,6.498,0,0
-0.0038966879999999997,-0.000363968,0.004980664,-0.0006377465599999998,-0.0025092986000000003,6.499,0,0
-0.0021197119999999997,-0.0007438188,0.0020786760000000002,0.00020071344000000007,2.251740000000003e-05,6.5,0,0
-0.000663742,-0.001167032,-0.0004769519999999999,0.00096826544,0.0025168874,6.501,0,0
0.0005589819999999999,-0.0013484164,-0.00277244,0.00147316344,0.0045293420000000004,6.502,0,0
0.0031153559999999997,-0.0006097864,-0.004964798,0.001833809,0.0066345480000000005,6.503,0,0
0.0052127,0.0005504996000000001,-0.005879246,0.001910944,0.0077864760000000005,6.504,0,0
0.005571850000000001,0.0017646136000000002,-0.005570254,0.0016037204,0.006334701800000001,6.505,0,0
0.0057489080000000005,0.0027609436000000003,-0.004812155,0.0010939887,0.004137307200000001,6.506,0,0
0.005333274000000001,0.0029423820000000003,-0.0031222690000000004,0.00023023230000000002,0.0025240352,6.507,0,0
0.0029433500000000004,0.002592446,-0.0006112570000000001,-0.0005145217,0.00022532720000000017,6.508,0,0
0.0001797439999999999,0.0018771312000000003,0.001241571,-0.0006388733,-0.0012637888,6.509,0,0
-0.0017115780000000003,0.0005724332000000002,0.0023282370000000004,-0.0002594937,-0.0014815166,6.51,0,0
-0.0041023000000000006,-0.0009953628000000001,0.002577536,1.3631999999999913e-05,-0.002161186,6.511,0,0
-0.006135902,-0.0020757188,0.0023553040000000003,0.00044672839999999994,-0.002776902,6.512,0,0
-0.006452510000000001,-0.0028919468000000005,0.00137565,0.0013030904,-0.0019540960000000002,6.513,0,0
-0.0062223600000000006,-0.0035617580000000004,-8.18119999999999e-05,0.0016364648000000003,-0.0013419200000000001,6.514,0,0
-0.005795864,-0.0033833500000000002,-0.000996452,0.0014912388,-0.0013569060000000002,6.515,0,0
-0.0039944756,-0.0025836564000000003,-0.001549157,0.0015756728,-0.00015491000000000002,6.516,0,0
-0.0013035176000000003,-0.0017269820000000002,-0.0018134560000000002,0.0014689344,0.0005583360000000001,6.517,0,0
0.0008327304000000002,-0.000798096,-0.0014322756000000002,0.0009326832,0.0006453960000000001,6.518,0,0
0.0031125944000000003,0.000420254,-0.0008569536000000001,0.0007346578,0.0018835380000000001,6.519,0,0
0.005507638400000001,0.001477182,-0.0008310355999999999,0.00050853,0.0030318160000000005,6.52,0,0
0.0067108540000000005,0.0025728684,-0.00015931859999999997,-6.436000000000001e-05,0.0031769800000000003,6.521,0,0
0.006884138,0.004146742,0.0010362344,-0.0008849216000000001,0.0029956434000000002,6.522,0,0
0.007171384,0.005536930000000001,0.002576404,-0.0016117104,0.0022457194000000003,6.523,0,0
0.006653198,0.005794556000000001,0.004728578000000001,-0.0022565138,0.0001157634000000002,6.524,0,0
0.003826508,0.004546942000000001,0.006178018,-0.00311027,-0.0022704065999999998,6.525,0,0
0.0006192559999999995,0.0023538580000000003,0.0056850243,-0.003672984,-0.0040880506,6.526,0,0
-0.0022746460000000004,-0.00043115199999999997,0.0031101663,-0.00372378,-0.005200303999999999,6.527,0,0
-0.005790598000000001,-0.002897048,-0.0002693916999999999,-0.0033129559999999997,-0.0048512066,6.528,0,0
-0.007966850000000001,-0.00417265,-0.0034629617000000003,-0.00194766,-0.0032119405999999997,6.529,0,0
-0.0071476560000000005,-0.004275416000000001,-0.0056329257,0.00042039599999999996,-0.0008617565999999999,6.53,0,0
-0.0054798956000000005,-0.0036529180000000007,-0.0057171644,0.00226287,0.0006065506000000001,6.531,0,0
-0.0045428316,-0.0030761040000000005,-0.0041855796,0.0034902840000000006,0.0009308366000000002,6.532,0,0
-0.0029783116,-0.0029715680000000004,-0.0026901536000000005,0.004284252,0.0010123392,6.533,0,0
-0.0010373056,-0.0025994806,-0.0014647956,0.0037475222000000006,0.00033916188000000016,6.534,0,0
0.00040312440000000007,-0.0011884246000000002,-0.00041967480000000004,0.0022271046000000004,-0.0004314875199999999,6.535,0,0
0.002507474,-0.00017503259999999987,-0.00047187680000000004,0.0006585665999999998,7.347327999999997e-05,6.536,0,0
0.005464564,-9.333059999999996e-05,-0.0007315592000000001,-0.0005646734,0.0012283552800000002,6.537,0,0
0.00725998,-9.803459999999987e-05,-0.0002960858,-0.0013706534000000002,0.00101385328,6.538,0,0
0.0072076959999999995,-0.0004381559999999999,-0.00048710379999999996,-0.0022807836,0.0005023126,6.539,0,0
0.0064183,-0.0012200598,-0.0009447446,-0.003087064,0.0007855960000000002,6.54,0,0
0.004125956,-0.001744493,-0.0004658402,-0.002416843,0.0003224668,6.541,0,0
0.0006775299999999998,-0.001491531,3.476740000000008e-05,-0.001087705,-0.00039749439999999995,6.542,0,0
-0.001611568,-0.0008801104,0.0003488500000000001,-0.0003090969999999998,-5.7699799999999966e-05,6.543,0,0
-0.0033480380000000002,-0.0005898324,0.001417524,0.000617394,0.0002538028000000001,6.544,0,0
-0.005571134,-0.0006277604,0.002224092,0.0015093192,-0.0005128812,6.545,0,0
-0.006596888,-0.0005668606,0.002224508,0.0015746122,-0.0008266206000000001,6.546,0,0
-0.006014843999999999,-0.0003412686,0.0024387420000000003,0.0012786422,-0.000463987,6.547,0,0
-0.0057628160000000005,-0.00021362139999999997,0.0023036640000000004,0.0009606774000000002,-0.00031640960000000007,6.548,0,0
-0.0048657940000000005,-0.0001515404,0.0013921940000000002,0.0009955936000000001,0.0004170158000000001,6.549,0,0
-0.0021910979999999994,6.766999999999998e-05,0.0007335800000000001,0.0013615144,0.0018460198,6.55,0,0
0.00019591999999999993,0.0005249893999999999,0.000145316,0.0011219322800000001,0.0025356044000000005,6.551,0,0
0.0020485900000000003,0.0013190914,-0.000864328,0.0003772202799999999,0.0025122306,6.552,0,0
0.0048641840000000006,0.0024784256,-0.0013301060000000002,0.00014229247999999995,0.0028784626000000002,6.553,0,0
0.007234288,0.0038607646000000002,-0.0009940684,0.00014059147999999995,0.0025835386,6.554,0,0
0.007659372000000001,0.004761260000000001,-0.000686558,-0.00052881392,0.0010646426,6.555,0,0
0.007371124,0.0044597442,-0.0004765326,-0.0010461658000000002,0.00022100260000000002,6.556,0,0
0.0062174425999999994,0.0032283541999999998,0.0003045974,-0.0008927658000000001,-0.000559716,6.557,0,0
0.0033843466000000005,0.0019570464,0.0008119674,-0.0008202564,-0.0027795780000000004,6.558,0,0
6.404460000000028e-05,0.0007945258000000002,0.0006941618,-0.0010803972000000002,-0.0041053140000000005,6.559,0,0
-0.0024982854000000004,-0.0002837002000000001,0.0005553378000000001,-0.0008691482000000001,-0.0038880620000000003,6.56,0,0
-0.004724531400000001,-0.0004844624000000001,0.00023355040000000004,-0.00020357400000000004,-0.004460598,6.561,0,0
-0.0067023460000000005,-0.000166291,-0.0002436686000000001,-4.7648400000000016e-05,-0.00505855,6.562,0,0
-0.007247728,-0.0002545888,-0.0006685958000000001,3.34328e-05,-0.004004334,6.563,0,0
-0.0067311820000000005,-0.0006664802,-0.0006132832000000001,0.0005692814000000001,-0.0030940884,6.564,0,0
-0.006266832,-0.0008916982000000001,-7.954960000000004e-05,0.0008575998000000001,-0.0031568603999999998,6.565,0,0
-0.004492256,-0.000819524,0.0006696764,0.00071295738,-0.0022196006,6.566,0,0
-0.0011101139999999997,-0.0006207598000000001,0.0012254294,0.00041387777999999986,0.00044247740000000007,6.567,0,0
0.0017130820000000003,0.0001926778,0.0019743086,-0.00010324822000000016,0.0030900014000000003,6.568,0,0
0.004307118,0.0011845318,0.0023329880000000002,-0.00036368602000000014,0.0050478198000000005,6.569,0,0
0.007140354,0.0013521168000000003,0.0017123098000000002,-9.998602000000007e-05,0.0068260478,6.57,0,0
0.008368212000000002,0.001206711,0.0010692838000000001,0.00030872019999999997,0.007338592000000001,6.571,0,0
0.007708376000000001,0.001006168,-0.0002499682,0.0008883922,0.005909105120000001,6.572,0,0
0.006572812,0.00015879419999999993,-0.0021164282,0.0014072782,0.00378334512,6.573,0,0
0.0046551614,-0.000513944,-0.003143440200000001,0.0010167923999999998,0.00145133712,6.574,0,0
0.0012571014000000002,2.2911000000000025e-05,-0.0033157480000000003,0.00010846439999999998,-0.0013889008800000002,6.575,0,0
-0.0014822886,0.0005691286000000001,-0.0028308000000000005,-0.0005234496,-0.00294359488,6.576,0,0
-0.0029946786,0.00043428400000000006,-0.0013590859999999998,-0.0009109956000000002,-0.003241008,6.577,0,0
-0.0052443686,-0.0001028302,0.00026692600000000007,-0.0006759336000000001,-0.0036871240000000004,6.578,0,0
-0.007415858000000001,-0.001181634,0.001173336,0.000100796,-0.0037233460000000006,6.579,0,0
-0.00767019,-0.0025518800000000003,0.0016410324,0.00040933399999999997,-0.002912442,6.58,0,0
-0.007396294000000001,-0.0036427760000000003,0.0017292564000000001,0.0003916560000000001,-0.002499,6.581,0,0
-0.007379076,-0.0038696380000000003,0.0010840606000000002,0.0007513048000000001,-0.002668318,6.582,0,0
-0.0054828144,-0.003524006,0.00021431460000000005,0.0005334148600000001,-0.001178696,6.583,0,0
-0.0027209024000000004,-0.003062616,-0.00013954500000000003,-0.00045548514000000003,0.000297816,6.584,0,0
-0.0005577503999999999,-0.0024015900000000003,-0.000455276,-0.00078320314,0.0006772080000000002,6.585,0,0
0.0016108936000000002,-0.001390212,-0.0013573780000000002,-0.00052767834,0.00169787,6.586,0,0
0.0045014676,-0.000619978,-0.0016122102,-0.00062529914,0.002661792,6.587,0,0
0.00616426,-0.00021543020000000008,-0.0010335596,-0.0007929850000000001,0.0015744189999999999,6.588,0,0
0.006574966000000001,0.0008685658,-0.0011733300000000002,-0.000817973,0.00035863299999999997,6.589,0,0
0.007395904000000001,0.0020185858,-0.0009318956000000001,-0.000799725,0.001378375,6.59,0,0
0.006206054,0.0024718698,-0.00020219060000000006,-0.0005515618,0.001614625,6.591,0,0
0.0034976260000000006,0.0027250318000000004,3.972559999999999e-05,-0.0002984578000000001,0.0016412010000000001,6.592,0,0
0.00070509,0.0027016459000000002,0.00010564899999999998,0.000130946,0.0017660352,6.593,0,0
-0.0006259419999999999,0.0024621939,0.0007355090000000001,0.000902416,0.0022065078,6.594,0,0
-0.004050580000000001,0.0012729979,0.0006125058000000001,0.001159635,0.0042554118,6.595,0,0
-0.00475883,0.00011079190000000004,-0.0008311691999999999,0.000397839,0.005725927800000001,6.596,0,0
0.003014618,0.0011363759,-0.0014776754,-0.0009396850000000001,0.005624095800000001,6.597,0,0
0.008933176000000001,0.0028390159999999998,-0.0017552844,-0.002324817,0.004688402600000001,6.598,0,0
0.01040165,0.003843774,-0.0020960248,-0.003462339,0.0025369320000000004,6.599,0,0
0.011005164,0.004529652,-0.0017021693999999998,-0.00406056,-0.002678068,6.6,0,0
0.006848834,0.00364132,0.0003174645999999999,-0.0037258640000000006,-0.008066208000000002,6.601,0,0
-0.005534846000000001,0.0003001659999999993,0.0025215226,-0.0022216980000000002,-0.011631586000000003,6.602,0,0
-0.016973326,-0.003470252,0.0043352276,-0.00025787200000000003,-0.013396940000000001,6.603,0,0
-0.023970946000000003,-0.006735332,0.006135238,0.001400034,-0.012868194000000001,6.604,0,0
-0.026585080000000004,-0.008803244,0.007270196,0.0031186879999999997,-0.010279680000000001,6.605,0,0
-0.023153294,-0.009116527999999999,0.007525144000000001,0.00436455,-0.0059982740000000005,6.606,0,0
-0.017506602,-0.008484584,0.0059826684,0.004337724,-0.0015702019999999997,6.607,0,0
-0.008722801999999998,-0.006971676000000001,0.0032186203999999994,0.0034546814,0.003288858,6.608,0,0
0.002204838,-0.004853384800000001,-0.00035964960000000007,0.0024680268,0.008077592000000001,6.609,0,0
0.012641678,-0.0021537508000000006,-0.0030125396,0.0011867448,0.010848258000000001,6.61,0,0
0.021132632000000002,0.0013202792,-0.004107928,-0.0006861032000000001,0.011898892000000001,6.611,0,0
0.027739740000000002,0.0049230652,-0.004284960400000001,-0.0023090872,0.012727920000000002,6.612,0,0
0.031047480000000002,0.0075558572,-0.0038350104,-0.0031053566,0.012373042,6.613,0,0
0.028718320000000006,0.009024892,-0.0044773504,-0.0030065336,0.009885465999999999,6.614,0,0
0.0224934636,0.009079738,-0.006043282400000001,-0.0027215523999999996,0.006531178,6.615,0,0
0.0138375136,0.0075858,-0.0067686740000000006,-0.0022984044,0.002599718,6.616,0,0
0.0031657336,0.005059255800000001,-0.006292808,-0.0013746424000000003,-0.0025910620000000003,6.617,0,0
-0.007550066400000001,0.0023441498000000005,-0.005105254000000001,-0.00025010639999999997,-0.007822164000000001,6.618,0,0
-0.0161919264,-0.00022874819999999982,-0.001780168,0.0004064692000000001,-0.011397408000000001,6.619,0,0
-0.02269757,-0.0027767642,0.0020429380000000002,0.0008000760000000002,-0.013029680000000002,6.62,0,0
-0.026822040000000002,-0.0050761462,0.0033288860000000005,0.00196661,-0.012425216000000001,6.621,0,0
-0.027078100000000004,-0.006807386,0.0028277820000000005,0.0034546800000000003,-0.009209147800000001,6.622,0,0
-0.023269782000000003,-0.006955666,0.0018882300000000003,0.004326924000000001,-0.0047858818,6.623,0,0
-0.016531414,-0.005959638400000001,0.001217302,0.004497026,-0.0008458258,6.624,0,0
-0.007249454000000002,-0.0041270944000000006,0.000610012,0.0045785900000000004,0.0031295522,6.625,0,0
0.0031430460000000005,-0.0013160603999999997,-6.717399999999992e-05,0.0038395328000000004,0.006900148200000001,6.626,0,0
0.012088465999999999,0.0013758236000000002,-0.000471636,0.0021581908,0.009001540000000002,6.627,0,0
0.018939428,0.0033576436,-0.00081305,0.0006041328000000001,0.00977501,6.628,0,0
0.02357938,0.004796748,-0.001618654,-0.0008770092000000002,0.009874664,6.629,0,0
0.024410400000000002,0.005433732,-0.002125702,-0.0025456332000000003,0.007973251800000001,6.63,0,0
0.02132747,0.005528474,-0.0015946520000000002,-0.0037524520000000007,0.0042878618,6.631,0,0
0.0159929218,0.005845602000000001,-0.0003806040000000001,-0.004031730000000001,0.0006113938000000003,6.632,0,0
0.0086637558,0.005200738000000001,0.0013112,-0.00435461,-0.0030847382,6.633,0,0
-0.0003866441999999994,0.003752513400000001,0.00291222,-0.004397146000000001,-0.006743588200000001,6.634,0,0
-0.008857584200000001,0.0019141654000000004,0.004275392,-0.0033737454,-0.00870667,6.635,0,0
-0.0154589142,-0.0006576526000000002,0.006373138,-0.0018229274000000004,-0.008817624,6.636,0,0
-0.020350786,-0.0028561566000000005,0.008471364000000002,-0.0006774154000000002,-0.008496306,6.637,0,0
-0.02232876,-0.0041098786,0.008397602,0.0004438626,-0.007074484000000001,6.638,0,0
-0.020447162,-0.004382962000000001,0.006814608000000001,0.0020584626,-0.004177,6.639,0,0
-0.015912253400000003,-0.003538378000000001,0.004256764,0.002985456,-0.0014264919999999997,6.64,0,0
-0.0098309434,-0.0017713960000000002,-8.625399999999958e-05,0.0029881279999999996,0.000811146,6.641,0,0
-0.0022662634000000003,-0.000492756,-0.004484116000000001,0.0028064139999999997,0.0034024880000000004,6.642,0,0
0.0052381966,9.688719999999998e-05,-0.00656779,0.002592108,0.005353602000000001,6.643,0,0
0.0109570586,0.000472582,-0.006912586,0.0015646420000000002,0.005818256000000001,6.644,0,0
0.015051390000000001,0.0007110440000000001,-0.006455334000000001,2.3951999999999936e-05,0.00578663,6.645,0,0
0.0178659,0.000930272,-0.005005804,-0.0011326640000000002,0.005481794,6.646,0,0
0.01800606,0.0012288120000000001,-0.0031995786,-0.00195457,0.004353422,6.647,0,0
0.01501711,0.0021832928,-0.0012904245999999999,-0.0021079168000000003,0.0027092014,6.648,0,0
0.011396794,0.0033668360000000002,0.00033759540000000013,-0.0015403968000000001,0.0010094254000000001,6.649,0,0
0.007021726,0.004413024000000001,0.0017335994,-0.0005635027999999999,-0.0017895706000000003,6.65,0,0
0.000657646,0.004307954,0.0029155014,0.00023321680000000007,-0.0051278086,6.651,0,0
-0.005431694000000001,0.0024865400000000006,0.00341442,0.0005795628000000002,-0.007487628600000001,6.652,0,0
-0.010630624000000002,-0.0006406319999999999,0.003168446,0.0004089492000000001,-0.008879254000000001,6.653,0,0
-0.015999608,-0.0045667220000000005,0.00238381662,-0.00012107320000000001,-0.009022124000000001,6.654,0,0
-0.01908274,-0.007771866,0.0012106226199999999,-2.6932000000000236e-06,-0.006692036,6.655,0,0
-0.01826127,-0.009203746,-0.00017862738,0.0006611052,-0.0027752059999999997,6.656,0,0
-0.015298514000000001,-0.00866727,-0.00127196138,0.0012733152,0.00037589999999999954,6.657,0,0
-0.010529064000000001,-0.006621302000000001,-0.0023595733800000004,0.0017453396,0.003033404,6.658,0,0
-0.003623784,-0.0037818894000000002,-0.0032421880000000004,0.0019964316,0.005813672000000001,6.659,0,0
0.002980336,-0.0013495614000000001,-0.00353649,0.001565221,0.007898034,6.66,0,0
0.007828626,0.00038421860000000007,-0.003501762,0.0005238450000000001,0.008289106000000001,6.661,0,0
0.01217241,0.0020857786,-0.003271318,-0.000231335,0.008163192,6.662,0,0
0.01564376,0.0037918586,-0.002181552,-0.001017617,0.007633108000000001,6.663,0,0
0.01595928,0.005084408,-0.0005298479999999999,-0.0018416406,0.004875208000000001,6.664,0,0
0.013349004,0.005651468,0.001101016,-0.00205269,0.0014042680000000002,6.665,0,0
0.009654142000000001,0.005328443999999999,0.0030505140000000003,-0.0017449620000000003,-0.0013127020000000002,6.666,0,0
0.0038844479999999995,0.004058488,0.00501657,-0.0014387010000000001,-0.004570654,6.667,0,0
-0.002794072,0.002520848,0.006103276,-0.0008195612000000002,-0.007779348,6.668,0,0
-0.0075871520000000015,0.0009383006,0.005497489800000001,1.399260000000004e-05,-0.009140308,6.669,0,0
-0.010693476,-0.0008126474,0.0037143258000000004,0.0001461796,-0.00946692,6.67,0,0
-0.012714114000000002,-0.0020769174,0.0009171617999999997,0.0004906696,-0.00893552,6.671,0,0
-0.012590824000000002,-0.0026841894,-0.0024452662,0.0009267666000000001,-0.005999356000000001,6.672,0,0
-0.010119000000000001,-0.0036027074,-0.0045495842,0.0007773702000000002,-0.0012842360000000002,6.673,0,0
-0.0073365340000000005,-0.004155096,-0.004437858,0.0007299214,0.002785688,6.674,0,0
-0.0036961460000000004,-0.003744888,-0.003166272,0.0010589384,0.005690002,6.675,0,0
0.0010915340000000003,-0.002949418,-0.0011647360000000002,0.0010796704000000002,0.007946588000000001,6.676,0,0
0.0052850580000000005,-0.0015661180000000002,0.000715941,0.0008546180000000001,0.008398008,6.677,0,0
0.008470794,-3.309999999999988e-05,-0.000292615,0.0010223206000000002,0.007351978,6.678,0,0
0.010985288000000001,0.001181746,-0.0026057990000000002,0.000830402,0.0067912680000000005,6.679,0,0
0.012073360000000002,0.002237236,-0.003378343,-1.0704000000000052e-05,0.00560775,6.68,0,0
0.010835676000000002,0.0032738240000000007,-0.0034390650000000003,-0.0011271599999999999,0.0031794880000000003,6.681,0,0
0.008806848,0.004127774,-0.0027444300000000004,-0.0021114056,0.0013510619999999997,6.682,0,0
0.0062283122,0.005271978,3.1448000000000326e-05,-0.0029545376000000003,-0.0006747780000000001,6.683,0,0
0.0024922722000000003,0.005836588,0.00340368,-0.00324225,-0.003426058,6.684,0,0
-0.0012936098000000003,0.004504533999999999,0.004906996,-0.002797184,-0.00502494,6.685,0,0
-0.0049136658000000005,0.002154042,0.004933752,-0.0022689880000000004,-0.005229908,6.686,0,0
-0.0085876378,-0.00083044,0.0042443088,-0.001747672,-0.005255758,6.687,0,0
-0.011083002,-0.0038459880000000003,0.0024667847999999995,-0.001374026,-0.004929098,6.688,0,0
-0.010979384000000002,-0.00523992,-7.849199999999945e-06,-0.0008603838000000001,-0.0035525258000000002,6.689,0,0
-0.009364846800000002,-0.004418836,-0.0015953132000000002,4.918220000000011e-05,-0.0017874798000000005,6.69,0,0
-0.006908761,-0.002697828,-0.0020478262999999997,0.0011288042000000002,-0.00021743780000000007,6.691,0,0
-0.002890709,-0.0013843780000000001,-0.0025603850999999997,0.0021561702000000003,0.0015806002000000002,6.692,0,0
0.0009779270000000002,-0.00067004,-0.0027551751,0.0025153312,0.0033110661999999997,6.693,0,0
0.0031974490000000006,-0.0005563020000000001,-0.0020767031,0.0025009716000000005,0.004064944,6.694,0,0
0.004994075800000001,-0.0004613140000000001,-0.0018511011,0.0024199776000000004,0.004331662,6.695,0,0
0.00738865,0.00019531600000000007,-0.002290502,0.0013514596,0.004114556,6.696,0,0
0.008336102,0.001240128,-0.001391382,-1.080640000000006e-05,0.0027224479999999997,6.697,0,0
0.007438232,0.0026009880000000003,0.000376618,-0.0005234794,0.0009498540000000001,6.698,0,0
0.006564946000000001,0.003428682,0.00144405,-0.000941076,-0.00030386399999999994,6.699,0,0
0.004353562,0.0027112760000000003,0.002324596,-0.0017602,-0.0013937020000000001,6.7,0,0
0.0004716680000000006,0.0011294500000000002,0.003219034,-0.001454627,-0.00230006,6.701,0,0
-0.002802982,-0.000320692,0.0028432072,-0.0002584989999999999,-0.0025069580000000005,6.702,0,0
-0.004953576,-0.001684914,0.0012847592,0.00027519080000000003,-0.002299414,6.703,0,0
-0.007248048000000001,-0.00274921,0.00020091720000000007,0.0006261762000000001,-0.002482004,6.704,0,0
-0.0083531,-0.00269023,-0.000530949,0.0009383154,-0.00316564,6.705,0,0
-0.0067832708,-0.0022361686,-0.0006354530000000001,0.0009801534,-0.0031329080000000002,6.706,0,0
-0.0050994062,-0.0020171286,5.982580000000006e-05,0.0005588154,-0.0031463679999999996,6.707,0,0
-0.0036622708000000003,-0.0017349406000000001,0.0008750858000000001,0.0003324148,-0.0033705460000000003,6.708,0,0
-0.0005963728,-0.0015773646000000001,0.0017536398,0.000241303,-0.0022315100000000004,6.709,0,0
0.0026134672,-0.0013574268,0.002364598,-0.0002137582,-0.00034901599999999995,6.71,0,0
0.004249966000000001,-0.0008675982000000001,0.002070823,-0.0002901024,0.001037182,6.711,0,0
0.0061089674,0.00027089980000000007,0.000896631,-0.0002399264,0.0023409019999999997,6.712,0,0
0.00825272,0.0018421218000000002,-0.0002204790000000001,-0.0005265356000000001,0.003951090000000001,6.713,0,0
0.00828693,0.0026254618,-0.0013781190000000001,-0.0008557672,0.004597188,6.714,0,0
0.007056720000000001,0.0025925106,-0.0023391230000000002,-8.675519999999995e-05,0.00454187,6.715,0,0
0.005432944,0.00223786,-0.002722064,0.0008295080000000001,0.0041400840000000005,6.716,0,0
0.0022124380000000006,0.0013432740000000002,-0.0022847542,0.000861126,0.003058986,6.717,0,0
-0.0015649879999999998,2.647920000000003e-05,-0.0012296402,0.0012154354,0.0012520919999999998,6.718,0,0
-0.0037973,-0.0006708494,-0.0005512802000000001,0.0017538566000000002,-0.0007140679999999999,6.719,0,0
-0.005235699999999999,-0.0006734708000000001,-4.568620000000004e-05,0.0013591528000000002,-0.0023616320000000002,6.72,0,0
-0.006546176,-0.0007680845999999999,0.0004254144,0.0002328202,-0.0036416480000000004,6.721,0,0
-0.005941152,-0.0006135394000000001,0.00031372480000000004,0.0002548042,-0.0032080570000000003,6.722,0,0
-0.0041216308,-0.00027361460000000003,-2.5764599999999994e-05,0.0009454368000000001,-0.001601787,6.723,0,0
-0.00306778444,-2.9848000000000077e-05,0.0003786214,0.0011025996,-0.000719931,6.724,0,0
-0.0018515440400000002,0.0004692088,0.0005883192,0.0014037694000000002,0.0001046379000000001,6.725,0,0
0.0002956899600000001,0.0012525032,0.00026479620000000004,0.001824682,0.0014735639,6.726,0,0
0.00208620196,0.001767864,0.00028715500000000004,0.0015298222000000002,0.0014768657,6.727,0,0
0.00347404076,0.002234254,0.0002307668,0.0007732022000000001,0.0009108417,6.728,0,0
0.005256058400000001,0.0028692220000000003,-0.0006494112000000001,0.00030442140000000006,0.0012414357000000002,6.729,0,0
0.006515272000000001,0.0028572860000000005,-0.001382533,-0.00033503859999999995,0.0011689452,6.73,0,0
0.006313644,0.002379621,-0.0012450674,-0.0008869226,0.00039891500000000007,6.731,0,0
0.00487824,0.0013361310000000004,-0.0012912491,-0.0011233868,0.0001126644,6.732,0,0
0.0027358620000000004,-0.000417783,-0.0008545275000000001,-0.0012605308,-6.705919999999997e-05,6.733,0,0
-0.00017150200000000003,-0.0019357990000000002,0.00045173250000000005,-0.0013037616,-0.0007785852000000001,6.734,0,0
-0.002759978,-0.003010229,0.0014993625,-0.0013117496,-0.000900996,6.735,0,0
-0.004006104,-0.0038011560000000004,0.0018240972999999999,-0.0012903376000000001,-0.0005126818000000001,6.736,0,0
-0.0044473,-0.0037420060000000004,0.002190482,-0.0014264016,-0.00044084820000000005,6.737,0,0
-0.004639844000000001,-0.0029043412,0.002253136,-0.0014567736000000002,-0.0007102646,6.738,0,0
-0.004252676,-0.002262114,0.0010130080000000001,-0.0013111750000000001,-0.00033500460000000006,6.739,0,0
-0.003430062,-0.001847088,-0.00022082799999999974,-0.0011730834000000002,-0.00015110576000000006,6.74,0,0
-0.00319722,-0.0012434898000000002,-0.00082931,-0.0006951154000000001,-0.0008787677600000001,6.741,0,0
-0.0025441482000000005,-0.0007184842,-0.0012366196,0.00014525860000000004,-0.0009490863600000002,6.742,0,0
-0.0011805882000000003,-0.0004146938,-0.0009834516,0.0005857438000000001,-0.0009106123600000001,6.743,0,0
2.6003799999999814e-05,0.00024620299999999996,0.0001478244,0.00056835,-0.0017200363600000002,6.744,0,0
0.0011617778,0.001356339,0.0013959684000000002,0.000522606,-0.0020314028,6.745,0,0
0.0030059318,0.0024798628,0.0020476024,0.000411026,-0.0014432432,6.746,0,0
0.0041864,0.0035284172000000003,0.0021352774000000002,7.045920000000002e-05,-0.0013146676,6.747,0,0
0.003471206,0.003992138,0.0011911814000000003,-0.000306972,-0.0008657337999999999,6.748,0,0
0.002984828,0.0038088220000000003,-0.0006765505999999999,-0.0005844472,0.0005588022,6.749,0,0
0.0021043302000000002,0.0029517804,-0.0019638306000000004,-0.0011434148,0.0010442898000000002,6.75,0,0
-0.0003368357999999999,0.0012298584,-0.0021562472,-0.0018771548,0.0006194762,6.751,0,0
-0.0021005938000000003,-0.0004266656,-0.0018658805999999999,-0.0018185662,0.0012273054,6.752,0,0
-0.0022312638,-0.0016626575999999999,-0.0012419926000000001,-0.0009278202000000001,0.0024549396,6.753,0,0
-0.0026970998000000004,-0.0021973196000000003,0.0002715094000000001,8.782180000000014e-05,0.0028660336000000002,6.754,0,0
-0.0031739760000000002,-0.0018053740000000002,0.0011080024000000002,0.0013205858000000003,0.0028473002,6.755,0,0
-0.0020702152000000003,-0.0009958324,0.00017493099999999991,0.0022382658,0.0029759328,6.756,0,0
-0.0009563932000000003,-2.2923999999998495e-06,-0.0008808889999999999,0.0020720992,0.0019184108,6.757,0,0
-0.0008413472000000002,0.0007169634000000002,-0.001541105,0.0014023617400000003,-0.00044278720000000044,6.758,0,0
-0.0001747772,0.0001559014000000002,-0.0020519410000000003,0.00107076174,-0.0019106332000000002,6.759,0,0
0.0006848188000000001,-0.0011441186000000002,-0.0021354480000000003,0.0006137518400000001,-0.0020581322000000003,6.76,0,0
0.000276348,-0.0019388822000000003,-0.0015007430000000001,3.6861840000000016e-05,-0.00179285,6.761,0,0
0.00012717399999999997,-0.0025759462,-0.001174361,0.00017480564,-0.0011776154,6.762,0,0
0.001049988,-0.0027087648,-0.001405653,0.00029976930000000007,-0.00016244720000000012,6.763,0,0
0.00121349,-0.0019263446000000002,-0.001593605,-0.0001031633,0.0002848296,6.764,0,0
0.0010493248,-0.000922533,-0.00173467,-0.00024844,0.0002637504,6.765,0,0
0.0019796968000000002,3.720100000000011e-05,-0.0015254092,6.780592e-05,6.47098e-05,6.766,0,0
0.0020920528000000003,0.000850653,-0.0007253592000000001,0.00040466692000000004,-0.0006827628,6.767,0,0
0.0007005408,0.0013800858000000001,0.0011532368000000002,0.0005846827199999999,-0.001318143,6.768,0,0
-0.0003040372,0.0017425376000000002,0.0033918308000000005,0.00061073332,-0.0015127398,6.769,0,0
-0.0007921460000000001,0.002303166,0.0050340838,0.00052007792,-0.0011754598,6.77,0,0
-0.0017325720000000001,0.0025037800000000006,0.006217710000000001,0.00012752200000000003,-0.00019355799999999992,6.771,0,0
-0.001917483,0.0015881900000000002,0.0064337560000000005,-0.0002217696,0.0012673240000000002,6.772,0,0
-0.0007126810000000002,0.0007551500000000002,0.0052979194,-0.0004310174000000001,0.0021299920000000003,6.773,0,0
-0.00034551899999999997,0.0002554234000000001,0.0034635689800000006,-0.0007253974000000002,0.0021873386000000007,6.774,0,0
-0.0003672990000000001,-0.00048519440000000007,0.0011791329799999998,-0.000485621,0.0020285524000000004,6.775,0,0
0.000508763,-0.0007871064,-0.0005830610200000001,-0.0001498328,0.0013313022000000002,6.776,0,0
0.0003126038,-0.00045849900000000007,-0.0008012090200000001,-0.0005094232,-9.481780000000003e-05,6.777,0,0
-0.0007249202000000001,-0.0004799510000000001,-0.00131213242,-0.000788559,-0.0009058758,6.778,0,0
-0.0001594382,-0.0010320324000000001,-0.002963264,-0.0006493964000000001,-0.0005336252000000001,6.779,0,0
0.0007321918000000001,-0.0016572066000000002,-0.003702802,-0.0007999120000000001,-0.0006954782000000001,6.78,0,0
0.0001562048000000001,-0.0024004786000000004,-0.004204928,-0.000610623,-0.0009869102,6.781,0,0
8.312120000000009e-05,-0.0023512840000000004,-0.0055860400000000004,-3.662899999999994e-05,-0.0003047748000000001,6.782,0,0
0.0011623892,-0.0016570480000000002,-0.005417662,0.00015328364000000006,0.0003936976,6.783,0,0
0.0010148694,-0.0008696383999999999,-0.0036444494000000003,-2.0349599999999464e-06,0.00025432780000000005,6.784,0,0
0.0003611496,0.00026684360000000005,-0.0020906345000000002,-0.00020328775999999997,0.00027499640000000004,6.785,0,0
0.0011331746,0.0017333116000000002,-0.0010305631000000002,-0.00035819696,0.0005668742,6.786,0,0
0.0013665996000000002,0.0026322336000000005,-6.487110000000002e-05,-0.00079183556,9.663280000000003e-05,6.787,0,0
0.0003411156,0.0027866896000000004,0.00040675689999999996,-0.0009983968000000002,-0.0005928236000000001,6.788,0,0
0.0004583194,0.0031614680000000006,0.0003871531,-0.0008136268000000001,-0.0007904174000000001,6.789,0,0
0.0008918512000000001,0.0029013014000000004,0.0010520102,-0.0004868388,-0.0009295566000000001,6.79,0,0
-0.00023935080000000005,0.0017381656,0.0020713448000000004,-0.0004396754,-0.0012709868,6.791,0,0
-0.0006822920000000001,0.0008300079999999999,0.0028175407999999997,-0.0005035688,-0.0007594474,6.792,0,0
-6.712220000000012e-05,0.00039441580000000007,0.0033628268,-0.00014792820000000004,0.00041230460000000004,6.793,0,0
-0.0006915722000000002,-0.00020660039999999998,0.004049504,0.0002739178,0.0009489570000000001,6.794,0,0
-0.0018213422000000002,-0.0009801858,0.0038162020000000003,0.0005898538,0.0012374808000000003,6.795,0,0
-0.0015887000000000002,-0.001330414,0.0022930700000000004,0.0008975243999999999,0.0020846914,6.796,0,0
-0.0013821952000000002,-0.0015224784000000002,0.0008083679999999997,0.001296082,0.0020839578000000003,6.797,0,0
-0.002297467,-0.0019005682000000001,-0.00026523000000000003,0.001269918,0.0011045858000000002,6.798,0,0
-0.0018997640000000002,-0.0016368526,-0.0011108424000000003,0.0009354552000000001,0.0010570138000000001,6.799,0,0
-0.000437532,-0.0006118826,-0.0015057610000000004,0.0004900672,0.0007817114000000001,6.8,0,0
-0.00016444620000000002,-9.248220000000003e-05,-0.0007434510000000002,-2.224779999999998e-05,-0.0005852006000000001,6.801,0,0
0.000288095,-6.62468e-05,0.00028088299999999995,-0.0003393916,-0.0009170234000000001,6.802,0,0
0.0018705290000000001,0.00024256000000000006,0.0006422739999999999,-0.0005147988000000001,-0.0006199494000000001,6.803,0,0
0.002269398,0.0002967086,0.0006879563999999999,-0.000683862,-0.0012314414000000001,6.804,0,0
0.0018931120000000002,0.0003633006000000001,0.0005606609999999998,-0.000797316,-0.0014079090000000002,6.805,0,0
0.002312764,0.0009339302000000002,0.00035230600000000004,-0.00023978899999999996,-0.0006619992,6.806,0,0
0.0020860730000000004,0.0010358456000000003,0.000240517,6.603020000000003e-05,-0.0005225256000000001,6.807,0,0
0.000621793,0.0009033100000000003,-0.000441082,7.013660000000002e-05,-0.0009989296000000002,6.808,0,0
-0.00020850100000000004,0.0007759840000000001,-0.00126816,0.0007266066000000001,-0.0009504236,6.809,0,0
-0.00047756559999999993,-0.00011178400000000003,-0.000869688,0.0008397181999999999,-0.0010950036,6.81,0,0
-0.0015947576000000002,-0.0010311320000000001,-0.0003126330000000001,0.0003506854,-0.0018908034,6.811,0,0
-0.0021840346000000003,-0.0011687688,-0.0005084874,0.0004885344,-0.00215771,6.812,0,0
-0.0016768108000000002,-0.0015540520000000002,4.8307200000000024e-05,0.00033502179999999996,-0.00201794,6.813,0,0
-0.0015277088,-0.00217774,0.0013418132,-0.0003090322,-0.0025755220000000002,6.814,0,0
-0.0016497292,-0.002141736,0.0010447982,-0.00035060760000000005,-0.0028270559999999997,6.815,0,0
-0.0009126868000000003,-0.002072542,-1.2771800000000019e-05,-0.0008036248,-0.00210676312,6.816,0,0
-0.0003567252000000001,-0.0021900380000000005,0.0001741712,-0.0016293428,-0.0017654779200000001,6.817,0,0
-0.000410517,-0.0016333542399999997,0.00044866059999999996,-0.0014701012,-0.0009550619200000001,6.818,0,0
0.00046716500000000007,-0.00049724424,-0.0008239194000000001,-0.00039710319999999985,0.00154579608,6.819,0,0
0.001721574,0.00057641776,-0.0024377344,0.0009872566000000001,0.00403597408,6.82,0,0
0.0020203376000000003,0.0016711277600000001,-0.0028383864,0.0022849086,0.0047392972,6.821,0,0
0.002471628,0.0027136997600000004,-0.0032911240000000003,0.0030577226000000003,0.004697942,6.822,0,0
0.0033859400000000005,0.0030621300000000006,-0.0036399708000000005,0.0031219150000000007,0.0041096948,6.823,0,0
0.0023819440000000004,0.0027347419999999996,-0.0025534488000000005,0.0022090338000000003,0.0016186128,6.824,0,0
0.00041290400000000007,0.0025695620000000005,-0.0008901678000000001,0.0008248466,-0.0013349372,6.825,0,0
-0.000313594,0.0018233778000000004,0.00032741819999999996,-6.714799999999992e-06,-0.0026719812,6.826,0,0
-0.00124857,0.0006780218000000001,0.0011237962,-0.0003710472,-0.0030873192,6.827,0,0
-0.002647538,0.00014728020000000008,0.0013983604,-0.0003626192,-0.0029838227999999995,6.828,0,0
-0.002671834,-0.0004991937999999998,0.0011169904,0.00010078800000000004,-0.0010086748,6.829,0,0
-0.0017533824,-0.0012365938,0.0013680574,0.0008338712,0.0012983672,6.83,0,0
-0.0012290423999999998,-0.0009572215999999998,0.0015294474000000003,0.0009910074,0.0018445167999999999,6.831,0,0
-0.0003640344,0.00017774239999999997,0.0007399754000000001,0.0009353161999999998,0.0019187828000000002,6.832,0,0
0.0008552475999999999,0.00038129440000000004,0.0005132216,0.0006119851999999999,0.0021584816,6.833,0,0
0.0010393396,-0.00014081960000000013,0.0009660556000000002,-0.0005039888000000002,0.0016352496,6.834,0,0
0.0006621699999999999,-0.0007075216000000001,0.0007490736,-0.0012904008000000002,0.0009303836000000001,6.835,0,0
0.001194536,-0.0013842416000000002,0.00015085060000000002,-0.0015986276000000002,0.0007468600000000002,6.836,0,0
0.001881424,-0.0021397298,0.0006060200000000001,-0.0019652740000000004,0.00022579200000000005,6.837,0,0
0.0019407439999999999,-0.0024456222,0.0008862856,-0.0021865860000000003,-0.000707776,6.838,0,0
0.002899476,-0.0018988602000000001,0.0003808806,-0.002044358,-0.00113281,6.839,0,0
0.0036314820000000005,-0.0013622982000000001,0.00035984019999999996,-0.002453218,-0.001105192,6.84,0,0
0.002047948,-0.0012209082,0.00012968919999999996,-0.00302323,-0.0011376200000000002,6.841,0,0
-3.478199999999991e-05,-0.001436094,-0.0005317922,-0.0026978662000000002,-0.0005453500000000001,6.842,0,0
-0.001399976,-0.0010415488,-0.0007261574,-0.0016518781999999997,0.000698602,6.843,0,0
-0.0032423060000000004,-0.0002921907999999999,-0.0003676144000000001,-0.0007281122000000001,0.0008091559999999999,6.844,0,0
-0.004837294,0.00016781920000000003,-0.00028116860000000003,-7.217680000000004e-05,-0.00019541200000000011,6.845,0,0
-0.004472862,0.0010934792000000001,-0.00011036279999999997,0.0008163354000000001,-0.0004148880000000002,6.846,0,0
-0.0036020122,0.0020531892,0.0005161378000000001,0.0006894656,-0.0006747600000000002,6.847,0,0
-0.0032891122000000004,0.0023266500000000004,0.000682441,-0.0002386504,-0.001810084,6.848,0,0
-0.0019865200000000003,0.002242296,0.00012978699999999997,-0.0007495004000000001,-0.0018018880000000004,6.849,0,0
-0.00025215800000000005,0.0022016694,-0.00036669640000000004,-0.0009998258,-0.0008080380000000001,6.85,0,0
0.00020528848,0.0018618114,-0.0005773522,-0.0006357220000000001,0.0002023259999999999,6.851,0,0
0.00064171868,0.0011821774,-0.0011184668,0.00069043,0.002031654,6.852,0,0
0.00222260068,0.0008186886000000001,-0.0014770232000000003,0.0019294660000000001,0.003966628000000001,6.853,0,0
0.0031434404799999998,0.0009002986000000001,-0.0011151170000000003,0.0025666240000000004,0.004290788,6.854,0,0
0.00336298648,0.0013306592000000002,-0.0007751662,0.003029884,0.003776447200000001,6.855,0,0
0.0045657580000000005,0.0018640972000000002,-0.00042617039999999994,0.0024452102000000002,0.0030483772000000006,6.856,0,0
0.005180622000000001,0.0022064392,0.0005808696,0.0011293461999999999,0.0008724412000000003,6.857,0,0
0.003230822,0.0018386760000000002,0.0011966068,0.0002479048,-0.0015754928000000002,6.858,0,0
0.0005900900000000006,0.0003104440000000002,0.0012546526000000002,-0.0002235382,-0.0028100768000000006,6.859,0,0
-0.001328292,-0.0016497699999999998,0.0019838698000000004,-0.00024285820000000003,-0.003395394000000001,6.86,0,0
-0.00374871,-0.0034274500000000003,0.0024386800000000004,0.00015795159999999994,-0.0035698020000000004,6.861,0,0
-0.005716914,-0.00414552,0.0020267796,0.0007418396,-0.002493831,6.862,0,0
-0.005342742,-0.0037955106,0.0021856896000000004,0.0009042742000000001,-0.00043632700000000024,6.863,0,0
-0.0041674220000000005,-0.0029560646,0.0028372656,0.000705636,0.0007115330000000001,6.864,0,0
-0.0035711880000000003,-0.0015437574000000001,0.0020704176000000004,0.0004537624,0.0012765622,6.865,0,0
-0.001877462,-0.0005385636000000001,0.00018113359999999976,0.00020641561999999998,0.0017422588,6.866,0,0
0.00030593600000000014,-0.0004622156000000001,-0.0012779380000000004,-0.00014840958000000002,0.0011042798,6.867,0,0
0.0015256960000000002,-0.00036769600000000015,-0.002512808,-0.00070224678,-0.0004124862,6.868,0,0
0.0034735900000000004,0.000943686,-0.0035771300000000004,-0.00085291958,-0.0014102062,6.869,0,0
0.005844076,0.0019955008,-0.003923900000000001,-0.00118202198,-0.0013135538000000001,6.87,0,0
0.005888006000000001,0.0017933498000000001,-0.002849798,-0.0017397092000000002,-0.0014362980000000001,6.871,0,0
0.004707957600000001,0.0021229954,-0.0008884,-0.0015502344,-0.0011450778000000003,6.872,0,0
0.0041753796,0.0027133424000000002,0.00085835,-0.0009379178000000001,0.0005398062000000001,6.873,0,0
0.0023095676,0.0027025184000000002,0.002577064,-0.00048824040000000006,0.0015878062000000003,6.874,0,0
-0.00014573240000000012,0.0022927984,0.00358729,0.0002520316,0.0013589654000000003,6.875,0,0
-0.0011514564,0.0018208156000000001,0.003052082,0.0010439056000000001,0.0016077288000000002,6.876,0,0
-0.00220713,0.0007512760000000002,0.0019077579999999996,0.0011072408,0.0016189460000000002,6.877,0,0
-0.004097678,-0.0009653559999999999,0.00040063999999999985,0.0014554582,0.000103244,6.878,0,0
-0.005328500000000001,-0.0022678719999999998,-0.002234092,0.0015901568000000002,-0.000860066,6.879,0,0
-0.005570060000000001,-0.0031376938,-0.003769362,0.0010249752,-0.0009889908,6.88,0,0
-0.005911112000000001,-0.0031859018,-0.002528846,0.0008363932000000001,-0.0015404266,6.881,0,0
-0.0052638020000000015,-0.0024590218,-0.0010744980000000001,0.0006960282000000002,-0.0013745811999999998,6.882,0,0
-0.00295584,-0.0015561954000000002,0.00021726000000000015,0.0002742218,-0.0002914212000000001,6.883,0,0
-0.0007102719999999999,-0.0008753474000000002,0.0021631540000000005,-3.864079999999998e-05,0.00048015680000000003,6.884,0,0
0.001049502,-0.0001860716000000001,0.0022052419999999996,-9.324719999999998e-05,0.0008862262,6.885,0,0
0.0032888940000000005,0.0008901203999999999,0.0001244699999999998,-0.0004450152,0.0013176432000000001,6.886,0,0
0.004998678,0.0017542064,-0.0021173280000000004,-0.0009081790000000001,0.0013872384,6.887,0,0
0.0051205899999999995,0.0020705926,-0.004534008000000001,-0.0012875506,0.0006655212000000001,6.888,0,0
0.004991038000000001,0.0016900528000000003,-0.006336950000000001,-0.001579082,0.0001183852,6.889,0,0
0.004405686000000001,0.0013323486000000001,-0.005445342000000001,-0.0017429960000000001,-0.00014064160000000004,6.89,0,0
0.0022210560000000003,0.0011100906,-0.0032579780000000008,-0.0019009440000000001,-0.0010340526,6.891,0,0
-9.084400000000019e-05,0.0007297970000000001,-0.0015181500000000007,-0.0017854340000000002,-0.0016818006,6.892,0,0
-0.0013689160000000002,0.00046817500000000014,0.000706434,-0.0016706602000000003,-0.0020769494,6.893,0,0
-0.0029272400000000002,1.5198800000000069e-05,0.002335196,-0.0014025724000000003,-0.0028785714000000005,6.894,0,0
-0.004084844000000001,-0.000439643,0.00262401,-0.0007498664,-0.0032955900000000006,6.895,0,0
-0.0035566439999999994,-0.0008516068,0.002417868,0.0001293256,-0.0025051572000000005,6.896,0,0
-0.0028181199999999995,-0.0010981574,0.00239285,0.0009303276,-0.0014351652,6.897,0,0
-0.002655172,-0.00051872,0.002018364,0.0015112058,-0.0007796912000000002,6.898,0,0
-0.001641099,0.0003703519999999999,0.0013982440000000003,0.002066618,0.0006608048000000001,6.899,0,0
0.000715955,0.0006877655399999999,0.002299492,0.002220498,0.0020845208,6.9,0,0
0.0024642170000000003,0.00060492134,0.003767538,0.002006654,0.0023904440000000002,6.901,0,0
0.0036469370000000003,-0.00026907645999999993,0.0037709120000000004,0.0018964219999999998,0.0024820880000000003,6.902,0,0
0.005286655,-0.00157567446,0.003111142,0.0017641780000000001,0.0029917440000000006,6.903,0,0
0.006079396000000001,-0.0019591106600000004,0.002411976,0.0012748680000000002,0.0030657620000000005,6.904,0,0
0.005173490000000001,-0.0014954422,5.232199999999983e-05,0.0004883520000000001,0.002573388,6.905,0,0
0.003983220000000001,-0.0010401342,-0.002744372,-0.000142804,0.002434141,6.906,0,0
0.002763468,-0.0008143282000000002,-0.003758234,-0.000528914,0.0016735340000000004,6.907,0,0
0.0005906079999999998,-0.0004614402000000001,-0.0035154063999999997,-0.0007902540000000001,0.0006323060000000002,6.908,0,0
-0.0011590099999999998,-0.0008292860000000002,-0.0024907204,-0.0006329418000000001,0.00010057759999999998,6.909,0,0
-0.002571812,-0.002353992,-0.0010604804,-0.00014467500000000003,-0.0005903804000000001,6.91,0,0
-0.004558636,-0.0033475799999999997,2.0481200000000017e-05,0.00017220560000000002,-0.0012651394000000001,6.911,0,0
-0.0058577559999999996,-0.002849626,0.0005613705400000001,0.0002522064,-0.0014850844000000001,6.912,0,0
-0.005647414,-0.0023299284,0.0004831007400000001,0.00035766320000000005,-0.0013960924,6.913,0,0
-0.005093380000000001,-0.0016207444,0.00027280534000000004,0.0003501356,-0.0016171234,6.914,0,0
-0.004472852,-0.0002159783999999999,0.00029722334,0.000222682,-0.001355682,6.915,0,0
-0.0022076720000000004,0.000645621,3.431973999999999e-05,0.000409251,-0.0006667906000000001,6.916,0,0
0.0002769499999999999,0.001331609,-0.0002693036,0.00032011260000000004,-0.0007671246000000001,6.917,0,0
0.0017202480000000002,0.0018039694000000005,-0.0003624454,-0.0003662042,-0.0012899426,6.918,0,0
0.003464852,0.0019921154,-0.0005981142,-0.0012337948000000001,-0.0016542732,6.919,0,0
0.00529239,0.0025910154,-0.0007393664000000001,-0.002040402,-0.0013544686,6.92,0,0
0.005898476000000001,0.003408538,-0.00021192040000000002,-0.0028373116,-0.00034944800000000003,6.921,0,0
0.005721678,0.0038863380000000005,0.00046858360000000005,-0.002453302,0.00155415,6.922,0,0
0.005627653999999999,0.004148468000000001,0.0011198896,-0.0005991840000000004,0.003907482,6.923,0,0
0.0042690917999999994,0.00385384,0.0018752058000000003,0.00026687079999999984,0.0050618980000000004,6.924,0,0
0.0017691678000000001,0.0028363062,0.0023491640000000004,0.0006026807999999998,0.004377556,6.925,0,0
-0.0001983302000000001,0.0017232801999999998,0.0027579760000000005,0.0015345628,0.00221014,6.926,0,0
-0.0020173742,0.0003228541999999999,0.0024880118000000003,0.0015309828,-0.0012454799999999998,6.927,0,0
-0.0043151482000000005,-0.0009238858,0.0012797798000000003,0.0005130028,-0.005341972,6.928,0,0
-0.0057295060000000005,-0.0015269378000000002,4.213780000000009e-05,0.00048603139999999997,-0.008142386,6.929,0,0
-0.005822912,-0.0018576460000000001,-0.0008321421999999999,0.0006336134,-0.008948304,6.93,0,0
-0.0059723400000000005,-0.002182922,-0.0015049192,-0.00024823060000000004,-0.007717388,6.931,0,0
-0.005298758000000001,-0.002313174,-0.0016656392,-0.0007014482000000001,-0.004863818000000001,6.932,0,0
-0.0031323520000000006,-0.00218854,-0.0006274244,-0.0007876022,-0.0011655599999999997,6.933,0,0
-0.0013646900000000002,-0.0017853998,0.00043847560000000006,-0.0009086395999999999,0.0035645600000000005,6.934,0,0
0.00010262800000000001,-0.0012566286,0.0007679670000000002,8.688839999999995e-05,0.007712254000000002,6.935,0,0
0.0022397280000000003,-0.0003943366,0.0009036910000000002,0.0017307504,0.009677988,6.936,0,0
0.0038294300000000004,0.0004979314,0.0005785792000000001,0.0019342066000000002,0.009878572,6.937,0,0
0.00418958,0.0004299354,-0.00020117559999999988,0.0015531806000000001,0.008478918,6.938,0,0
0.004530290000000001,0.00038946625,-0.0009206416,0.0014814552000000003,0.005991551200000001,6.939,0,0
0.0044989420000000006,0.0008050330499999999,-0.001658751,0.0006343332,0.0031245414200000007,6.94,0,0
0.002750494,0.00089994505,-0.0024933200000000003,-0.0004100026,0.00018021542000000012,6.941,0,0
0.0007711699999999998,0.00109989305,-0.0022520058,-0.00042894000000000005,-0.00142991458,6.942,0,0
-0.0009322980000000001,0.0013916380499999997,-0.0015526928,-0.0003393038,-0.0018931865800000001,6.943,0,0
-0.0033640080000000004,0.0007497230000000001,-0.0012820247000000001,-0.0009753044,-0.00312547978,6.944,0,0
-0.0055719,-0.0004080389999999999,-0.0005220319000000001,-0.0012513884000000001,-0.0040822340000000006,6.945,0,0
-0.006338984000000001,-0.0015741790000000002,0.00026814769999999996,-0.0011562830000000001,-0.0035506180000000006,6.946,0,0
-0.0065126360000000005,-0.0028861830000000005,0.00011589150000000003,-0.0012006281999999999,-0.0030930116000000003,6.947,0,0
-0.006471128,-0.0032752799999999998,-0.00038422150000000003,-0.0007787643999999999,-0.002674421600000001,6.948,0,0
-0.0047498202,-0.0026360600000000004,-0.00043727319999999997,0.00035117359999999997,-0.0014701444,6.949,0,0
-0.0022473862,-0.00202510621,-0.0005278781999999999,0.000969811,-0.0006899452000000001,6.95,0,0
-0.00012496220000000001,-0.00154710421,-0.0007838250000000001,0.0007794119999999999,-0.0008838292000000001,6.951,0,0
0.0021098778000000003,-0.00081897981,-0.000771547,0.000513378,-0.0009023923999999999,6.952,0,0
0.004543909800000001,-0.00027941501,-0.0005549792,1.3983000000000046e-05,-0.0006354311200000001,6.953,0,0
0.006250208,-0.00021136760999999999,-0.000660997,-0.000497118,-0.00081255452,6.954,0,0
0.006713950000000001,0.00023818460000000002,-0.0011396528,-0.0009732254000000002,-0.0007943521200000001,6.955,0,0
0.0069528,0.0013244186000000002,-0.0013495476,-0.0010763,-0.00042050952,6.956,0,0
0.006207918000000001,0.0023061002000000002,-0.0008118476000000001,-0.0010053378,-0.00043581312,6.957,0,0
0.003854422,0.0029218794,-0.00010476340000000004,-0.0013438847999999999,-0.0008448964000000001,6.958,0,0
0.0015151020000000004,0.0035631660000000004,0.00040714000000000006,-0.0012049828000000001,-0.0009339842000000001,6.959,0,0
-0.0003229060000000001,0.00400917,0.001653022,-0.0006671227999999999,-0.0009937478000000002,6.96,0,0
-0.0026603020000000002,0.0037399480000000003,0.0037769680000000003,-0.00037324,-0.0016592624,6.961,0,0
-0.004820990000000001,0.0029308618,0.0057539800000000006,-2.1844199999999936e-05,-0.001818134,6.962,0,0
-0.00554752,0.0018546418000000002,0.007597356000000001,0.0007655477999999999,-0.0015078904,6.963,0,0
-0.0059999120000000005,0.0005491718000000002,0.009686650000000002,0.0010010348,-0.0021031784,6.964,0,0
-0.006219312,-0.0008115982,0.010444694,0.0009287462000000001,-0.0026024124000000003,6.965,0,0
-0.004854703,-0.0021524502000000003,0.008178474000000002,0.0014523114,-0.0019755604,6.966,0,0
-0.0027309710000000004,-0.00318524,0.0029960539999999997,0.0015404194,-0.0019122403999999999,6.967,0,0
-0.001029259,-0.003337154,-0.0029005059999999997,0.0009361494000000001,-0.00234438,6.968,0,0
0.0014674770000000002,-0.0026957232,-0.007877246000000001,-0.00015190860000000007,-0.001368326,6.969,0,0
0.004684413,-0.0018641272,-0.011715280000000002,-0.0010717360000000002,0.00014200399999999994,6.97,0,0
0.006230652,-0.0008289851999999999,-0.012474926,-0.0013800200000000002,0.0013691559999999998,6.971,0,0
0.006542808000000001,0.0005414768,-0.009492728200000002,-0.0008692400000000001,0.002969362,6.972,0,0
0.007006942,0.0015644328,-0.005749616200000001,9.269400000000004e-05,0.003979422,6.973,0,0
0.00595672,0.001732508,-0.0029224402000000006,0.0009673938,0.003207962,6.974,0,0
0.0026948599999999994,0.0014050594,-0.0005643124000000001,0.0017237836000000002,0.0018034400000000001,6.975,0,0
0.00012599399999999993,0.0015342813999999999,0.0008314016,0.0016321247999999998,0.0007009956000000003,6.976,0,0
-0.0013416679999999999,0.0014585054,0.0012381878,0.0010226248,-0.00047357020000000005,6.977,0,0
-0.0036555960000000005,0.00045197140000000015,0.0009074069999999999,0.00040955840000000005,-0.0008092778000000002,6.978,0,0
-0.00535764,-0.00044066859999999995,2.7238999999999974e-05,0.00021315060000000002,0.00015499819999999998,6.979,0,0
-0.004894476,-0.0011307600000000002,-0.00034314680000000007,3.689680000000008e-05,0.0012979422,6.98,0,0
-0.0043157560000000005,-0.002077362,-0.00024304879999999994,-0.0004445424,0.0021232086,6.981,0,0
-0.003981884000000001,-0.0025393182000000005,-0.00027468280000000005,-0.0006099506,0.0031155844000000004,6.982,0,0
-0.0017843660000000003,-0.0015901402000000004,0.00021164000000000014,-0.000521217,0.004469804,6.983,0,0
0.0006167479999999999,-0.0005334762,0.001216264,-0.000293822,0.005356262,6.984,0,0
0.001978386,9.339339999999999e-05,0.0016189708,0.00011016779999999997,0.005386314,6.985,0,0
0.004070338,0.0009173374,0.0015078426,0.00047821340000000004,0.005297286,6.986,0,0
0.006100728000000001,0.0011854182,0.0013087626000000002,0.00019407360000000005,0.004790302,6.987,0,0
0.006555876,0.0010572722,0.0011528166,-0.0004676156,0.0033496826,6.988,0,0
0.00700512,0.0019176422,0.0012123126,-0.0010599306,0.0019275088000000001,6.989,0,0
0.007735744000000001,0.0037261786000000003,0.0014691578,-0.0017865724,0.0010306228,6.99,0,0
0.005792245600000001,0.0043536326,0.0013428332000000002,-0.00238753,-0.00038193520000000014,6.991,0,0
0.0021570036000000004,0.0035064280000000002,0.0008883972000000001,-0.0023622000000000005,-0.0017689532,6.992,0,0
-0.0006350583999999999,0.001958438,0.0009911092,-0.002084756,-0.0021622638,6.993,0,0
-0.0037900624000000004,-0.0002785200000000004,0.0010532872,-0.00196483,-0.0027048080000000004,6.994,0,0
-0.0072823444,-0.0028250060000000006,0.0007928824000000001,-0.0014866054,-0.0030805500000000005,6.995,0,0
-0.008452536,-0.004393982,0.0006118466000000001,-0.0005189534,-0.0023473196000000003,6.996,0,0
-0.007255810000000001,-0.004251604,0.0006584944000000002,6.95486e-05,-0.0015110894,6.997,0,0
-0.006108162,-0.0035744040000000006,0.00028562320000000016,0.00030456260000000007,-0.0016224134,6.998,0,0
-0.004481198079999999,-0.00286767,-0.0005904848000000001,0.0009780086,-0.0012036634,6.999,0,0
-0.0020268620800000005,-0.002127193,-0.0009108972000000001,0.0013281760000000001,-0.0005607628,7.0,0,0
-0.00012754808000000012,-0.0013494651999999998,-0.0007144090000000002,0.0010452002,-0.0014573612,7.001,0,0
0.00172681792,-0.00034790520000000004,-0.0006971810000000002,0.0010626262000000002,-0.0018511074000000002,7.002,0,0
0.00399415392,0.0008960988000000001,-0.0007251482000000001,0.00114336,-0.0007630274000000002,7.003,0,0
0.005401604,0.0014943008000000003,-0.00029126540000000005,0.0008978604,7.051460000000002e-05,7.004,0,0
0.005653124000000001,0.0016823002000000001,1.960459999999997e-05,0.0010096804000000001,0.0003541979999999999,7.005,0,0
0.0057938960000000015,0.0020570364,0.0006288810000000001,0.0012229322,0.00116903608,7.006,0,0
0.005018074000000002,0.0016937434,0.0016600792000000001,0.0006203882000000001,0.00112771208,7.007,0,0
0.0025047560000000003,0.0009681762000000001,0.0022407416000000003,5.268840000000009e-05,-0.00078028792,7.008,0,0
-0.0002601579999999999,0.0006096768,0.0022090028,0.00019485980000000008,-0.00247019592,7.009,0,0
-0.00203774,0.0003919578,0.0014706619999999998,-0.0001058186,-0.00318247992,7.01,0,0
-0.004075512,-9.773420000000001e-05,0.00022425999999999978,-0.0008346466000000001,-0.003452558,7.011,0,0
-0.006013476,-0.00026131040000000003,-0.0011179940000000002,-0.00043175080000000006,-0.003422428,7.012,0,0
-0.00562436,6.659679999999999e-05,-0.002213342,0.0006637311999999999,-0.002672506,7.013,0,0
-0.0043984726,0.00019,-0.0023249508,0.0007663153999999999,-0.002031798,7.014,0,0
-0.0037713525999999997,0.0001782024,-0.0017224256,0.0007287625999999999,-0.0023799199999999998,7.015,0,0
-0.0020098446,0.0003207676,-0.0013084502,0.0011736272,-0.002953896,7.016,0,0
0.00016303939999999994,-0.00026239920000000003,7.117579999999998e-05,0.0006840173999999999,-0.0033381500000000002,7.017,0,0
0.0007328434,-0.0014297172000000001,0.0018026878,-0.00035223660000000006,-0.0034083840000000004,7.018,0,0
0.001678624,-0.0015890174,0.0019259276,-0.0009690006,-0.0030372894,7.019,0,0
0.003629862,-0.0015370852000000002,0.0011928023999999999,-0.0018061714000000002,-0.0016722954,7.02,0,0
0.00442266,-0.0015676432,0.0002625150000000003,-0.002476216,0.0004306326000000002,7.021,0,0
0.004425406000000001,-0.0006468752000000002,-0.001879557,-0.001372622,0.0028779626000000006,7.022,0,0
0.00471939,0.0003819214,-0.003858807,0.0006869919999999999,0.0050991886,7.023,0,0
0.0038035678,0.000616433,-0.00395418,0.001907368,0.005634278000000001,7.024,0,0
0.0010024558,0.00039516700000000003,-0.0032409404000000005,0.0027793886,0.004483268000000001,7.025,0,0
-0.0011990502000000002,-0.0001355542000000001,-0.0018730744000000003,0.0035599266,0.0028487500000000006,7.026,0,0
-0.0025386542,-0.0008416722,-3.3020399999999844e-05,0.002861596,0.000976721,7.027,0,0
-0.0043371982000000005,-0.0015341068000000002,0.0012654616,0.001027178,-0.000818862,7.028,0,0
-0.005539906,-0.002082454,0.0020717536,0.00022337580000000005,-0.0009218680000000002,7.029,0,0
-0.005378046,-0.0017271504000000001,0.002950684,0.00032609120000000005,0.000362522,7.03,0,0
-0.005339304,-0.0011604413999999998,0.003432366,0.00012276080000000003,0.001220026,7.031,0,0
-0.005299435999999999,-0.0009258314,0.003069252,-4.742259999999999e-05,0.0017152550000000002,7.032,0,0
-0.003545262,-0.00026220560000000004,0.0027010614,0.00018695424000000004,0.002409208,7.033,0,0
-0.001267356,0.0006970024,0.0020057204,-3.9830359999999974e-05,0.0023831679999999997,7.034,0,0
0.000716202,0.0013288628,6.574639999999991e-05,-0.00065442636,0.0020373260000000003,7.035,0,0
0.003280874,0.0017545278,-0.0020379456,-0.00066789336,0.0020190520000000003,7.036,0,0
0.005596754000000001,0.0025954377999999998,-0.0027742875999999996,-0.00056720372,0.0013351340000000002,7.037,0,0
0.005915686,0.0028968880000000002,-0.0025049249999999994,-0.00096880656,-9.956600000000004e-05,7.038,0,0
0.0053452280000000005,0.002732514,-0.0018953319999999996,-0.00150797576,-0.0012475340000000002,7.039,0,0
0.0049637940000000005,0.002654376,-4.427399999999996e-05,-0.00175759776,-0.0024338840000000003,7.04,0,0
0.002809006,0.002130831,0.002262774,-0.00231017836,-0.003975626,7.041,0,0
-0.00030892599999999973,0.0007800149999999999,0.0034285220000000003,-0.00294922,-0.0038656582,7.042,0,0
-0.0023692879999999998,-0.001283143,0.002709394,-0.002216978,-0.0022217162,7.043,0,0
-0.004564178,-0.0031050270000000002,0.00044738999999999977,-0.0005686159999999999,-0.0014208062000000002,7.044,0,0
-0.007284806000000001,-0.004557399,-0.0015978600000000002,0.0007559760000000001,-0.0011408862,7.045,0,0
-0.008057596,-0.005468428,-0.0034120560000000006,0.0018705540000000002,4.9153799999999916e-05,7.046,0,0
-0.007029216000000001,-0.005156366,-0.004528266,0.0027486560000000004,0.000527768,7.047,0,0
-0.005965858000000001,-0.00320572,-0.0038577680000000006,0.002674322,5.2899999999999985e-05,7.048,0,0
-0.003858438000000001,-0.001116162,-0.0022268570000000005,0.0018137238000000002,0.000744358,7.049,0,0
-0.00057058,0.0002752859999999999,-0.0009475270000000002,0.0009136098000000002,0.001933014,7.05,0,0
0.0019693519999999997,0.001559578,-2.7489999999999698e-06,-1.3621999999999376e-06,0.002062884,7.051,0,0
0.00360468,0.0021176698000000002,0.0002035270000000001,-0.00047304020000000005,0.001991688,7.052,0,0
0.005886176,0.0023290858,-0.00036094299999999996,-0.0008078610000000001,0.0023596300000000006,7.053,0,0
0.007794234,0.0026839238000000007,-0.00028409299999999996,-0.0013580948,0.0019530260000000003,7.054,0,0
0.007928142000000001,0.0027776618,-7.070759999999997e-05,-0.0015413648000000002,0.000897712,7.055,0,0
0.007649028,0.0027475538,-0.0002527382,-0.0014883868,0.000128946,7.056,0,0
0.0068943300000000015,0.0031317300000000005,8.639400000000003e-05,-0.0014330652000000001,-0.000860642,7.057,0,0
0.003988684,0.0031241520000000007,0.00066318,-0.0016850804000000002,-0.002826174,7.058,0,0
0.000474756,0.0023568160000000003,0.0008272170000000001,-0.0017767984000000001,-0.004305252,7.059,0,0
-0.002066762,0.001894676,0.0014200076,-0.0018021804000000002,-0.004077804,7.06,0,0
-0.004773864000000001,0.0012767720000000002,0.0023137482,-0.0017533184,-0.003078692,7.061,0,0
-0.007024426,0.00016018399999999996,0.002619302,-0.0010474780000000001,-0.0011663020000000001,7.062,0,0
-0.007275578,-0.000477983,0.0021829761999999997,0.00026175000000000005,0.001545666,7.063,0,0
-0.006746012,-0.0008120236000000001,0.0015911402,0.001671764,0.003207672,7.064,0,0
-0.006226124,-0.0015463896,0.0007778260000000001,0.0028044600000000004,0.0032970506,7.065,0,0
-0.00406648,-0.0017606356000000002,-0.00037249600000000005,0.0036015,0.0030780746000000003,7.066,0,0
-0.0011446139999999997,-0.0013561970000000002,-0.00113939,0.003303556,0.0024788246,7.067,0,0
0.0007864860000000001,-0.00100219,-0.0015093122,0.002292671,0.00109054022,7.068,0,0
0.002829328,-0.0008286960000000001,-0.0015952982,0.0012659464000000001,0.0010876782200000001,7.069,0,0
0.005747232,-0.0005589220000000001,-0.0012614619999999999,0.00040951820000000017,0.00254578162,7.07,0,0
0.007519856,0.00048172000000000004,0.0003575220000000003,-0.00018851380000000002,0.00282659162,7.071,0,0
0.007783118,0.0015539994,0.0027552500000000008,-0.0004284709200000001,0.00217238382,7.072,0,0
0.008372144000000002,0.0021354674000000004,0.0054975200000000005,-0.0006577619200000001,0.0022273802000000002,7.073,0,0
0.0075640099999999995,0.00255524,0.008142344000000001,-0.00106612532,0.0013542662,7.074,0,0
0.004489778,0.002695433,0.008883160000000001,-0.00110124712,-0.0011006898,7.075,0,0
0.001733692,0.002348485,0.007714301200000001,-0.0008611627200000001,-0.0026047938,7.076,0,0
-0.00041280600000000015,0.0020154450000000003,0.0051663732,-0.0007716822000000001,-0.0035262699999999998,7.077,0,0
-0.0036888199999999998,0.001066614,0.0008564131999999995,-0.0007836722,-0.004661036,7.078,0,0
-0.0064512860000000005,-0.0003660820000000001,-0.004722946800000001,-0.00039894180000000004,-0.004919408,7.079,0,0
-0.006817618000000001,-0.001071941,-0.008874940800000002,0.0001497582,-0.004124168,7.08,0,0
-0.006935598000000001,-0.001978203,-0.01044213,0.00044670580000000004,-0.00315098634,7.081,0,0
-0.007095682,-0.0031081750000000003,-0.010755002000000001,0.00032920040000000006,-0.0014356763400000003,7.082,0,0
-0.0052551246,-0.0035884300000000005,-0.009570164,0.0005562366,0.00122485366,7.083,0,0
-0.0022333745999999995,-0.00337447,-0.006256944880000001,0.0009928282000000001,0.0028125196600000003,7.084,0,0
-0.00021081659999999983,-0.0027827298000000006,-0.0028385508800000004,0.0007775356,0.0033356798600000003,7.085,0,0
0.0022814574000000003,-0.0019067358000000002,-0.0013120030799999999,0.0005757936,0.0040356842,7.086,0,0
0.0056410034000000005,-0.0005423278,-0.0006283250800000001,0.0007738964,0.0040398382,7.087,0,0
0.007240170000000001,0.0008972062000000001,0.00023338430000000002,0.0006937778,0.0025044426,7.088,0,0
0.007532572000000001,0.001533338,0.00052308118,0.0001852738,0.0013025966,7.089,0,0
0.007418228000000001,0.0013426638,0.00023693118,-5.7228000000000395e-06,0.0010106136000000003,7.09,0,0
0.005224256000000002,0.0004959098000000002,0.00050543938,-0.00023567518,0.00026299720000000007,7.091,0,0
0.0014917820000000003,-0.0009343642000000001,0.00142013538,-0.00049300198,-0.0007362448,7.092,0,0
-0.0011209780000000001,-0.0020280642000000005,0.00200675,-0.00049961858,-0.0008310098,7.093,0,0
-0.0034201760000000005,-0.0022182720000000003,0.002436534,-0.00047619858,-0.0005652818,7.094,0,0
-0.00588694,-0.002079014,0.003264734,-0.00039006258,-0.0011779050000000001,7.095,0,0
-0.006878646,-0.001973618,0.0036097300000000002,-0.00015035819999999997,-0.0016793586000000001,7.096,0,0
-0.00647303,-0.0017516520000000002,0.003289158,5.135240000000006e-05,-0.0016408346,7.097,0,0
-0.00577159,-0.0013727616,0.0031913080000000003,0.00022614920000000005,-0.0021515040000000003,7.098,0,0
-0.003978214,-0.0003982275999999999,0.002947778,0.0006351222000000002,-0.0028682560000000005,7.099,0,0
-0.000849484,0.0012090204,0.0023108,0.00048425300000000014,-0.002761878,7.1,0,0
0.0012642760000000002,0.0024252184,0.0015063516000000002,-8.8981e-05,-0.0030190160000000002,7.101,0,0
0.002686728,0.0027598176,0.0006678276000000001,-0.0006821396,-0.003493246,7.102,0,0
0.00451646,0.0026640692000000003,-0.0004797264,-0.0015282674,-0.002069942,7.103,0,0
0.005746692000000001,0.0016522552000000001,-0.0019855964,-0.0022942904,0.00019266200000000013,7.104,0,0
0.005714484000000001,7.516519999999996e-05,-0.0028037724000000005,-0.0021770200000000004,0.00234498,7.105,0,0
0.005801498,-0.00042460460000000007,-0.0032582120000000003,-0.0011431619999999999,0.004717962,7.106,0,0
0.005994974,-0.0001555814,-0.0031976460000000006,-0.0001035439999999998,0.00547206798,7.107,0,0
0.003975266000000001,8.531059999999994e-05,-0.002219118,0.0005620856000000001,0.0034775939799999993,7.108,0,0
0.00080087,0.0004559178,-0.0011640578000000003,0.0010063094000000003,0.0006562559800000001,7.109,0,0
-0.0013648739999999999,0.00067175354,-0.00012934380000000003,0.0008163732000000001,-0.00218916802,7.11,0,0
-0.003553012,0.00060227674,0.0014107302,-0.0004260887999999999,-0.00488254202,7.111,0,0
-0.006126488,0.0005416295400000001,0.0026881262,-0.0011428205999999999,-0.00541605,7.112,0,0
-0.0065244019999999995,0.00014990234,0.0031055542,-0.0006623442000000001,-0.00357311,7.113,0,0
-0.005732986,-0.00059749886,0.003970182,0.00012143800000000008,-0.0008239539999999998,7.114,0,0
-0.006005196,-0.0011941886,0.004448084000000001,0.0010760942000000002,0.0018670400000000001,7.115,0,0
-0.00491171,-0.0014776176000000003,0.004012776,0.0020982382,0.0045271600000000006,7.116,0,0
-0.0022532800000000003,-0.0015049660000000002,0.002766822,0.0023430124,0.006595930000000001,7.117,0,0
-0.000613036,-0.0015396536,0.00028113400000000016,0.0016191183999999998,0.0068365840000000015,7.118,0,0
0.0009181800000000003,-0.0009922842,-0.0020835640000000004,0.0009846518000000003,0.0062020519999999996,7.119,0,0
0.0036326040000000006,-5.444200000000025e-06,-0.003801764,0.0005168318,0.005242668000000001,7.12,0,0
0.005386096,0.0004618974000000001,-0.004865858000000001,-0.00030114620000000003,0.003236736,7.121,0,0
0.00535412,0.0010055406,-0.004903118,-0.0009773826000000002,0.0009013520000000002,7.122,0,0
0.005414028,0.0019933414,-0.0037605300000000006,-0.0009497126000000001,-0.000796292,7.123,0,0
0.004975826000000001,0.002584166,-0.0024745096000000004,-0.0011009694000000002,-0.0024654160000000002,7.124,0,0
0.002831496,0.002617222,-0.0016312248000000002,-0.0013084994,-0.003993514,7.125,0,0
0.0003873180000000002,0.0025612100000000004,-0.0009677848000000001,-0.0006466613999999999,-0.004217118,7.126,0,0
-0.001614628,0.001711882,-0.00044846079999999987,-0.00010749600000000003,-0.004570474,7.127,0,0
-0.004109632,0.0002914320000000001,0.0006061732000000001,-4.374199999999996e-05,-0.005593112000000001,7.128,0,0
-0.006245668000000001,-0.0009044400000000003,0.0013788848000000002,-6.346619999999999e-05,-0.005770478000000001,7.129,0,0
-0.006379218000000001,-0.0018715100000000003,0.00135742916,-0.0004432562,-0.0055185500000000005,7.13,0,0
-0.006009442000000001,-0.002464744,0.0015178511600000002,-0.0011104302,-0.0058937780000000006,7.131,0,0
-0.005555614,-0.0027681660000000003,0.0013403316000000001,-0.0016999915999999999,-0.0051216000000000005,7.132,0,0
-0.003458754,-0.00282136,0.00034178760000000007,-0.0017406796,-0.0017458299999999999,7.133,0,0
-0.000965356,-0.002409198,4.8717599999999976e-05,-0.0012414560000000002,0.0017002600000000007,7.134,0,0
0.0004941140000000001,-0.0018929692,0.00040217644,-0.00016848600000000013,0.004560542000000001,7.135,0,0
0.0024723699999999998,-0.0015474152,0.00021546244,0.001411262,0.007889986,7.136,0,0
0.005191431999999999,-0.0007771892,0.001247684,0.002691488,0.009748094000000002,7.137,0,0
0.006137454,-0.00019783099999999998,0.0033876180000000002,0.0028343592,0.0080989172,7.138,0,0
0.0058505779999999995,4.900960000000002e-05,0.0035961540000000003,0.0020819771999999997,0.0049418992,7.139,0,0
0.005754088,0.0005865768,0.002345052,0.0009701251999999999,0.0024670911999999994,7.14,0,0
0.00442308468,0.0010282887999999999,0.0012325999999999997,-0.0006835908,-0.00021540280000000012,7.141,0,0
0.0014289746800000003,0.0014600728,-0.0009776520000000003,-0.0014324052000000002,-0.0030324768,7.142,0,0
-0.0008812553199999999,0.0021099686,-0.0034388720000000004,-0.0010425804000000001,-0.00440509,7.143,0,0
-0.0023322153200000004,0.0022568102,-0.0034788820000000004,-0.000772194,-0.004732892000000001,7.144,0,0
-0.00446802332,0.0016857878,-0.0017459920000000005,-0.0003379054,-0.005356158,7.145,0,0
-0.005695486000000001,0.0006750717999999999,-4.676200000000043e-05,7.083660000000001e-05,-0.0049970316,7.146,0,0
-0.005301172,-0.0006841042000000001,0.0013740419999999998,0.000321535,-0.0034170836,7.147,0,0
-0.0049931179999999995,-0.0014543442,0.0020643554,0.001086999,-0.0025042636,7.148,0,0
-0.004544622,-0.0013727094,0.0009642873999999998,0.0019442366,-0.0014478332,7.149,0,0
-0.002596628,-0.0008302390000000002,-0.0008172426000000001,0.0018465880266,0.0003557268,7.15,0,0
-0.0002994959999999998,0.00038558699999999995,-0.0016855066,0.0014534020265999999,0.0010837164,7.151,0,0
0.001761576,0.002261139,-0.0016221926,0.0009405000265999999,0.0018469384,7.152,0,0
0.0045709340000000005,0.003931365000000001,-0.0012865858,-0.00025589597340000005,0.0038095144,7.153,0,0
0.007030536,0.004602318,-0.0006583804000000001,-0.0015020499734,0.004473762000000001,7.154,0,0
0.007431536,0.0043688780000000005,-0.00019859039999999998,-0.0021576860000000002,0.0036691456,7.155,0,0
0.00675289,0.0037897550000000006,-0.0011131524000000002,-0.002266478,0.0028503860000000003,7.156,0,0
0.005822821999999999,0.0026281200000000003,-0.0018940304000000002,-0.0026237760000000004,0.001469764,7.157,0,0
0.002906026,0.0006727460000000001,-0.0021332402000000003,-0.0031305780000000006,-0.00028261400000000015,7.158,0,0
-0.0006608820000000002,-0.000800678,-0.0021295103200000003,-0.0028255580000000006,-0.00064788,7.159,0,0
-0.002810524000000001,-0.0017601740000000002,-0.0007589623200000003,-0.0018109660000000002,-0.00020368159999999992,7.16,0,0
-0.004831386000000001,-0.0027936750000000002,0.00135051168,-0.0005711119999999999,-0.0005718040000000001,7.161,0,0
-0.006819222000000001,-0.003452096,0.00285382368,0.0009152780000000002,-0.001068734,7.162,0,0
-0.007348460000000001,-0.0035686260000000005,0.0038884772800000006,0.001960758,-0.001442558,7.163,0,0
-0.006792776000000001,-0.003557578,0.004800684,0.0022480754,-0.002438852,7.164,0,0
-0.006213778,-0.00330094,0.004603312,0.002005361,-0.003666916,7.165,0,0
-0.004739160599999999,-0.0025056412,0.002856946,0.0013774470000000002,-0.0036892220000000002,7.166,0,0
-0.0019485226000000003,-0.0017757236,0.00010444600000000023,0.0006666308,-0.00254403,7.167,0,0
0.0006275934000000002,-0.0008080956,-0.002189748,0.0006143788,-0.0005001740000000001,7.168,0,0
0.0027861714,0.0004967364000000001,-0.0044043,0.0016083873999999999,0.0026386680000000003,7.169,0,0
0.005428145400000001,0.0014282024,-0.006393556,0.0022693217999999998,0.005351456,7.17,0,0
0.0071398880000000005,0.0015638430000000003,-0.006094044000000001,0.0024706638000000004,0.006455081999999999,7.171,0,0
0.006809184000000001,0.0013166656000000003,-0.004638678,0.0024608098000000003,0.0062554692000000005,7.172,0,0
0.006408810000000001,0.0012929096,-0.0033410546,0.0016222577999999996,0.004747924400000001,7.173,0,0
0.005867578000000001,0.0010056576,-0.0015569446,0.00017107180000000018,0.0015724564,7.174,0,0
0.003394566,0.0007070842,0.0004613414000000001,-0.000711477,-0.0018220676,7.175,0,0
0.001022726,0.0009196518000000001,0.0015892014000000003,-0.0010552609999999998,-0.0038345256000000003,7.176,0,0
-0.0003592220000000001,0.0011903604,0.0023026714,-0.0011713026000000001,-0.0048690268000000005,7.177,0,0
-0.002686786,0.000741843,0.0031889260000000003,-0.0007528616000000001,-0.005603996000000001,7.178,0,0
-0.0048751540000000005,-8.08330000000001e-05,0.004065488000000001,-0.0005118732,-0.005338184,7.179,0,0
-0.005311804000000001,-0.0006299976,0.0048272,-0.000486658,-0.0036236732000000005,7.18,0,0
-0.005640704000000001,-0.0012690626000000003,0.005853738000000001,-0.000661888,-0.0016829612,7.181,0,0
-0.006053768,-0.0018997794,0.006790394,-0.0004757348,-4.12711999999998e-05,7.182,0,0
-0.0043971190000000005,-0.0021448220000000002,0.0060123192,0.00013622219999999998,0.0020930008000000005,7.183,0,0
-0.0019117089999999997,-0.002012044,0.004107357200000001,0.00032269639999999995,0.0037389008,7.184,0,0
-0.00010570899999999995,-0.00162870218,0.0016596272000000002,0.000129358,0.0037677380000000005,7.185,0,0
0.002336275,-0.0009116081799999999,-0.0025166648000000003,0.00012217400000000007,0.003539888,7.186,0,0
0.005266309,-0.00013143418000000003,-0.0066787688,-0.00011286159999999999,0.0033252919999999997,7.187,0,0
0.006587032,0.00068980782,-0.0077273739999999995,-0.0007564700000000001,0.0020305979999999998,7.188,0,0
0.006686716,0.0014975558200000002,-0.006982872,-0.0010606626000000002,0.000669752,7.189,0,0
0.007015942000000001,0.0022957,-0.00562784,-0.0015111066000000001,0.00018055000000000002,7.19,0,0
0.0057504468000000005,0.0029773060000000003,-0.002677158,-0.0023919686,-0.0009069340000000001,7.191,0,0
0.0026409108,0.002432354,2.0400000000126046e-08,-0.0033914884,-0.0019527000000000004,7.192,0,0
-7.332119999999996e-05,0.0013837999999999997,0.0005630504,-0.0037150160000000002,-0.0020917260000000003,7.193,0,0
-0.0025362292,0.0006604119999999999,0.00028163179999999985,-0.00349557,-0.0027208280000000007,7.194,0,0
-0.005440871200000001,-0.0004832100000000002,7.229939999999998e-05,-0.0029256398,-0.0037225240000000005,7.195,0,0
-0.007027814,-0.0015205624000000002,-0.0001827266,-0.0017609994,-0.00416565,7.196,0,0
-0.006408958000000001,-0.0015675524,-9.150499999999994e-05,-0.0007191150000000001,-0.0043470240000000005,7.197,0,0
-0.005423914,-0.0015911524000000001,0.0003809214000000001,-0.0003869626,-0.004482222,7.198,0,0
-0.004365198000000001,-0.0021413804,0.0006029018000000001,-0.0006071006,-0.003296282,7.199,0,0
-0.0020623800000000004,-0.0022601584,0.0006909642,-0.00022894480000000008,-0.0006241739999999999,7.2,0,0
0.0007084180000000002,-0.0019014879999999998,0.0011108662,0.0007116567999999998,0.0022266900000000004,7.201,0,0
0.002677494,-0.001214276,0.0013518282000000003,0.0017449284,0.0043254,7.202,0,0
0.004964226,-0.0001262919999999997,0.0014027682,0.0028470459999999998,0.005655970000000001,7.203,0,0
0.007090502,0.0008865180000000001,0.0017881403999999998,0.004231592,0.005848682,7.204,0,0
0.007593814000000001,0.001537814,0.0018011983999999999,0.005037162,0.004218996,7.205,0,0
0.007590084,0.002004698,0.0012078956,0.00478935,0.0018609699999999998,7.206,0,0
0.0066327980000000005,0.002325924,0.0015677456,0.004447844,1.9587999999999962e-05,7.207,0,0
0.0036339720000000005,0.0020386246,0.0024591592,0.0037129684,-0.001776364,7.208,0,0
4.73759999999998e-05,0.0018819642,0.0025181112,0.0031231964,-0.003202766,7.209,0,0
-0.0027678480000000007,0.0017898458000000003,0.0019035952000000002,0.0027183024,-0.002644648,7.21,0,0
-0.0056517500000000005,0.0002179918,0.000676322,0.0023879444,-0.0009972699999999998,7.211,0,0
-0.008293420000000001,-0.0017958422000000003,-0.0011340100000000004,0.0027590443999999997,-0.00027490999999999985,7.212,0,0
-0.008952422000000002,-0.0028092308000000005,-0.002660144,0.0031943320000000002,0.0003323950000000001,7.213,0,0
-0.008201218000000001,-0.0034131304000000005,-0.0034169486,0.0026782426400000004,0.0013207400000000004,7.214,0,0
-0.007311074000000001,-0.0038941940000000006,-0.0032491596,0.00164761664,0.0010283193200000002,7.215,0,0
-0.00542825,-0.0033446840000000005,-0.0021406069999999997,0.00041021463999999994,0.00052966332,7.216,0,0
-0.00238082,-0.0020869862000000004,-0.0010724766,-0.0016118773600000001,0.0012596653200000001,7.217,0,0
0.00030164600000000003,-0.0008392261999999998,-0.0005211064,-0.0035557013600000004,0.00262927832,7.218,0,0
0.0022123480000000003,0.0007625618000000002,-0.00027147440000000004,-0.004874418,0.00357311332,7.219,0,0
0.003232548,0.0028436218000000004,0.00015495259999999996,-0.0054058660000000005,0.0038819600000000003,7.22,0,0
0.00260433,0.0045990778,0.0005057099999999999,-0.005578492,0.0037768560000000003,7.221,0,0
0.0006641339999999998,0.00464748356,0.0006428396,-0.005229316,0.002433096,7.222,0,0
-0.001033524,0.0033646575600000004,0.0005613446,-0.004112058,0.00017018200000000028,7.223,0,0
-0.001471294,0.0016562535599999998,0.0005842174,-0.0035676499999999995,-0.0025290119999999998,7.224,0,0
-0.0007332879999999998,-0.0005214424400000002,0.0004556168,-0.003101342,-0.004924976,7.225,0,0
0.001261852,-0.00221488844,-0.00014967320000000003,-0.0017882279999999998,-0.006449542000000001,7.226,0,0
0.0037944580000000006,-0.0024986120000000003,-0.0002528754,-0.0008980580000000003,-0.006945998000000001,7.227,0,0
0.0046198178,-0.0018497540000000003,6.865739999999999e-05,-0.0005647510000000002,-0.007155952,7.228,0,0
0.0038055558,-0.0010864478000000002,0.0003284912,8.392779999999997e-05,-0.0056692366,7.229,0,0
0.0029413421999999996,-0.00043590519999999995,0.00036809740000000004,0.0004318986,-0.0013842766000000005,7.23,0,0
0.0012470978000000002,-0.0001235934,0.0007772634000000002,0.0010723486,0.0019573793999999992,7.231,0,0
-0.0015587062,-0.0005205514000000001,0.0006520156,0.0017078886,0.0039629674,7.232,0,0
-0.00249307,-0.0012749414,-0.00044048440000000013,0.0014491916000000003,0.006314983399999999,7.233,0,0
-0.001519066,-0.0017824856,-0.0011981744000000001,0.0011652988,0.007187763999999999,7.234,0,0
-0.0009690443999999999,-0.0017220322000000001,-0.0014531994000000002,0.000563066,0.00533944,7.235,0,0
0.000679082,-0.001009556,-0.0016101162,-0.0008725320000000001,0.003885038,7.236,0,0
0.0040075860000000005,0.0006168339999999999,-0.0017102022000000001,-0.002079972,0.003135304,7.237,0,0
0.006346852,0.002516174,-0.0013345182,-0.0021146758,0.0011656400000000003,7.238,0,0
0.007155042,0.00379926,-0.0009515802000000001,-0.0015579350000000003,-0.0001767060000000001,7.239,0,0
0.007279564,0.004512708,-0.0008835148,-0.0008634068000000002,-0.0006565577999999999,7.24,0,0
0.005957115999999999,0.0044555440000000005,-0.0007664548,-0.0006865968000000001,-0.0018943898,7.241,0,0
0.003089264,0.003979408,-0.0002680314000000001,-0.0007464268,-0.0029563598000000003,7.242,0,0
-0.00015118800000000002,0.0035129360000000004,0.00022857280000000002,-0.00039436979999999994,-0.0023248858000000003,7.243,0,0
-0.0030911840000000003,0.0024494642000000002,0.0010832748,1.9803400000000014e-05,-0.0019970458,7.244,0,0
-0.006249326,0.0008795202,0.0034963188000000003,0.0009108451999999999,-0.003122306,7.245,0,0
-0.008880234,-0.00034039179999999995,0.0062077276,0.0025091252,-0.0037190420000000005,7.246,0,0
-0.009793550000000002,-0.0014117838,0.0076283962,0.0043053252,-0.0036597880000000006,7.247,0,0
-0.009736051999999999,-0.0024265238,0.008090922,0.005441492,-0.004187444,7.248,0,0
-0.00896631,-0.002594672,0.007183483199999999,0.00601074,-0.00438554,7.249,0,0
-0.006014178,-0.0019589440000000002,0.004056787199999999,0.00622599,-0.0025235260000000003,7.25,0,0
-0.002854672,-0.0014549018000000003,3.434719999999996e-05,0.005509052,-0.00019305600000000004,7.251,0,0
-0.0009473868000000002,-0.0013219698,-0.0030405008,0.003925984,0.0010330080000000002,7.252,0,0
0.0016334252000000003,-0.0014386598,-0.0044440508,0.0018251919999999998,0.002800892,7.253,0,0
0.0037711112000000002,-0.0013117878,-0.005042322,-0.0009208420000000001,0.00460555,7.254,0,0
0.0046048992,-0.0009903738,-0.00575292,-0.003835044,0.0045100620000000004,7.255,0,0
0.0049370052000000005,-0.0007808879999999999,-0.005064028,-0.006917872,0.00339903734,7.256,0,0
0.006117496,0.000197494,-0.0036361244,-0.008108718000000001,0.0029589735400000006,7.257,0,0
0.0049668684,0.0007857960000000001,-0.0033175244,-0.005594412,0.00307269354,7.258,0,0
0.0028091684,0.00012821399999999987,-0.0029523084000000004,-0.002543069999999999,0.00321979154,7.259,0,0
0.0049330884000000005,-0.00010614999999999992,-0.0021648364,-0.00025805399999999975,0.0035018955400000005,7.26,0,0
0.0084252564,0.00039672800000000005,-0.0023862444,0.0024194418,0.0039892922,7.261,0,0
0.0119204484,0.00105056,-0.0039536860000000005,0.0035301478000000002,0.004727928,7.262,0,0
0.016807956,0.0026849480000000004,-0.005606640000000001,0.0008353738000000001,0.004617432,7.263,0,0
0.01971882,0.0051712400000000006,-0.0062396940000000005,-0.0016278002,0.002917732,7.264,0,0
0.015975956,0.006649456,-0.0056798052000000005,-0.0014939182000000004,0.0008405000000000003,7.265,0,0
0.008354335999999999,0.0061106962,-0.004257685200000001,-0.00036713200000000005,-0.0011126080000000004,7.266,0,0
-0.0019011440000000004,0.0035675222,-0.0010595952000000005,0.0017414940000000003,-0.00406049,7.267,0,0
-0.013780084000000001,0.00033788220000000014,0.0029642448000000003,0.005256354,-0.007181692,7.268,0,0
-0.023177304000000003,-0.0029628638000000007,0.0061052108,0.009622824,-0.008183668,7.269,0,0
-0.030187860000000004,-0.0074000658,0.008980123999999999,0.012015196000000002,-0.007888142,7.27,0,0
-0.03497166,-0.011942652000000002,0.01045748,0.012483012,-0.007516592000000001,7.271,0,0
-0.03571462,-0.014281398,0.010124016,0.011780892,-0.005806596000000001,7.272,0,0
-0.03127058,-0.014775814,0.009075184,0.0090943826,-0.0034866720000000006,7.273,0,0
-0.024165788000000004,-0.014341982,0.0069734368,0.004046286600000001,-0.0020943764,7.274,0,0
-0.014268128000000005,-0.0116059072,0.0037326568000000003,-0.0016366533999999998,-0.00023345240000000012,7.275,0,0
-0.0009683279999999992,-0.0062722792,8.889080000000016e-05,-0.0060293514,0.0028278255999999997,7.276,0,0
0.011728392,-0.0008911231999999998,-0.0035751852000000003,-0.009482385400000001,0.0064084096,7.277,0,0
0.021692832000000002,0.0033953368000000004,-0.006333933200000001,-0.010994354000000001,0.0099113256,7.278,0,0
0.029134840000000002,0.0071098788,-0.007684946,-0.010764838000000002,0.011940484000000001,7.279,0,0
0.03205922,0.009552344,-0.007971273999999999,-0.010179878,0.011337980000000001,7.28,0,0
0.02960404,0.011574916000000001,-0.006591706999999999,-0.010149578000000001,0.008034012,7.281,0,0
0.024521224,0.013918200000000002,-0.0037359709999999994,-0.011022578000000002,0.002136892,7.282,0,0
0.017732654,0.015448000000000002,-0.000691091,-0.01244708,-0.0049275280000000005,7.283,0,0
0.008709204,0.01584738,0.0019213630000000002,-0.012730810000000002,-0.009908608000000001,7.284,0,0
-8.583600000000059e-05,0.014799836,0.0038514110000000003,-0.010758865400000001,-0.012070294000000002,7.285,0,0
-0.006364336,0.011078418,0.004888794,-0.0083820254,-0.013403698000000002,7.286,0,0
-0.0117798,0.0052643839999999996,0.0051144960000000005,-0.0059658214,-0.013520818,7.287,0,0
-0.01651543,-0.000580916000000001,0.004675416,-0.0032642974000000003,-0.0100521198,7.288,0,0
-0.01806084,-0.007430916000000001,0.0036147360000000008,-0.0018362294000000001,-0.004767219800000001,7.289,0,0
-0.016746554000000004,-0.013642052000000002,0.0022765164000000003,-0.0020672940000000003,-0.0006185218000000002,7.29,0,0
-0.013669841800000002,-0.015756714,0.0009705764000000003,-0.002132848,0.0039888782000000005,7.291,0,0
-0.007432261800000001,-0.014772226,-0.00043359359999999995,-0.002191742,0.0088040982,7.292,0,0
0.0012851381999999995,-0.011980907999999998,-0.0019377055999999998,-0.00280356,0.00957967,7.293,0,0
0.0094155582,-0.006957588,-0.0034101236,-0.003167716,0.006109532,7.294,0,0
0.0161511722,-0.0009258579999999995,-0.004269044,-0.004150334,0.002931494,7.295,0,0
0.02098906,0.0032840740000000005,-0.004119282,-0.005305402,0.00058578,7.296,0,0
0.021608000000000002,0.005550284000000001,-0.0032764986000000003,-0.00585255,-0.003353222,7.297,0,0
0.018307522000000003,0.006179632000000001,-0.0023442241400000005,-0.006804052,-0.007078212,7.298,0,0
0.0133619382,0.0059981159999999995,-0.0013098129400000002,-0.006637395999999999,-0.0069419220000000005,7.299,0,0
0.0062308981999999995,0.005409604,-2.359494000000003e-05,-0.0019475780000000002,-0.004057136,7.3,0,0
-0.0030164018,0.0034447239999999997,0.00084361306,0.008220544,-0.002244072,7.301,0,0
-0.010900861800000002,0.0010626799999999999,0.00139940566,0.022982422000000002,-0.0010533699999999997,7.302,0,0
-0.016633263800000003,-0.001018774,0.0021930832000000003,0.03996403800000001,0.00035508200000000027,7.303,0,0
-0.021437400000000002,-0.0024373980000000003,0.003133992,0.055025080000000004,-0.00013368199999999998,7.304,0,0
-0.023270140000000005,-0.0037665980000000008,0.003183554,0.06391580000000001,-0.001778196,7.305,0,0
-0.020628094000000003,-0.0047424120000000005,0.0025024526000000003,0.0644889,-0.0009774459999999994,7.306,0,0
-0.015659766000000002,-0.004204292,0.0020689586000000003,0.05767648,0.0029400340000000002,7.307,0,0
-0.008927046000000003,-0.0025742260000000006,0.0012269816,0.04662808,0.008652462,7.308,0,0
0.000933034000000001,-0.001258842,-0.0004955503999999999,0.033925436,0.014481334000000002,7.309,0,0
0.010359274000000002,-0.0006311978000000001,-0.0020455764,0.020208353999999994,0.01711308,7.31,0,0
0.017609608000000002,0.0011770602,-0.0027697570000000003,0.005739834,0.016460734,7.311,0,0
0.024501799999999997,0.0034135722,-0.003595267,-0.008902106,0.01490956,7.312,0,0
0.02840484,0.0041771002000000005,-0.0037086818,-0.023116866,0.012109634000000001,7.313,0,0
0.025960619999999997,0.0039511662,-0.0019484617999999997,-0.037201222000000006,0.008367116,7.314,0,0
0.01815832,0.004165944,0.00018190419999999994,-0.04975596,0.005586348600000001,7.315,0,0
0.006705499999999998,0.0039162879999999995,0.0018884802000000002,-0.059245400000000004,0.0029193046000000004,7.316,0,0
-0.008771080000000002,0.0015820820000000003,0.0035633842000000002,-0.06630238000000001,-0.0020210414000000005,7.317,0,0
-0.02602584,-0.0012231160000000002,0.0035431144000000006,-0.07089384,-0.0083100354,7.318,0,0
-0.0404742,-0.0030498440000000003,0.0013560764,-0.0709052,-0.0140419974,7.319,0,0
-0.047765300000000004,-0.004256610000000001,-0.00029973560000000007,-0.0642274,-0.01918539,7.32,0,0
-0.04708298,-0.005912092,-9.170160000000001e-05,-0.05281846,-0.022297459999999998,7.321,0,0
-0.039981100000000006,-0.007165144,0.0005291203999999998,-0.037616527999999996,-0.021407159999999998,7.322,0,0
-0.027135802,-0.0070386,0.001435558,-0.018541988000000002,-0.016963264,7.323,0,0
-0.011414662000000003,-0.006367894,0.003692234,0.00016781199999999896,-0.010561637999999998,7.324,0,0
0.004478298,-0.0054484799999999995,0.005334785999999999,0.015409151999999999,-0.0029197979999999995,7.325,0,0
0.018944658000000003,-0.004050242000000001,0.004877978,0.027753552,0.004546042,7.326,0,0
0.029921618000000004,-0.001977894,0.0031266464000000004,0.0362849,0.009970842,7.327,0,0
0.03744564,0.0003856160000000001,3.30400000000345e-07,0.0389007,0.013291466,7.328,0,0
0.04263734,0.0028622920000000002,-0.0047210316,0.0372574,0.01461602,7.329,0,0
0.04381326,0.005258444,-0.0089588116,0.03282098,0.013879582000000001,7.33,0,0
0.0389074,0.006970888000000001,-0.011819685600000001,0.026250120000000002,0.011231910000000001,7.331,0,0
0.028994150000000003,0.0069339480000000005,-0.012956512,0.0200293,0.007362096,7.332,0,0
0.016033910000000005,0.005341938,-0.0107407738,0.014775432000000002,0.0022778760000000003,7.333,0,0
0.0013357099999999986,0.002497424,-0.006642239800000001,0.010074230000000002,-0.004713644000000001,7.334,0,0
-0.013091310000000002,-0.002035276,-0.0028844698000000005,0.005843108,-0.011416326000000001,7.335,0,0
-0.024412490000000002,-0.005528156,-0.0001668017999999999,0.0012083079999999995,-0.015836434,7.336,0,0
-0.030698700000000002,-0.006162558,0.0021420622,-0.004173952000000001,-0.018082280000000003,7.337,0,0
-0.031780220000000005,-0.004849994,0.004021818000000001,-0.008825244000000001,-0.016894756,7.338,0,0
-0.027931306,-0.0014484840000000008,0.005712408,-0.012207002000000002,-0.011703678000000002,7.339,0,0
-0.02049614,0.0035187559999999996,0.008546558,-0.014133480000000002,-0.005162032,7.34,0,0
-0.012004398,0.006954708,0.01110003,-0.013183724,0.0009042479999999999,7.341,0,0
-0.0023947979999999996,0.008463242,0.011223354,-0.009897574000000001,0.005961042,7.342,0,0
0.006843802,0.007210991999999999,0.008785496,-0.005880740000000001,0.008446774,7.343,0,0
0.013054708,0.0020728319999999997,0.004210892000000001,-0.00095067,0.009197516,7.344,0,0
0.018747762,-0.00021073999999999973,-0.0018418679999999995,0.00493005,0.00960707,7.345,0,0
0.025218200000000003,0.0023539279999999995,-0.006547086,0.010046013999999999,0.01001475,7.346,0,0
0.02890492,0.004091814,-0.007087216,0.012865544,0.009946268000000001,7.347,0,0
0.028859940000000004,0.005342996000000001,-0.003878652,0.013395122,0.0085333156,7.348,0,0
0.02751668,0.0082210706,-0.0003056039999999999,0.012188502,0.0065713656,7.349,0,0
0.022909942000000003,0.008376112599999999,0.0011795979999999998,0.00791183,0.003123801600000001,7.35,0,0
0.014469670000000002,0.0042382156,0.000784595999999999,0.00046024999999999885,-0.0018917784,7.351,0,0
0.006919960000000001,0.0008773695999999998,-0.002621130000000001,-0.007178930000000001,-0.0054411944,7.352,0,0
0.0012995499999999998,0.0008596316000000001,-0.0076377300000000006,-0.012724402000000001,-0.0062055059999999995,7.353,0,0
-0.004491230000000001,0.002274241,-0.0088084752,-0.014841866000000002,-0.005982199,7.354,0,0
-0.009996531999999999,0.0034139110000000004,-0.005628613200000001,-0.013026194000000001,-0.004946241,7.355,0,0
-0.013976220000000001,0.00462181,-0.0006089532000000003,-0.008743028000000002,-0.003204511,7.356,0,0
-0.01729173,0.0051187502,0.0056743268,-0.0039308120000000005,-0.0026182590000000004,7.357,0,0
-0.01933628,0.0036548481999999997,0.011266086799999998,0.0017489259999999998,-0.002549091,7.358,0,0
-0.0190465,0.0014511301999999995,0.011772709999999999,0.00728198,-0.002458842,7.359,0,0
-0.017397900000000004,-0.0011206478000000003,0.006716325999999998,0.012180380000000001,-0.0021681706,7.36,0,0
-0.014874880000000004,-0.0048734898,0.0020254519999999983,0.019591654,-0.0006923346,7.361,0,0
-0.011415834000000001,-0.007556044000000001,0.0003510999999999996,0.030087978,0.0027739974000000004,7.362,0,0
-0.0081063702,-0.008490254000000001,-0.00046146000000000034,0.04053984,0.0061387374,7.363,0,0
-0.006336318200000001,-0.01019476,6.031800000000007e-05,0.047557760000000004,0.007449603400000001,7.364,0,0
-0.0044655822,-0.011095736000000002,0.0024118900000000003,0.049419420000000006,0.008649198,7.365,0,0
-0.0010646502000000002,-0.009138208,0.0036329280000000005,0.04361144000000001,0.009264270000000002,7.366,0,0
0.0011992498,-0.0065717648,0.0032341280000000006,0.028877300000000005,0.007030333200000001,7.367,0,0
0.002280036,-0.0038802628,0.00227446,0.007433379999999998,0.0039156472000000005,7.368,0,0
0.00497308,-0.0006925528000000002,0.000427272,-0.016642740000000003,0.0028527952000000005,7.369,0,0
0.007686204,0.0014793732,2.964999999999999e-05,-0.03829634,0.0013150332000000002,7.37,0,0
0.008045638,0.0028673512000000003,0.0006303891999999999,-0.05420788,-0.0016744368,7.371,0,0
0.007245494000000001,0.0029243984000000005,-0.0025746288,-0.06261586000000001,-0.0032673199999999998,7.372,0,0
0.005833414,0.0006501524000000001,-0.0073036808,-0.0641235,-0.004147462,7.373,0,0
0.0029955180000000004,-0.0008572256,-0.0086727368,-0.060552140000000004,-0.0061662539999999995,7.374,0,0
-0.00017967799999999963,-0.0011757502,-0.0066146788,-0.052943000000000004,-0.007859514000000001,7.375,0,0
-0.00300043,-0.0025740942,-0.0033132219999999998,-0.04207434000000001,-0.007577496000000001,7.376,0,0
-0.005926672000000001,-0.0031784466000000003,-0.0015755820999999999,-0.028717410000000002,-0.006728722,7.377,0,0
-0.008197722000000001,-0.0026897866,-0.0005666821000000002,-0.014187350000000001,-0.005984218,7.378,0,0
-0.009241342000000001,-0.0035192286000000003,0.0007407638999999996,-0.00042682999999999957,-0.0049927520000000005,7.379,0,0
-0.010077716,-0.005691036,-0.0013658621000000003,0.01073367,-0.003357424,7.38,0,0
-0.011031370000000002,-0.007317818,-0.0069547221,0.01966331,-0.001343356,7.381,0,0
-0.010418454000000002,-0.007787008,-0.008662214,0.027043039999999997,0.0006728920000000001,7.382,0,0
-0.008914878000000001,-0.0076092899999999995,-0.0062516842,0.032369619999999995,0.0027130620000000005,7.383,0,0
-0.008273308,-0.007193328,-0.0044387422,0.03679812,0.004364026,7.384,0,0
-0.007327786,-0.006616042000000001,-0.0024315661999999997,0.04050984,0.005655028,7.385,0,0
-0.0050498798,-0.005094406000000001,0.0006518338000000002,0.04098866,0.006029507999999999,7.386,0,0
-0.0026363638000000003,-0.002851886,0.0035056558000000006,0.03714262,0.005239562,7.387,0,0
-0.0006946098000000003,-0.00036225799999999985,0.004844322000000001,0.030885839999999998,0.003925954,7.388,0,0
0.0020499762000000003,0.0024830060000000003,0.004985912,0.024139182,0.003458,7.389,0,0
0.005567984200000001,0.00532646,0.003828850000000001,0.017470594000000002,0.003174512,7.39,0,0
0.008188898,0.00724253,0.0013459680000000001,0.012639876000000001,0.0029153919999999997,7.391,0,0
0.008942932,0.007527178,-0.001358402,0.008823108000000001,0.003743652,7.392,0,0
0.007227032000000001,0.007202066,-0.0031360340000000007,0.0036631880000000004,0.0038011600000000005,7.393,0,0
0.0027335359999999995,0.006630138000000001,-0.003575096,-0.002348414,0.00217757,7.394,0,0
-0.0026879640000000006,0.005747306,-0.002576886,-0.009303206000000001,-7.67600000000008e-06,7.395,0,0
-0.00631032,0.0047608846,-0.000530126,-0.017215008,-0.0021841360000000006,7.396,0,0
-0.007142932000000001,0.0027701006000000004,0.001510396,-0.023949860000000003,-0.004520210000000001,7.397,0,0
-0.005049492000000001,0.00042176659999999995,0.0023361720000000005,-0.027069,-0.004712053600000001,7.398,0,0
-0.0004893220000000004,-0.0008426178000000001,0.0019048902000000003,-0.026806840000000002,-0.0020518916000000003,7.399,0,0
