bandpass 1,bandpass 2,bandpass 3,bandpass 4,bandpass 5,time,onset,mark
-0.0011628982,-0.001558516,0.00012168960000000001,0.0031709174,0.0021893320000000004,4.248,0,0
-0.0019419062,-0.002325272,0.00012035559999999998,0.0027715394,0.0019918414000000004,4.249,0,0
-0.0031282621999999998,-0.0030446540000000004,0.000149772,0.0021938673999999997,0.0006565414000000002,4.25,0,0
-0.0041494800000000005,-0.0034963420000000004,-5.709100000000001e-05,0.0027792040000000004,0.0009517271999999999,4.251,0,0
-0.004043738,-0.0035102820000000004,6.499139999999998e-05,0.0023920420000000005,0.0008265351999999998,4.252,0,0
-0.0035913552,-0.003294382,0.00038400280000000004,0.0026258620000000005,-6.627480000000023e-05,4.253,0,0
-0.0028174472000000008,-0.0024491814,0.0003218148,0.0036211940000000003,0.0005240597999999998,4.254,0,0
-0.0009386592000000001,-0.0015934808,-7.24616e-05,0.003947226000000001,0.0022034438,4.255,0,0
0.0008119028000000001,-0.0008361769999999999,-0.0006416226,0.0023251700000000005,0.0015765900000000001,4.256,0,0
0.0018796628,0.00016154700000000003,-0.0011383686,-0.00048116800000000013,0.00011265200000000009,4.257,0,0
0.0035384820000000003,0.0009262270000000001,-0.0011120233999999999,-0.0025780340000000003,0.0012513860000000002,4.258,0,0
0.0048300520000000005,0.0011509824000000002,-0.0006114193999999999,-0.00354018,0.00231443,4.259,0,0
0.004731616,0.0013958458000000002,0.00017264460000000016,-0.003602704,0.00254038,4.26,0,0
0.0045537400000000006,0.0017189080000000001,0.0008614616000000001,-0.0023667840000000002,0.004432678,4.261,0,0
0.004423188000000001,0.001547302,0.0010899238,-0.0008756119999999998,0.006200284,4.262,0,0
0.002208602,0.0015610200000000002,0.0012132692000000002,-0.0009267840000000002,0.0048877671999999995,4.263,0,0
-0.0005673980000000001,0.0016494340000000002,0.00066578,-0.0021987460000000006,0.0020802871999999993,4.264,0,0
-0.00217854,0.0014761660000000001,-0.000228202,-0.0036673200000000004,-0.00023054480000000055,4.265,0,0
-0.004258114,0.0012914970000000002,-0.0002514322,-0.005475272000000001,-0.0033031748,4.266,0,0
-0.005966084000000001,0.0011390446,-0.00019945578,-0.0057438798400000005,-0.005100550800000001,4.267,0,0
-0.0057014380000000005,0.0008263736,-0.0006208815800000001,-0.00350536584,-0.003885378,4.268,0,0
-0.0047349060000000005,0.00032104720000000005,-0.00039579598,-0.0008070278399999998,-0.0021248079999999997,4.269,0,0
-0.004196344,5.9491400000000004e-05,0.00014477022,0.0019175321600000002,-0.00034479039999999963,4.27,0,0
-0.0026473258000000006,4.8338400000000025e-05,-4.768998000000001e-05,0.004608072160000001,0.0018120056000000004,4.271,0,0
-0.0005817737999999999,0.0001380636,0.0001190134,0.005367150000000001,0.001974178,4.272,0,0
0.0004854581999999999,0.00013825420000000002,0.000429834,0.0038979448,-0.0005865,4.273,0,0
0.0016802902000000002,0.0003964664000000001,0.0001301882,0.0015097808000000001,-0.002870656,4.274,0,0
0.0034057462000000004,0.0009227282,-6.871040000000001e-05,-0.0007200932000000001,-0.0040695576,4.275,0,0
0.0044903600000000005,0.0010683682000000002,-0.00010305639999999997,-0.0013435372,-0.0043115416000000005,4.276,0,0
0.004488466,0.0011554674,-0.0002911824,-0.0016257272,-0.003903980000000001,4.277,0,0
0.004653766,0.0018111618000000002,-0.0005110708,-0.0014789743999999998,-0.0024144380000000005,4.278,0,0
0.004469604,0.0024952380000000003,-0.0006274814000000001,0.0012823216,0.0005745720000000001,4.279,0,0
0.002330662,0.0023907140000000004,-0.000946063,0.0039145316,0.00214787,4.28,0,0
-4.069399999999997e-05,0.001425192,-0.0012443976000000002,0.0037379016,0.0016317060000000001,4.281,0,0
-0.001479134,0.0001962000000000001,-0.0010702132,0.0029578576,0.0006589800000000002,4.282,0,0
-0.0031455660000000002,-0.0010057360000000001,-0.0004940396,0.002609054,-0.0006432579999999996,4.283,0,0
-0.004705186,-0.0026703480000000003,0.00022474639999999993,0.0011392618000000002,-0.0015854127999999999,4.284,0,0
-0.004583266,-0.0038105700000000005,0.0010794524,-0.0006128422,-0.00032794880000000005,4.285,0,0
-0.003980724,-0.0033474920000000005,0.0014949976,-0.0009772722,0.0019977012000000002,4.286,0,0
-0.003872652,-0.0025281120000000003,0.0011726278,-0.00015609819999999998,0.0038536432000000004,4.287,0,0
-0.0024611420000000004,-0.0021737438000000004,0.0006744816,0.0006856298,0.0056378392000000005,4.288,0,0
-0.0005749139999999999,-0.0015692478,9.07909999999999e-05,0.00124975,0.005968036,4.289,0,0
0.0008732200000000001,-0.0010075058000000002,-0.00030977084,0.0018360408000000002,0.004409953,4.29,0,0
0.002859784,-0.0008563692,-0.00046534184,0.0015559008000000003,0.0026972033999999997,4.291,0,0
0.004960192,-0.0005835966,-0.0007626624400000001,0.00032471880000000015,0.0013767620000000001,4.292,0,0
0.005612212,-4.923079999999999e-05,-0.0009940502400000001,-0.0008418691999999999,0.00030503,4.293,0,0
0.005394964,0.0008585092000000001,-0.0009698616400000002,-0.0014376736000000002,-0.00044601999999999993,4.294,0,0
0.005363864,0.0019007712,-0.0010101084000000001,-0.00161010176,-0.0010630050000000001,4.295,0,0
0.0038078568000000004,0.0025044926000000003,-0.0005658826,-0.00176896176,-0.0023607313999999997,4.296,0,0
0.0008919507999999999,0.0024013745600000003,0.0001878774,-0.00161119176,-0.003658862,4.297,0,0
-0.0013635852,0.00203011496,0.0006711634,-0.00126376776,-0.003840806,4.298,0,0
-0.0029233911999999996,0.00156053896,0.0011676554,-0.00137918216,-0.0040445,4.299,0,0
-0.005021619200000001,0.0006711625599999999,0.0013767118000000001,-0.0013891988,-0.004270088,4.3,0,0
-0.006162298000000001,-7.469943999999999e-05,0.0013739398,-0.0007687698,-0.003469156,4.301,0,0
-0.005502674000000001,-0.000385238,0.0013803957999999998,0.00014715820000000006,-0.002387016,4.302,0,0
-0.00532611,-0.0007489364000000001,0.0013575718,0.0008371742000000001,-0.002463012,4.303,0,0
-0.004939298000000001,-0.0013346604000000002,0.0009955138,0.0012966310000000001,-0.0019802506,4.304,0,0
-0.0028805280000000003,-0.0014729406,0.000434646,0.001905987,-0.00010651660000000006,4.305,0,0
-0.0007935460000000003,-0.001262005,7.044040000000004e-05,0.002290218,0.0007733014,4.306,0,0
0.0005336579999999999,-0.001343763,-0.0002886916,0.0019929088,0.00113641776,4.307,0,0
0.0027812640000000003,-0.0012809409999999999,-0.0008293996000000001,0.0008987988000000002,0.00202745976,4.308,0,0
0.0050910799999999996,-0.000867886,-0.0010901656,-0.0010163751999999998,0.0019021983600000002,4.309,0,0
0.005560278,-0.0005219406,-0.0010964276,-0.0034038052,8.758235999999997e-05,4.31,0,0
0.005624164,-0.00027585719999999997,-0.001419208,-0.0048987712,-0.0004384924400000001,4.311,0,0
0.005799058,0.00033978480000000004,-0.0012018573999999999,-0.0053630859999999995,0.0003612971999999999,4.312,0,0
0.004221402,0.0008998488,-0.0004568454,-0.0048029496,0.00020080919999999991,4.313,0,0
0.00149554,0.0009419778,2.6638599999999986e-05,-0.0026679836,0.0004170517999999999,4.314,0,0
-0.00040270599999999996,0.001044775,0.0006095996,-0.0001641755999999998,0.0017083758,4.315,0,0
-0.002322162,0.0010008098000000001,0.0013808616000000001,0.0021214564,0.0024297706,4.316,0,0
-0.004691734,0.0004536458000000001,0.0017590090000000002,0.0035972744000000003,0.0017094418000000002,4.317,0,0
-0.00553108,-1.0232600000000035e-05,0.0014990454,0.003674778460000001,0.0011612678,4.318,1,1
-0.005163956,-0.00037955660000000007,0.0010806574000000002,0.0025640984600000002,0.00023171119999999996,4.319,0,0
-0.005196292,-0.0007965358000000002,0.0008090052000000001,0.0016013664600000007,-0.0012011448,4.32,0,0
-0.004326066,-0.0009055668,3.778519999999994e-05,0.00179163246,-0.0007336447999999999,4.321,0,0
-0.0021684820000000002,-0.0006654244,-0.0009771208,0.00229463246,0.0005685320000000001,4.322,0,0
-0.0005962920000000002,-0.000289526,-0.0011762692,0.0023503110000000003,0.0007700894000000002,4.323,0,0
0.0007961260000000001,0.00021531399999999998,-0.0013585272,0.0026065470000000003,0.0014180816000000003,4.324,0,0
0.003093184,0.0007119212000000001,-0.0016935180000000002,0.0029880734,0.0027722156000000004,4.325,0,0
0.0045940600000000005,0.0012263083999999999,-0.001298959,0.0015055734000000002,0.0022959656000000003,4.326,0,0
0.0046349500000000005,0.0018903400000000001,-0.000828369,-0.0005232166,0.0013086876,4.327,0,0
0.004944032,0.002116766,-0.0007583447799999999,-0.0012934536000000002,0.0016350756,4.328,0,0
0.00491448,0.0019925992,-0.00026939937999999997,-0.0019359676,0.0013807694,4.329,0,0
0.0031200719999999998,0.0017529657999999998,0.00038414662,-0.0031577600000000003,-0.0005360125999999998,4.33,0,0
0.0008599780000000002,0.0009000198000000002,0.00043624842000000003,-0.0044074000000000006,-0.0025239146000000006,4.331,0,0
-0.000684244,-0.00018134819999999986,0.00050943742,-0.004643040000000001,-0.0035726886000000003,4.332,0,0
-0.002651324,-0.0009940042,0.0006752852000000001,-0.003680042000000001,-0.004209312000000001,4.333,0,0
-0.004662806,-0.0020884014000000003,0.000703267,-0.0023860960000000003,-0.004112824000000001,4.334,0,0
-0.004822878,-0.0030773680000000005,0.00046161100000000006,-0.00092307,-0.0025550978,4.335,0,0
-0.0039555574,-0.0033592760000000004,0.0005916662000000001,0.000733004,-0.0009496558000000002,4.336,0,0
-0.0031930506000000004,-0.0035427340000000005,0.0008444451999999999,0.0011113800000000001,-0.0005616118,4.337,0,0
-0.0015308525999999999,-0.0034420040000000002,0.00024506319999999997,0.0009768657999999998,8.660619999999999e-05,4.338,0,0
0.0006115014000000001,-0.0026293488000000004,6.886379999999994e-05,0.0019519878000000004,0.0012031102,4.339,0,0
0.0014595414,-0.0017341928000000001,0.0001415968,0.0025708918,0.001722314,4.34,0,0
0.0022788068,-0.0009575708000000001,-0.0006234592000000001,0.0023472958000000004,0.002267514,4.341,0,0
0.004105318,-8.356080000000002e-05,-0.001117385,0.0024325058,0.002982278,4.342,0,0
0.0049117499999999994,0.0007269092,-0.0005749734000000001,0.002021658,0.0027023438,4.343,0,0
0.0047121260000000005,0.0015389580000000002,-0.0005699542000000001,0.00043561000000000007,0.0017611166,4.344,0,0
0.005025560000000001,0.002177276,-0.0008820972000000002,-0.001274108,0.0009067379999999998,4.345,0,0
0.0044094342,0.002684796,-0.00033494740800000004,-0.00243671,-0.0006204240000000001,4.346,0,0
0.0018991222000000006,0.002972446,0.00020475839200000004,-0.002592702,-0.0022677800000000005,4.347,0,0
-6.781779999999991e-05,0.0028121900000000004,0.00022052279200000007,-0.0019281380000000002,-0.0025774318,4.348,0,0
-0.0012436418,0.0026547940000000007,0.00021608559200000008,-0.0014256648000000004,-0.0029951946,4.349,0,0
-0.0031825338,0.0021749964,0.0005998329920000001,-0.0010665848,-0.004283468,4.35,0,0
-0.004433820000000001,0.0013831164000000003,0.0006861574000000001,-0.0007604828000000001,-0.00498175,4.351,0,0
-0.003982066000000001,0.0008996821000000002,0.0005060226000000001,-0.0005736056000000001,-0.0044994100000000006,4.352,0,0
-0.0036705180000000002,0.0003317801,0.000563793,-0.00015161360000000008,-0.003852182000000001,4.353,0,0
-0.0037202960000000005,-0.0004634799,0.0006389108000000001,0.00030928719999999974,-0.0031069091999999998,4.354,0,0
-0.0021200959999999997,-0.0009696583000000001,0.00048020120000000005,0.0007620567999999999,-0.0006177352,4.355,0,0
-0.0004918440000000001,-0.0009676501000000001,0.0004107567,0.0009864168,0.0028247988,4.356,0,0
0.00012294399999999994,-0.0008617798000000001,0.00020594230000000002,0.0016075596000000001,0.0061736068,4.357,0,0
0.001355306,-0.0006204322,-0.0001350797,0.0027573476,0.0094588308,4.358,0,0
0.0031588320000000003,-0.00020295980000000006,-0.0002676075,0.0030307616,0.012003474,4.359,0,0
0.0038020719999999997,6.29004e-05,-0.00025435530000000005,0.0030465108,0.012099170000000001,4.36,0,0
0.0038810979999999995,0.00018902680000000002,-0.00016919600000000004,0.0030798548,0.00841726,4.361,0,0
0.004012242,0.0003556328,-0.00017706320000000002,0.0013372768,0.0021648200000000005,4.362,0,0
0.002398524,0.0008153892,0.0002622984,-0.0018142112,-0.00356122,4.363,0,0
0.000649374,0.0011296168000000002,0.0001420166,-0.0033792512000000003,-0.007731366,4.364,0,0
-0.0012097740000000003,0.0013148142000000002,-5.1023400000000003e-05,-0.0033186558000000005,-0.008496386000000002,4.365,0,0
-0.002381336,0.0008560856000000001,-0.000304481,-0.0028564294000000003,-0.003102876,4.366,0,0
-0.00418726,0.0006015956000000001,-0.0018906145999999999,-0.0020352414000000003,0.0036488840000000002,4.367,0,0
-0.0034730700000000004,0.0018227216000000002,-0.0030481046,-0.0016041134,0.006733324000000001,4.368,0,0
0.003118286,0.0032310776,-0.0028526884,-0.0018658594,0.007362237999999999,4.369,0,0
0.007483932,0.00417553,-0.0026095352000000006,-0.0025701516000000003,0.005338514000000001,4.37,0,0
0.0079546368,0.0048938900000000006,-0.0019763346000000004,-0.0029641900000000002,-0.0005082859999999997,4.371,0,0
0.0072939388,0.00454943,0.0006650214,-0.00310924,-0.007137346,4.372,0,0
0.002190558799999999,0.001750452,0.0028048094000000003,-0.0024560308000000004,-0.011762866,4.373,0,0
-0.0093346012,-0.002014032,0.0036488032,-0.0007734307999999999,-0.013923654,4.374,0,0
-0.0189067812,-0.0050502080000000005,0.004434222,0.0009575032000000002,-0.01457154,4.375,0,0
-0.024310180000000004,-0.007393784,0.004727376,0.0030795812,-0.013705008,4.376,0,0
-0.025674260000000004,-0.008854038,0.004140764,0.0054370132,-0.009698784,4.377,0,0
-0.021208448,-0.008972534,0.002563938,0.006475418000000001,-0.0044700880000000005,4.378,0,0
-0.014479946,-0.008029979999999999,0.0011344520000000002,0.006113578000000001,0.00012079599999999962,4.379,0,0
-0.004787806000000002,-0.006454554,-0.0003966439999999999,0.005663550000000001,0.005230956,4.38,0,0
0.006589814,-0.0039520860000000005,-0.002017844,0.004679278,0.010373284,4.381,0,0
0.016762554,-0.001324576,-0.003245166,0.0033905460000000004,0.01367354,4.382,0,0
0.024940062,0.001205368,-0.0037985220000000004,0.0022878196000000006,0.015212964,4.383,0,0
0.031058219999999997,0.003890674,-0.003734116,0.0007453776000000002,0.015606100000000001,4.384,0,0
0.03277082,0.0058883600000000005,-0.003380516,-0.0008482983999999999,0.01363887,4.385,0,0
0.028815984,0.006818068000000001,-0.0028093400000000004,-0.0019032364000000001,0.009331547999999999,4.386,0,0
0.021703422,0.007014890000000001,-0.002038,-0.0029176804,0.0040661199999999995,4.387,0,0
0.011770302,0.006242576000000001,-0.0004657280000000001,-0.004000756,-0.0021218400000000003,4.388,0,0
-0.0005487580000000008,0.004523617800000001,0.00123178,-0.004307824,-0.008178460000000002,4.389,0,0
-0.011859038000000002,0.0023888998,0.00241217,-0.004768408,-0.01303201,4.39,0,0
-0.020104302,-0.0001552321999999998,0.003400006,-0.006205742,-0.017034768000000002,4.391,0,0
-0.02630922,-0.0025912742000000002,0.004235998,-0.006441252000000001,-0.018919440000000003,4.392,0,0
-0.02965152,-0.0042449122,0.004063868,-0.004440732,-0.016684332,4.393,0,0
-0.028330300000000003,-0.005307086000000001,0.0026089120000000006,-0.0029222496000000007,-0.012250538,4.394,0,0
-0.023425744,-0.0058574280000000005,0.00149895,-0.0011544196000000003,-0.006719940000000001,4.395,0,0
-0.016015544,-0.0052439340000000004,0.0006119986000000001,0.0028851244000000003,0.0013168400000000005,4.396,0,0
-0.005728123999999999,-0.003858628,-0.0011671154,0.0056755604,0.009098640000000002,4.397,0,0
0.0055012160000000015,-0.0022679340000000005,-0.0026754894,0.005944700400000001,0.013594872,4.398,0,0
0.014755095999999999,4.6193999999999836e-05,-0.0034044414000000004,0.006499840000000001,0.016282718,4.399,0,0
0.021827400000000004,0.0026030000000000003,-0.0042476394,0.006511230000000001,0.01787272,4.4,0,0
0.02664392,0.004642186,-0.00459057,0.00433114,0.016091344,4.401,0,0
0.02680502,0.00583496,-0.00362514572,0.00181109,0.0115521254,4.402,0,0
0.022479968,0.0059695040000000005,-0.00223416972,1.87200000000031e-06,0.0066071794000000005,4.403,0,0
0.016291578,0.00529351,-0.0005562877199999998,-0.001407928,0.0015185393999999994,4.404,0,0
0.007806438000000001,0.003908671000000001,0.00119618228,-0.002599928,-0.0040990206,4.405,0,0
-0.0024372020000000003,0.0018285110000000005,0.00242718828,-0.003146618,-0.0089485246,4.406,0,0
-0.011028142000000001,-0.00024304700000000014,0.00330032,-0.0024278197999999997,-0.011412266,4.407,0,0
-0.01709701,-0.0019622470000000003,0.003224998,-0.0014512646,-0.01234058,4.408,0,0
-0.0215853,-0.0035116490000000004,0.002854572,-0.0006263735999999999,-0.01246348,4.409,0,0
-0.022892159999999998,-0.004509760000000001,0.0027002460000000003,0.0006674764,-0.01063773,4.41,0,0
-0.020267176,-0.004650848,0.0018263114,0.0017684144000000002,-0.006805854,4.411,0,0
-0.01592227,-0.004215112000000001,0.0005476194,0.0019277722000000004,-0.002833875999999999,4.412,0,0
-0.010022188,-0.0033711500000000007,-0.0003895146000000001,0.0017411690000000003,0.0012151980000000004,4.413,0,0
-0.0021153279999999992,-0.0020001280000000008,-0.0014893586000000003,0.001498828,0.005701678,4.414,0,0
0.005657592000000001,-0.00038455999999999983,-0.0027543826,0.0005457540000000002,0.008856268,4.415,0,0
0.012056928000000001,0.0008966660000000002,-0.0031156960000000007,-0.0007162520000000001,0.010035272000000001,4.416,0,0
0.017660262000000003,0.002082904,-0.0029454960000000006,-0.00136691,0.010484132,4.417,0,0
0.021082800000000002,0.0031358840000000002,-0.0026413620000000004,-0.001834244,0.009904954,4.418,0,0
0.020492220000000002,0.003398166,-0.0018891162000000002,-0.00251375,0.007292616,4.419,0,0
0.017137908,0.003149122,-0.0009497424,-0.0028306220000000005,0.0037945519999999996,4.42,0,0
0.012115076,0.0027769798,-0.00011370640000000001,-0.002843084,0.00039761199999999966,4.421,0,0
0.004905831999999999,0.0022098388000000003,0.0007926976000000001,-0.0026356990000000005,-0.0036300460000000005,4.422,0,0
-0.0032541280000000002,0.0011319228,0.0019512176,-0.0016344850000000002,-0.007248802000000001,4.423,0,0
-0.009771868000000001,3.0790800000000105e-05,0.0027692418000000002,-0.000360721,-0.008780522,4.424,0,0
-0.014549076000000001,-0.0012773472,0.0031726680000000004,0.0002679692000000001,-0.009311824,4.425,0,0
-0.018121364,-0.002964553,0.0032768520000000002,0.0006225940000000001,-0.009116228,4.426,0,0
-0.018613840000000003,-0.004017682,0.0027984464000000006,0.001056503,-0.007078594400000001,4.427,0,0
-0.015602822000000002,-0.004477664000000001,0.0020590936000000003,0.0010947370000000001,-0.0039417084000000005,4.428,0,0
-0.010879960000000001,-0.004547232000000001,0.0011797054,0.000992599,-0.0013516804000000002,4.429,0,0
-0.005176168000000002,-0.0037084962000000004,-0.0001248986,0.0014084548000000002,0.0014384056000000002,4.43,0,0
0.0014589720000000007,-0.0019050242000000005,-0.0012409846,0.0015950718000000003,0.0045530416,4.431,0,0
0.007318272000000001,-0.00013410420000000008,-0.0018956210000000001,0.0005038318,0.006189080000000001,4.432,0,0
0.011645074000000002,0.0015012338,-0.0027662382000000004,-0.0010335842,0.006324336000000001,4.433,0,0
0.014978332000000002,0.0030732878000000003,-0.0032026980000000004,-0.0024111082,0.006182440000000001,4.434,0,0
0.016269240000000004,0.004150144000000001,-0.002805474,-0.0033012702000000003,0.005589308,4.435,0,0
0.014451348000000001,0.004611418,-0.0023768400000000003,-0.00267003,0.00391407,4.436,0,0
0.010547338000000002,0.0042463,-0.0018860954,-0.0008882339999999997,0.0026257940000000003,4.437,0,0
0.005648118000000001,0.0033702944000000004,-0.0005657974,0.0005788820000000001,0.0013760400000000002,4.438,0,0
-0.0007810020000000003,0.0020247364,0.0008022166,0.0016465660000000001,-0.0004993439999999999,4.439,0,0
-0.006772122,0.00045173839999999995,0.0017428866000000001,0.0023961240000000003,-0.0019719159999999998,4.44,0,0
-0.010597470000000001,-0.0010880196000000002,0.0026956706000000005,0.0017547111999999998,-0.003436164,4.441,0,0
-0.013444240000000001,-0.0025536916,0.00315494,0.0008561422,-0.00500323,4.442,0,0
-0.015210240000000002,-0.003337214,0.0028522020000000003,0.0009745642,-0.004845888,4.443,0,0
-0.014302650000000002,-0.0038957740000000003,0.0019515496000000003,0.0014017362,-0.002704216,4.444,0,0
-0.011529874,-0.0042692419999999995,0.0012314976,0.0014824362000000002,-0.0010125459999999998,4.445,0,0
-0.008307278000000001,-0.0038060979999999995,0.00021176960000000004,0.0016601650000000001,0.0005667140000000002,4.446,0,0
-0.0034254600000000004,-0.0027607564,-0.0008945744,0.00176915,0.00297751,4.447,0,0
0.00226412,-0.0016292984,-0.0013904484,0.001101126,0.004301784000000001,4.448,0,0
0.0066267900000000005,-0.0001800304000000001,-0.0017273100000000001,0.000251804,0.0034678834000000007,4.449,0,0
0.010014574000000002,0.0016047416,-0.0021711900000000004,-0.00034915200000000003,0.0025165110000000004,4.45,0,0
0.013138678,0.0027512796000000003,-0.0024194200000000003,-0.000461522,0.0025790470000000005,4.451,0,0
0.013993120000000001,0.003239082,-0.0019985874,-0.001098988,0.0012577470000000002,4.452,0,0
0.012040108,0.003462064,-0.0017188036000000003,-0.0021747520000000003,-0.000973411,4.453,0,0
0.0095086288,0.003224456,-0.0011323686000000001,-0.0017683376,-0.0018723384,4.454,0,0
0.0055864287999999995,0.00234937626,-2.6632600000000054e-05,-0.0009460816,-0.002583872,4.455,0,0
-0.00023691119999999987,0.0013913160599999998,0.0009458914000000002,-0.0010073694,-0.004255952,4.456,0,0
-0.0049964912000000005,0.0005277760600000001,0.0014357408,-0.0006395867999999999,-0.0055265600000000015,4.457,0,0
-0.0080046392,-0.0005659959400000001,0.001988805,-9.67679999999986e-06,-0.005357016,4.458,0,0
-0.01087766,-0.00129512794,0.0028879220000000002,-0.00015008579999999986,-0.005065998,4.459,0,0
-0.011912568,-0.0014173987999999999,0.00272449,-0.00010132179999999998,-0.0045698100000000005,4.46,0,0
-0.009942522,-0.0012359793999999998,0.0021408024,0.0002719380000000001,-0.002711038,4.461,0,0
-0.0073827112,-0.0008385669999999998,0.0019151932000000002,0.00032014004000000006,-0.0003480280000000002,4.462,0,0
-0.0047026752,-0.00028912139999999996,0.001184328,0.00114900804,0.002079366,4.463,0,0
-0.0006089892000000002,0.00043198460000000004,2.0669799999999976e-05,0.00198039864,0.004796214,4.464,0,0
0.0032385108000000003,0.0009631832000000001,-0.0005345596000000001,0.0008946306400000001,0.006225770000000001,4.465,0,0
0.0056540108,0.0010905868,-0.0009729300000000001,-0.0008583173599999999,0.005568101400000001,4.466,0,0
0.00824362,0.0014918544000000003,-0.0020984888,-0.00248484,0.004292921400000001,4.467,0,0
0.010390144000000002,0.0024181148,-0.0027916056,-0.00327238,0.0032559534000000004,4.468,0,0
0.010203594000000002,0.0031019487999999996,-0.0028860814,-0.002314477999999999,0.0020762774,4.469,0,0
0.0083044176,0.0033149448,-0.0028896928000000004,-0.0010535000000000004,0.0008000520000000001,4.47,0,0
0.0059079575999999995,0.00357103,-0.002081771,-0.0003487420000000001,-0.00045751540000000005,4.471,0,0
0.0019516636000000004,0.0031876302000000004,-0.0004979289999999999,0.0004034739999999999,-0.0024590834,4.472,0,0
-0.0027704764000000006,0.0017932042000000001,0.000551337,0.0006059040000000001,-0.0051594994,4.473,0,0
-0.005958420400000001,0.00021391019999999984,0.0009600740000000001,-0.00021593799999999994,-0.006999549400000001,4.474,0,0
-0.007853638000000001,-0.0014629398,0.0015952168000000003,0.00016072200000000008,-0.006819083,4.475,0,0
-0.009037472,-0.0030209198,0.0020473210000000004,0.0021672640000000003,-0.004926445,4.476,0,0
-0.008759966000000001,-0.003887668,0.0018196310000000004,0.0035766540000000003,-0.0018018010000000002,4.477,0,0
-0.0066181098,-0.004086058,0.0015310858,0.0036087540000000005,0.000912541,4.478,0,0
-0.004603120919999999,-0.003935282,0.0014911308,0.003221624,0.002461607,4.479,0,0
-0.0025089829200000005,-0.0030683006,0.0008849176,0.002837806,0.0036914319999999997,4.48,0,0
0.0006348550799999998,-0.0017922858,-0.00028492640000000004,0.0016593002000000001,0.004079984,4.481,0,0
0.00279382708,-0.0010012,-0.0008939984000000002,0.0005074122,0.0037034780000000005,4.482,0,0
0.00411883288,-0.0002904868,-0.0011461352,0.00046271420000000004,0.0040677560000000005,4.483,0,0
0.006385852000000001,0.0006748472000000001,-0.0016841052,0.0003018782,0.004742518000000001,4.484,0,0
0.007898147999999999,0.0014775838,-0.001787434,-0.0007778178,0.0036942740000000004,4.485,0,0
0.007089758,0.001884175,-0.0013894726,-0.001821216,0.002180772,4.486,0,0
0.00616368,0.0024580792000000002,-0.0012341672,-0.002108172,0.001653186,4.487,0,0
0.0048816868,0.002887522,-0.0008524052000000002,-0.0023144100000000003,0.0003194360000000001,4.488,0,0
0.0016041508000000002,0.002661534,-1.4961199999999981e-05,-0.0026309554000000005,-0.0016358240000000001,4.489,0,0
-0.0016061271999999998,0.0020544595800000005,0.0006736408,-0.0021571126000000003,-0.002114528,4.49,0,0
-0.0034831752,0.0011127235799999998,0.0010787614,-0.0014171070000000001,-0.0018784539999999999,4.491,0,0
-0.0051408172,2.988158000000006e-05,0.0015274999999999998,-0.0012130070000000003,-0.0021478400000000003,4.492,0,0
-0.006387164,-0.00095288842,0.0016018016,-0.0016272970000000002,-0.002823414,4.493,0,0
-0.005981686,-0.0017615424200000001,0.0011784908000000002,-0.0026024256000000004,-0.00331139,4.494,0,0
-0.0044915452,-0.002308664,0.0012469508,-0.0027122545600000002,-0.0027051180000000003,4.495,0,0
-0.0033149268,-0.002256988,0.0013234388,-0.0011710421600000002,-0.0015588620000000003,4.496,0,0
-0.0013758988000000002,-0.00191071,0.0006483968,-0.00020911615999999992,-0.0006121059999999998,4.497,0,0
0.0012333112,-0.0015535228,-6.475080000000008e-05,-5.909816000000006e-05,0.0004703394000000001,4.498,0,0
0.0029845352,-0.0009848018,-0.0008738,0.00092228424,0.0014936934,4.499,0,0
0.0044783024,-0.00052778,-0.001879684,0.0007268456,0.0017462814,4.5,0,0
0.0059651700000000005,-0.000660646,-0.002309188,-0.0005435440000000001,0.0019319294000000001,4.501,0,0
0.006225840000000001,-0.00077662,-0.0019222303400000002,7.40239999999999e-05,0.0027453154,4.502,0,0
0.005135262000000001,-0.0004559072,-0.0011730223399999999,0.0015973040000000001,0.00355122,4.503,0,0
0.004058132200000001,-0.0005628982,-0.00041049034000000006,0.0021355616,0.0034444102000000002,4.504,0,0
0.0019991782000000004,-0.000685127,0.00036146366000000004,0.0026886744,0.0020877622,4.505,0,0
-0.0010045178000000002,-0.000350273,0.00098870366,0.003208148,0.00011246420000000001,4.506,0,0
-0.0028117098,-0.000574611,0.001281404,0.002772708,-0.0019354058000000001,4.507,0,0
-0.0035926278,-0.0011282150000000001,0.00134357,0.0022456,-0.0035557578000000004,4.508,0,0
-0.004590778,-0.001547661,0.0015478500000000001,0.0019597918,-0.004342274,4.509,0,0
-0.004928148,-0.001962688,0.0013460298000000002,0.0019691218,-0.004241264,4.51,0,0
-0.0034313812,-0.0019792796000000002,0.0005917478,0.0021930078,-0.0033904574000000005,4.511,0,0
-0.002502817,-0.0015737514,0.00016042,0.0017600064,-0.0025472266000000003,4.512,0,0
-0.002250039,-0.0012996538,5.4225000000000003e-05,0.0006047304,-0.001633494,4.513,0,0
-0.0006742709999999999,-0.0010011784,-0.00018425,-0.0003778814000000002,9.918600000000002e-05,4.514,0,0
0.0007864830000000001,-0.0001846924,-0.0003339574,-0.0012152214000000002,0.0017914580000000001,4.515,0,0
0.0006608420000000002,0.00037594320000000007,-0.0002924024,-0.0021792688,0.0023817654000000002,4.516,0,0
0.0010747798000000002,0.0006395910000000001,-0.0006130066000000001,-0.0021644078000000004,0.0030150526000000005,4.517,0,0
0.0027451138000000003,0.0009712154,-0.0010464536000000001,-0.0011152282,0.0038548780000000004,4.518,0,0
0.0029277818000000002,0.0014125300000000002,-0.0008797062000000002,-0.0005733822,0.0031630756,4.519,0,0
0.0025085466,0.0015114140000000002,-0.0006660568000000001,-0.0006056881999999999,0.0018669756,4.52,0,0
0.0029003328000000005,0.0013416180000000002,-0.0005045018000000001,-0.0006291986,0.0011091836000000001,4.521,0,0
0.0021204828,0.0012889048,0.00018312820000000003,-0.0007713626,-0.00018243439999999996,4.522,0,0
7.228800000000021e-06,0.0010600702000000003,0.0003606392,-0.0007494960000000001,-0.0016091864,4.523,0,0
-0.0014476552,0.0012403062000000003,7.761340000000006e-05,-0.00030335,-0.002316648,4.524,0,0
-0.0024488700000000006,0.0011383182000000002,0.00018474360000000006,8.816020000000001e-05,-0.003247954000000001,4.525,0,0
-0.003589264,0.0007368992,0.0004204816000000001,1.1637800000000026e-05,-0.004443544000000001,4.526,0,0
-0.0033607284000000005,0.0008035204000000001,0.00023844740000000006,0.00013827239999999997,-0.0042073119999999995,4.527,0,0
-0.0022942364,0.0008545094000000001,0.00016189200000000001,0.00015889560000000003,-0.0025914140000000002,4.528,0,0
-0.0017526360000000001,0.00034114660000000006,0.00044031260000000004,-0.0002833284,-0.0008031340000000003,4.529,0,0
-0.0007994228000000001,-2.7883399999999978e-05,-1.1479400000000031e-05,-0.0007593826000000001,0.001110964,4.53,0,0
0.0008562172,2.717000000000035e-06,-0.0005466314,-0.0011504904000000002,0.0023589404,4.531,0,0
0.0016110576000000001,-0.0003187664,-0.0003247412000000001,-0.0006458526000000001,0.0026026990000000004,4.532,0,0
0.0014198694,-0.000454369,-4.861200000000007e-06,-0.0001135419999999999,0.002384367,4.533,0,0
0.002176091,-0.00031347419999999996,-0.00027830780000000005,1.48499999999999e-06,0.0018237630000000004,4.534,0,0
0.0031934438,-3.8946800000000005e-05,-0.0002056706,0.0008196890000000001,0.001508577,4.535,0,0
0.002418086,0.000166139,0.0001762928,0.0010183450000000004,0.0015271824000000003,4.536,0,0
0.0014463420000000002,0.00034007920000000004,-0.00012361160000000002,-0.00020799099999999998,0.0012402638000000004,4.537,0,0
0.0013434639,0.0002812772,-0.0002766352000000001,-0.0010109408,0.00037384360000000016,4.538,0,0
-0.00010880809999999999,2.313819999999998e-05,5.0411e-05,-0.0012935578,-0.0009130044000000001,4.539,0,0
-0.0020426681,0.00010657900000000001,0.0002933696,-0.0018479698000000001,-0.0022665344,4.54,0,0
-0.0025737743000000006,-2.9208199999999996e-05,0.00032344740000000006,-0.0012647838,-0.0026557882,4.541,0,0
-0.0029844163000000003,-0.00030465480000000007,0.0006119738000000001,0.0001469622,-0.0028814242,4.542,0,0
-0.003590314,-6.777399999999994e-06,0.0006506528,0.0007209320000000001,-0.00372604,4.543,0,0
-0.0029237184,0.00047117160000000003,0.00025232399999999995,0.0008924000000000002,-0.003743614,4.544,0,0
-0.0019291784000000003,0.0005293034000000001,0.0003197244,0.0006316860000000001,-0.0031968140000000005,4.545,0,0
-0.0016029364,0.0007254538000000001,0.00026512519999999997,-0.000623538,-0.0026810062,4.546,0,0
-0.00038592839999999993,0.0009768792000000002,-0.0003049368,-0.002382722,-0.0010891542000000002,4.547,0,0
0.0010465376000000001,0.001041046,-0.00037845260000000003,-0.0033217379999999994,0.0015925238,4.548,0,0
0.0012943336000000001,0.001128006,-3.6384199999999996e-05,-0.0020367659999999998,0.0039799958,4.549,0,0
0.0016097996000000003,0.001435424,-0.0002477776,7.311600000000024e-05,0.0060958558,4.55,0,0
0.0026313936000000003,0.0018367136,-0.0005865436,0.001512314,0.007295518000000001,4.551,0,0
0.0025286936000000005,0.0019038488000000001,-0.00019177639999999998,0.002328894,0.0062976638000000005,4.552,0,0
0.0015269632000000002,0.0016770964,3.9777600000000024e-05,0.0017718940000000002,0.0038181758,4.553,0,0
0.0014551878,0.0009897503999999999,-0.0002509408,-0.0003932139999999998,0.0013309058000000001,4.554,0,0
0.0011105822,-2.867560000000002e-05,-0.00013275319999999995,-0.0029136559999999997,-0.0008012042000000001,4.555,0,0
-0.00010035979999999995,-0.0009139956000000001,0.00014564479999999998,-0.003289537,-0.0018587376,4.556,0,0
-0.0006660298,-0.0014970424000000002,-0.00017685040000000002,-0.0007669749999999996,-0.0003856574000000001,4.557,0,0
-0.0004030297999999999,-0.0018440960000000001,-0.0003906464,0.002374377,0.0019111706000000002,4.558,0,0
-0.0005196700000000001,-0.0017874460000000003,-5.082599999999999e-05,0.004069055,0.0030488366000000003,4.559,0,0
-0.0006750240000000001,-0.0018087280000000003,0.0001248656,0.00505312146,0.0037150726000000005,4.56,0,0
2.9403999999999964e-05,-0.0019149159999999998,0.0006521656,0.005289188459999999,0.003918762,4.561,0,0
0.00043735759999999997,-0.001683094,0.0012985836,0.00318223886,0.0015522460000000002,4.562,0,0
-4.411800000000011e-05,-0.0015450558000000003,0.0013503034,0.0009882276600000001,-0.001569432,4.563,0,0
1.5125999999999936e-05,-0.0012992196400000002,0.0010522228,0.00040641365999999996,-0.002777484,4.564,0,0
0.0005629436,-0.00062488304,0.0006165970000000001,-0.0004870768000000002,-0.003905782,4.565,0,0
0.00025272199999999993,9.676496000000006e-05,-0.000265127,-0.0018377948,-0.004712624,4.566,0,0
0.00010992659999999998,0.0007735829599999999,-0.0014058970000000001,-0.0030276452,-0.004146986,4.567,0,0
0.0009112226000000001,0.00151092676,-0.001760296,-0.0035883840000000005,-0.0025803560000000002,4.568,0,0
0.0007509076,0.0018023266000000001,-0.0014185758,-0.0025541279999999997,-0.000707124,4.569,0,0
-0.00017433439999999992,0.0015581062000000001,-0.0010562812,-0.0005191679999999998,0.0006759779999999999,4.57,0,0
5.352360000000013e-05,0.0012507688000000002,-0.0005394816000000001,0.000982748,0.0007836939999999999,4.571,0,0
2.567540000000011e-05,0.0007855464000000001,0.00042997840000000005,0.0017685980000000001,0.00044382800000000006,4.572,0,0
-0.0008014166,-4.890359999999995e-05,0.0008180646000000001,0.0018396800000000004,0.0006760679999999999,4.573,0,0
-0.0005662986,-0.00032972685999999995,0.0005820128,0.0011380740000000002,0.000983638,4.574,0,0
-1.612800000000002e-05,-0.00013872045999999995,0.0002961006,0.0007636240000000001,0.001274646,4.575,0,0
-0.00040479280000000007,-8.716185999999997e-05,-6.752299999999997e-05,0.0006882640000000001,0.001128938,4.576,0,0
-0.0004855030000000001,-1.0277859999999948e-05,-0.00046826500000000004,0.001215088,0.0012053659999999998,4.577,0,0
0.00010058419999999998,-6.714786000000002e-05,-0.0008377032,0.00177727936,0.0005502679999999996,4.578,0,0
-0.00014560840000000003,-0.00035276860000000004,-0.0007582914,0.0008923353599999998,-0.0021434360000000003,4.579,0,0
-0.000623691,-0.0007087312000000001,-0.00046348700000000006,-0.0003381646400000001,-0.0039234560000000005,4.58,0,0
-0.00015856260000000005,-0.0011310644,-0.00048701700000000007,-0.0011046586400000002,-0.0032997540000000002,4.581,0,0
6.608019999999995e-05,-0.0015652540000000003,-0.00039916020000000003,-0.00162291464,-0.0029476479999999998,4.582,0,0
-0.00033635900000000005,-0.0013117994,0.00024021980000000001,-0.0014547958000000003,-0.002890276,4.583,0,0
-8.255900000000002e-05,-0.0009093164000000001,0.00033957660000000006,-0.0011657758000000002,-0.0011936800000000001,4.584,0,0
0.0001316738,-0.00043832040000000005,0.0004393276,-0.0017765978000000003,0.0003238360000000001,4.585,0,0
-0.0007443382000000001,1.9891399999999977e-05,0.0009420936,-0.0022608258000000004,0.0003342834,4.586,0,0
-0.0011628448000000002,2.1513399999999996e-05,0.0006201648,-0.0022073094,0.0008125774000000002,4.587,0,0
-0.0010085550000000002,0.00018876739999999998,8.855680000000008e-05,-0.0021294376000000003,0.0016007054000000001,4.588,0,0
-0.0015879854000000002,0.0004056264,-1.628419999999994e-05,-0.0014168936,0.0010848976,4.589,0,0
-0.0017992282,0.00022581800000000003,-0.00035681880000000007,0.00016101439999999988,0.0006475002000000001,4.59,0,0
-0.0008245062000000001,0.000122857,-0.0005924844,0.0010602784,0.0005447128,4.591,0,0
-0.00011154019999999988,0.0006521806,0.00012165360000000004,0.0007613460000000002,-0.0006080032,4.592,0,0
-1.7992199999999922e-05,0.0006561958,0.0004894370000000001,0.0007757320000000001,-0.0015917632,4.593,0,0
0.0009996578,0.0003788516,0.00029802,0.0007180600000000002,-0.0014016401999999999,4.594,0,0
0.0022005678,0.00047239640000000006,0.0006707586000000001,0.00021522624000000007,-0.0016981468,4.595,0,0
0.0014629177999999998,0.0003093716,0.0007653750000000001,0.00022969194000000006,-0.0021737708,4.596,0,0
0.0007897017999999999,0.00020251619999999998,0.00016864700000000007,0.00044333594,-0.0009802368,4.597,0,0
0.0013176260000000001,0.00035463840000000003,8.367100000000002e-05,0.00041729394000000004,0.0006018592,4.598,0,0
0.00052372,0.0002156032,0.000294008,0.00056447194,0.000842984,4.599,0,0
-0.0005696579999999999,0.00016124580000000002,-0.00019115720000000003,0.0009319277,0.001154091,4.6,0,0
0.00018094400000000005,0.0005455124000000001,-0.0005810820000000001,0.0010327976,0.002085061,4.601,0,0
0.0008283580000000002,0.0002728442,-0.0004548678,0.0008531535999999999,0.001585631,4.602,0,0
2.4888000000000037e-05,-0.00030124580000000006,-0.00038499059999999997,0.0007038602,0.00042092379999999997,4.603,0,0
0.0002538866,-0.0007057044000000001,-0.0005016798,0.0007701122000000001,0.0007898098000000001,4.604,0,0
0.0012058946,-0.0012305554,-0.0004173814,0.0008528482000000001,0.0014217368,4.605,0,0
0.0004707526000000001,-0.0014544240000000002,0.00011755460000000001,0.0012760766,0.0011142382,4.606,0,0
-0.000103996,-0.001258566,0.0002691441,0.0019587246,0.0014753796000000002,4.607,0,0
0.0008475840000000001,-0.0008608352,-0.00013473050000000001,0.0011451080000000002,0.0011402848000000004,4.608,0,0
0.0012986494000000002,-0.0002560716,0.0001801549,-0.0003622139999999999,-0.0007987612000000001,4.609,0,0
0.0009896074000000001,0.00042408440000000006,0.0004970197,-0.00116488,-0.0016627944000000001,4.61,0,0
0.0015887674000000002,0.0007625584000000001,-3.10043e-05,-0.002107454,-0.0015179878000000002,4.611,0,0
0.0017247466,0.0010343264,-0.0001735222,-0.0027213600000000004,-0.0020069832,4.612,0,0
0.0006710526000000001,0.0014520516,-3.241559999999998e-05,-0.0018655938000000003,-0.0020060412,4.613,0,0
7.372360000000003e-05,0.0017944,-0.00039046720000000004,-0.00017210579999999993,-0.0002540652,4.614,0,0
-0.0003909476,0.00195127,-0.0006213232000000001,0.0007529302,0.000780612,4.615,0,0
-0.0011602256000000002,0.0018712160000000002,-0.00035734496000000007,0.0012272274000000001,0.00052048212,4.616,0,0
-0.0015822142,0.0016982626000000003,-0.00024607736,0.0017168482,0.0007993411199999999,4.617,0,0
-0.0013142896,0.0013528722,0.00016960604,0.0014452044000000002,0.0014309743200000002,4.618,0,0
-0.0015420666000000001,0.0008658302000000001,0.0007845476400000001,0.00017988439999999987,0.00111017952,4.619,0,0
-0.0021157054000000004,0.0004832782000000001,0.0008407816400000001,-0.0009829956000000002,0.00031968252000000004,4.62,0,0
-0.001450418,0.000387395,0.0008565321600000001,-0.0013641828,0.0006355124,4.621,0,0
-0.0007073660000000001,0.0004390434,0.00088546654,-0.0015860546000000004,0.0010577354,4.622,0,0
-0.00035079659999999994,7.902379999999995e-05,0.00043075774000000006,-0.0012946694000000002,0.0011072076,4.623,0,0
0.0009079634,-0.0002578702,-0.00033887426,-0.0005865254000000001,0.0014528224,4.624,0,0
0.0021282014000000003,-0.0003315412,-0.0006244982600000001,-6.804040000000005e-05,0.00134729868,4.625,0,0
0.0020662482,-0.000428835,-0.00073210442,2.892159999999999e-05,0.00076837668,4.626,0,0
0.0017649242000000002,-0.0005009328,-0.0008159054000000002,-0.0002238314,0.00096129268,4.627,0,0
0.0015364805999999998,-0.000358995,-0.0005983436000000001,-0.0005213234,0.00116677128,4.628,0,0
0.0003113866,-0.00031132100000000004,-0.0004560276,-0.0005606442000000001,0.00024636328000000006,4.629,0,0
-0.0011346534,-0.0009337900000000001,-0.0004349436,-0.0002548072000000001,-0.00026593000000000005,4.63,0,0
-0.0017490596,-0.0016505670000000001,-0.00010377619999999999,2.1015600000000057e-05,-0.00022877400000000003,4.631,0,0
-0.0026047396000000002,-0.0023288922,0.000498397,-0.0001177544,-0.001196922,4.632,0,0
-0.003640604,-0.0026438,0.000744886,-0.000488024,-0.00200073,4.633,0,0
-0.0032844999999999997,-0.002435017,0.0009421968,-0.00020580919999999995,-0.001037474,4.634,0,0
-0.002172308,-0.0019118338,0.0011146816000000002,5.0246799999999995e-05,-0.00020041199999999996,4.635,0,0
-0.0016941296000000002,-0.0011070862,0.0007055936,-0.000650976,-0.0008489719999999999,4.636,0,0
-0.0009145368000000001,-0.0006239228000000002,0.00011020479999999998,-0.000956758,-0.0008132599999999999,4.637,0,0
0.00024410800000000004,-0.0004768788,-0.0002556774000000001,-0.00015561199999999996,0.00031750000000000013,4.638,0,0
0.00023268800000000005,-0.0005559356,-0.00048575380000000007,0.00019645000000000014,0.00070422,4.639,0,0
8.288440000000003e-05,-0.0008491468000000001,-0.0004373401800000001,0.0003343380000000003,0.000923208,4.64,0,0
0.00086744,-0.0010574916,-0.0003991489800000001,0.0015742400000000002,0.002131954,4.641,0,0
0.0015403932,-0.0006036990000000001,-0.00051640278,0.0025711540000000004,0.0026781006000000003,4.642,0,0
0.0015631418000000002,0.000358191,-0.0003989867800000001,0.0023349132,0.0014999486,4.643,0,0
0.0018536958,0.0013236628,-0.00013930158,0.0016115216,-5.508340000000007e-05,4.644,0,0
0.0021480634,0.0019303908,4.82534e-05,0.0004973276000000001,-0.0014697234000000002,4.645,0,0
0.0008366853999999999,0.001795326,0.0002815702,-0.0004835064,-0.0029231094000000003,4.646,0,0
-0.0006353646000000001,0.0013474726000000002,0.0005393538,-0.0006739306000000001,-0.0032390502000000003,4.647,0,0
-0.0009112152000000001,0.0006559294,0.0006992920000000001,-0.000681472,-0.0019255642000000001,4.648,0,0
-0.0014207992,-0.00013250045999999997,0.0008432623999999999,-0.00048403240000000004,-0.0009332421999999999,4.649,0,0
-0.0020876152,-0.00012199585999999997,0.0008179832000000001,6.4244e-05,4.885180000000004e-05,4.65,0,0
-0.0013511674,0.00024448074,0.0006016192,0.0001248219999999999,0.0019314658,4.651,0,0
-0.00034243519999999994,0.00047215174000000005,0.00039975860000000005,-0.00040238380000000003,0.002112402,4.652,0,0
-0.0005100399999999999,0.00047202854000000005,0.0003167548,-0.0006534042,0.000547708,4.653,0,0
-1.3103999999999948e-05,0.00017020240000000002,-3.31766e-05,-0.0014886122,-0.0007295919999999999,4.654,0,0
0.0008563940000000001,-5.960080000000003e-05,-0.00031475120000000006,-0.0023812506,-0.001977368,4.655,0,0
0.000807592,-0.00027900300000000005,-0.00034762240000000004,-0.0009756605999999997,-0.0027154494,4.656,0,0
0.0014387278000000002,-0.0004396382000000001,-0.0006460708000000001,0.0009285494,-0.0022380813999999995,4.657,0,0
0.0029034118,-0.0002789088000000001,-0.0008427828000000001,0.0011379338400000002,-0.0012400634,4.658,0,0
0.0035415178000000004,5.720939999999999e-05,-0.0007973072000000001,0.0011570598400000003,0.0007231386000000001,4.659,0,0
0.0033830338000000004,8.733e-05,-0.0008779604000000001,0.0016723538400000002,0.0034696186000000005,4.66,0,0
0.0036103360000000004,0.00014470739999999997,-0.0010589212,0.0008070158400000002,0.004781834,4.661,0,0
0.0029688912000000005,1.0622199999999968e-05,-0.0008004424000000001,-0.0005645655600000001,0.004398014200000001,4.662,0,0
0.0008931432,-0.0005372588,-0.00047504660000000006,-0.0006615404,0.0034350362000000008,4.663,0,0
-0.0004823048000000001,-0.0010878770000000001,-0.00040489300000000014,-9.321900000000004e-05,0.0019457561999999997,4.664,0,0
-0.0013067568000000001,-0.0015552609999999998,-0.00014405,0.0001744998,-0.00015513579999999999,4.665,0,0
-0.0029490728000000003,-0.0018047468,0.000352834,-0.00028585220000000003,-0.0022440998,4.666,0,0
-0.004191418000000001,-0.0018100572,0.0006852542000000001,-0.0004360988,-0.003190604,4.667,0,0
-0.0038640540000000004,-0.0018311712,0.0005720248,-0.0008418338,-0.0036645540000000004,4.668,0,0
-0.004079948,-0.0019540452000000002,0.0005549206599999999,-0.0015562891999999998,-0.0043122080000000005,4.669,0,0
-0.004478266,-0.0017818732,0.00036188946,-0.0013209282000000001,-0.00407386,4.67,0,0
-0.002943414,-0.0018116132,8.332866000000003e-05,-0.0012612305999999999,-0.0033255166000000004,4.671,0,0
-0.0013938000000000002,-0.0017975278,0.00013807366000000002,-0.0019919466,-0.0025042160000000005,4.672,0,0
-0.0005847380000000002,-0.0009875638000000002,4.013986000000001e-05,-0.0011842846,-0.000518798,4.673,0,0
0.000788282,0.00019695820000000008,-0.0001053004,0.0009158974,0.002220456,4.674,0,0
0.0025404900000000003,0.0009422882,-0.00019034660000000003,0.0011939396,0.0032707480000000004,4.675,0,0
0.0034961140000000003,0.0015541982,-8.902980000000003e-05,0.0007291479999999999,0.0027897466000000003,4.676,0,0
0.004132712,0.0024222460000000003,-0.00018553920000000004,0.0012681399999999998,0.0029160076000000006,4.677,0,0
0.0052216680000000005,0.0026486900000000004,-0.00015991420000000006,0.0015157759999999997,0.0022484454,4.678,0,0
0.005138608,0.002550472,0.00030249240000000004,0.000675636,-0.0004186306000000001,4.679,0,0
0.003726246,0.00293068,0.0005346310200000001,1.1419999999999833e-06,-0.0019657966000000003,4.68,0,0
0.0023047420000000002,0.00311496,0.00049361142,-0.000189858,-0.0014558082000000001,4.681,0,0
0.000783476,0.0024826051999999998,0.0004938574200000001,-0.0008435040000000001,-0.0022074538,4.682,0,0
-0.00126818,0.0020295292,0.0006507416199999999,-0.001992134,-0.0036261036,4.683,0,0
-0.002372582,0.0019614372,0.00049567922,-0.0014488059999999997,-0.0026179068,4.684,0,0
-0.002501768,0.0014240112,0.0005821926,0.0014690940000000004,-0.0009704608000000001,4.685,0,0
-0.004552116,0.0010855906,0.0005587012000000001,0.0037802260000000002,-0.0008060832000000001,4.686,0,0
-0.008114456,0.0011853372,-0.0002998554,0.005150652,-0.00019633059999999997,4.687,0,0
-0.010492834000000001,0.0008927314,-0.0009739213999999999,0.005680969200000001,0.0010843354000000002,4.688,0,0
-0.011695438,0.0004037968,-0.0010485588,0.0036056272000000006,0.0005368126000000001,4.689,0,0
-0.011534158000000001,8.357719999999999e-05,-0.0013647688,-0.00048793480000000004,-0.0007107153999999999,4.69,0,0
-0.007492072,-0.0001583614,-0.0015512178,-0.0030325188,0.00015620460000000016,4.691,0,0
-0.0003185120000000004,-0.0002486276,-0.0005477638,-0.0028264168,0.0023790980000000005,4.692,0,0
0.006164648,-0.0002587202,3.5797799999999984e-05,-0.0021981580000000004,0.0034301240000000005,4.693,0,0
0.010925444000000001,-0.0004994136000000001,-0.00037403640000000004,-0.0014969799999999998,0.0040812566,4.694,0,0
0.013898006000000003,-0.0009413760000000001,-0.00020010860000000002,-0.000956278,0.0038820286000000002,4.695,0,0
0.013403098000000002,-0.0013716828000000002,0.00035776540000000004,-0.0015689240000000002,0.0010237445999999996,4.696,0,0
0.010757392000000001,-0.0018591784,0.00018463960000000002,-0.002898686,-0.0015193394000000003,4.697,0,0
0.008102292,-0.002425834,-2.560879999999999e-05,-0.003685026,-0.0024282752,4.698,0,0
0.004523506000000001,-0.002698222,0.0005763332,-0.00286065,-0.0027276638000000002,4.699,0,0
0.0006649340000000001,-0.0023577476,0.0010699014,-0.00011132200000000007,-0.0013480198,4.7,0,0
-0.0013825019999999999,-0.0016303416000000002,0.0008844371999999999,0.0029685980000000002,0.0014795282,4.701,0,0
-0.002539764,-0.0008504095999999999,0.0008866356,0.004250874000000001,0.0023094442,4.702,0,0
-0.004118994,0.0003026484,0.0010180458000000002,0.004841908000000001,0.0019794924,4.703,0,0
-0.004020186,0.0016494424000000002,0.0003207878000000001,0.004364902800000001,0.0026635484,4.704,0,0
-0.0025197082,0.002205448,-0.0002438106,0.0021729688000000007,0.0025294404,4.705,0,0
-0.0017455782,0.002197824,-0.0001050124,0.0004342208,0.0017207723999999999,4.706,0,0
-0.0008317121999999998,0.0022754000000000003,-2.8542000000000107e-06,-0.0004841592,0.0016624743999999999,4.707,0,0
0.0010164858000000002,0.002246922,-0.000173811,-0.0010279726,0.0020670280000000003,4.708,0,0
0.0022880478000000004,0.002044152,5.193840000000002e-05,-0.0013663694000000002,0.0010781080000000004,4.709,0,0
0.0025458120000000006,0.0021422480000000002,0.00020873640000000003,-0.0014096934000000002,-0.0002398499999999999,4.71,0,0
0.0029847180000000004,0.00239178,-0.0006623856,-0.0011354510000000002,-0.00033825499999999987,4.711,0,0
0.0023959920000000004,0.002067146,-0.0013535964,-0.0008156526000000001,-0.0006777183999999999,4.712,0,0
0.00011761999999999992,0.0013457059999999997,-0.001267199,-0.0007215952,-0.0014868263999999998,4.713,0,0
-0.001604184,0.0006982441999999998,-0.0009876632,-0.0005827974,-0.0017745264,4.714,0,0
-0.0024791600000000002,0.00014084259999999998,-0.0008000988,-0.0004392616,-0.0016263704000000002,4.715,0,0
-0.0038837460000000004,-0.0002982975600000001,-2.530700000000013e-05,-0.0007241880000000001,-0.0021896494000000002,4.716,0,0
-0.004365482,-0.0007357115600000002,0.000821903,-0.0009530944000000002,-0.0026282280000000002,4.717,0,0
-0.0031664519999999997,-0.00105015556,0.0010451030000000001,-0.0013742164000000003,-0.002088208,4.718,0,0
-0.0024655736,-0.00166412976,0.0012828978000000001,-0.0016839682,-0.001764622,4.719,0,0
-0.0025235976,-0.00239007816,0.0012654478000000001,-0.0014588362,-0.0015585820000000002,4.72,0,0
-0.0012516076000000003,-0.0025445942,0.0009894054000000002,-0.0010661342,-0.000834404,4.721,0,0
0.00014128840000000002,-0.0026893202,0.0006943756,-0.0008603982000000001,-0.00019751199999999984,4.722,0,0
0.00025191639999999995,-0.0024595422000000004,0.00039665360000000005,-0.0008798142,0.00015283800000000014,4.723,0,0
0.001121444,-0.0017221468000000002,-0.0003496524,-0.0005384512,0.0012026200000000002,4.724,0,0
0.002637764,-0.0011481032,-0.0006643354000000001,-0.00045158780000000004,0.0018436260000000001,4.725,0,0
0.003161194,-0.0011506662000000001,-0.00034907060000000003,-0.0003360842,0.001172424,4.726,0,0
0.0030501800000000004,-0.0010309742,-0.0006638968,0.0005458738,0.0006695100000000001,4.727,0,0
0.0031677480000000006,-0.0006729679800000001,-0.0006146252000000001,0.0015204138,0.0002509264,4.728,0,0
0.0020790920000000003,-0.0006819753800000001,-0.0001296532,0.0019775528,-0.0011155736000000001,4.729,0,0
-3.163199999999997e-05,-0.0005666699800000001,-0.0001245604,0.0018813962,-0.0025646256000000003,4.73,0,0
-0.0015910639999999999,-0.0007333587800000001,-0.00018234619999999997,0.0015516088,-0.0022318058,4.731,0,0
-0.0030219879999999998,-0.00121487878,0.0002217664,0.0009163102,-0.0015774297999999998,4.732,0,0
-0.004498584,-0.0015444050000000002,0.000451382,0.0007811922000000001,-0.0013557318,4.733,0,0
-0.004959136,-0.001541027356,0.00041351020000000003,0.0008886102,-0.0002451538,4.734,0,0
-0.004190288,-0.0014619721160000002,0.00040412520000000004,0.000899972,0.0006285852,4.735,0,0
-0.0037958,-0.001187675516,0.00028735340000000004,0.0007509598000000001,3.6867400000000134e-05,4.736,0,0
-0.0029137914000000003,-0.00018022031600000004,0.0001157912,-0.0004468756,-0.0010849226,4.737,0,0
-0.0006389993999999999,0.000535411684,-0.0002113432,-0.0018125356,-0.0019693970000000003,4.738,0,0
0.0011624246000000002,0.00058141004,-0.0002543714,-0.0034149216,-0.0030436810000000003,4.739,0,0
0.0020543386,0.0007215494000000001,-0.0003606302,-0.004489618,-0.0027997674,4.74,0,0
0.0036996986,0.0012895468000000002,-0.0008352748000000001,-0.003181984,-0.0003819034,4.741,0,0
0.005134432,0.0017802016000000001,-0.0012439612,-0.0003874380000000008,0.0027708205999999996,4.742,0,0
0.004721056,0.0018503856000000002,-0.0012677122000000001,0.0015871319999999998,0.0047943246,4.743,0,0
0.004334108,0.0020733356,-0.0014254706,0.00236131,0.0055090930000000005,4.744,0,0
0.004078914,0.0023172220000000003,-0.0014158948,0.002941618,0.005379467800000001,4.745,0,0
0.002097044,0.0018690386000000002,-0.0007117287999999999,0.002443728,0.0033608478,4.746,0,0
-0.0004036399999999999,0.0010470762000000002,-0.00021811059999999994,0.0012923000000000001,0.0009389592,4.747,0,0
-0.001793392,0.0007520002,0.00020861160000000005,0.001226232,0.00021199520000000005,4.748,0,0
-0.0033704520000000003,0.0004349160000000001,0.0009238060000000001,0.0022266560000000005,0.0004995508000000001,4.749,0,0
-0.004889374,-0.0001330362,0.0016156902,0.0028345244000000003,0.0005529494000000001,4.75,0,0
-0.00483626,-6.475099999999999e-05,0.0016433142,0.0021687912000000003,0.00044285540000000006,4.751,0,0
-0.00413622,2.0839999999999618e-07,0.0014154348,0.0008849412000000003,-0.00020173199999999993,4.752,0,0
-0.0037867800000000004,-0.00041312560000000007,0.0011039828,-0.0003763728,-0.0017020160000000002,4.753,0,0
-0.0027163020000000003,-0.00024124640000000003,0.0004093993999999998,-0.0012211478000000002,-0.00216459,4.754,0,0
-0.0007557100000000001,7.611239999999998e-05,-3.567720000000003e-05,-0.0015491362000000003,-0.001354332,4.755,0,0
0.0004190979999999999,-0.00011327360000000004,7.034880000000003e-05,-0.0012037242,-0.000545394,4.756,0,0
0.0015754340000000001,0.00019351739999999998,0.00034876720000000006,-0.00017570819999999997,0.000615752,4.757,0,0
0.003514398,0.0006808614,7.250720000000004e-05,0.0007809198000000001,0.0023927540000000004,4.758,0,0
0.00470434,0.0006294134000000001,-0.00011059140000000003,0.0010117210000000001,0.003086076,4.759,0,0
0.004846522,0.0005664674000000001,-2.0570999999999936e-05,0.0009212170000000002,0.0024254376,4.76,0,0
0.004909162000000001,0.0006064716,-0.0006073949999999999,0.0003875682000000001,0.002011843,4.761,0,0
0.004305611599999999,0.00020277440000000002,-0.0010883262,-0.0008795338000000001,0.0008720889999999999,4.762,0,0
0.0022114616000000003,-0.0002902276,-0.0005688642,-0.0019802298000000003,-0.0010510250000000001,4.763,0,0
-1.6066400000000155e-05,-0.0005677766000000001,-0.00012253799999999994,-0.0021607564,-0.002428083,4.764,0,0
-0.0018742424,-0.0010485192,7.30202000000001e-05,-0.0017437086000000003,-0.0041113326,4.765,0,0
-0.003972508400000001,-0.0016360592,0.0008818982000000002,-0.0012987570000000002,-0.005663584,4.766,0,0
-0.005268964000000001,-0.002156412,0.0014200078,-0.000709619,-0.005462504000000001,4.767,0,0
-0.0050089900000000005,-0.00244064,0.0010217377999999998,-7.062040000000003e-05,-0.004063106,4.768,0,0
-0.004458214,-0.0028438380000000004,0.0006582976000000002,0.000272108,-0.0024753600000000002,4.769,0,0
-0.00392261,-0.0030419059999999996,0.0002123472,0.00024674500000000004,5.000199999999984e-05,4.77,0,0
-0.002033966,-0.0025411578,-0.0006828708,0.0006888754000000001,0.00279702,4.771,0,0
-2.509399999999992e-05,-0.0019513054,-0.0009983676000000002,0.0015904654000000002,0.003824674,4.772,0,0
0.0007058460000000002,-0.0010350294000000002,-0.0007651914000000001,0.0017502968,0.0038125760000000002,4.773,0,0
0.0019960040000000004,0.00047588460000000003,-0.0006566202,0.0013261390000000003,0.0035930000000000003,4.774,0,0
0.0037497660000000003,0.0018210906,-0.0006431292,0.0007386042,0.0028426500000000004,4.775,0,0
0.004251342,0.0023131544,-0.000352917914,-0.00014508180000000003,0.0018227140000000002,4.776,0,0
0.0043282880000000004,0.0026129995999999997,-0.000379902114,-0.0012402318,0.0013916398000000001,4.777,0,0
0.00473196,0.0025828056,-0.000701588314,-0.0020502858,0.0012764282,4.778,0,0
0.003650032,0.0020116136,-0.000518753914,-0.00209676,0.00042049420000000006,4.779,0,0
0.00115735,0.0016890956,-0.00015096451399999997,-0.0018677240000000003,-0.0008465478000000001,4.78,0,0
-0.0005793420000000003,0.0014820462,2.1270799999999993e-05,-0.001855464,-0.0021565258,4.781,0,0
-0.0022997420000000005,0.0011588188,0.00021382126,-0.0014484144,-0.0036298316000000002,4.782,0,0
-0.004327372,0.0005421408,0.00053063386,-0.0007475687999999999,-0.005111774,4.783,0,0
-0.004801018000000001,-0.00010651520000000002,0.0003861394600000001,-0.00012160680000000002,-0.005752768,4.784,0,0
-0.003866534,-0.0007018128000000001,0.00026603786,0.0006744032000000001,-0.0052107460000000005,4.785,0,0
-0.003336122,-0.0010371572,0.00028666946,0.0010330232,-0.0045876960000000005,4.786,0,0
-0.0025070831559999996,-0.0010234,-9.488360000000002e-05,0.0012359762000000002,-0.0034881148000000003,4.787,0,0
-0.0005889311560000001,-0.0008011468,-0.00034421620000000007,0.0015861866,-0.0012892108000000003,4.788,0,0
0.0009613128440000002,-0.0002284648,-0.00020720540000000005,0.001349072,0.0007977132000000001,4.789,0,0
0.001987938844,0.00031809480000000005,-0.0005778778,0.0008461911999999999,0.0022791931999999997,4.79,0,0
0.0035661808440000005,0.0007082586,-0.0009665672000000001,0.0004019951999999999,0.004013767200000001,4.791,0,0
0.005189234,0.0012525512000000003,-0.0006043452,-0.0003942654000000001,0.005211882,4.792,0,0
0.005297106,0.0017445600000000003,-0.000288755,-0.0012866614,0.004548956000000001,4.793,0,0
0.004944588000000001,0.0016116602,-7.566499999999999e-05,-0.0020353368000000003,0.0035560182,4.794,0,0
0.004514994,0.0012843776,0.0003100592,-0.0028934000000000004,0.0026783014,4.795,0,0
0.002526892,0.0010931804,0.0008887984,-0.002984828,0.0007936394,4.796,0,0
-0.00016691199999999996,0.0007647776000000001,0.0010632726,-0.0021533998,-0.0004520506000000001,4.797,0,0
-0.001820566,0.000280064,0.0008690772,-0.0013510398,6.574340000000008e-05,4.798,0,0
-0.0032167180000000004,-2.902839999999998e-05,0.0009778952,-0.0004284997999999998,6.22385999999999e-05,4.799,0,0
-0.004772888000000001,-0.00027116240000000006,0.0012814990000000002,0.0010946222,-3.746929999999995e-05,4.8,0,0
-0.004989346,-0.0005438652,0.0010486914000000002,0.0025274202,0.0012564787,4.801,0,0
-0.004447122000000001,-0.0005864364,0.0007951080000000001,0.003085832,0.0013679877,4.802,0,0
-0.004133996000000001,-0.0008956808000000001,0.0012683372,0.003139832,3.8587699999999996e-05,4.803,0,0
-0.0032791392000000004,-0.0013444186000000002,0.0011199932000000002,0.0029495618,-0.0005313257,4.804,0,0
-0.0011866892000000002,-0.001449042,0.00032518120000000014,0.0020794516,-0.0009049310000000001,4.805,0,0
0.0005631248,-0.0013992712,-1.9589199999999938e-05,0.0008056316,-0.0014228805999999998,4.806,0,0
0.0016459527999999998,-0.0012371592000000001,-0.000541384,-0.0003757824,-0.0008416175999999999,4.807,0,0
0.0032043248,-0.0005121252000000001,-0.0015381680000000001,-0.0014514544000000002,-4.467599999999957e-06,4.808,0,0
0.004208384,0.0006443288000000001,-0.0017689416,-0.0024010062000000003,-2.837599999999988e-06,4.809,0,0
0.0039993960000000005,0.0015172268000000003,-0.0016238504,-0.0029655120000000004,9.994240000000003e-05,4.81,0,0
0.00375821,0.00199858,-0.0017625143999999999,-0.002192884,0.0011489360000000001,4.811,0,0
0.003523202,0.0021028440000000004,-0.0010481802000000002,-0.0009091160000000001,0.0019005880000000001,4.812,0,0
0.001902414,0.0019225720000000004,-0.00029859480000000006,3.7875999999999784e-05,0.0016318060000000002,4.813,0,0
6.350799999999977e-05,0.0014736874,-0.00036510780000000004,0.001169116,0.0021100032,4.814,0,0
-0.0012502940000000003,0.0008759334000000001,-0.00021607280000000002,0.002344744,0.0023353216,4.815,0,0
-0.0030098460000000005,0.00023252140000000005,1.8928999999999967e-05,0.0025828960000000003,0.0003787736000000001,4.816,0,0
-0.004372330000000001,-0.0005120026000000001,-8.6129874e-05,0.00199628,-0.0017346684000000001,4.817,0,0
-0.004007496,-0.0011636166000000001,-0.000216462094,0.0016191030000000002,-0.0015015904,4.818,0,0
-0.003430612000000001,-0.0019192000000000002,9.552250599999997e-05,0.000862015,-0.0008014376000000001,4.819,0,0
-0.003508044,-0.002221316,0.000590786306,0.0003369979999999999,-0.000593629,4.82,0,0
-0.0020909559999999997,-0.001893363664,0.000801615106,0.00026127799999999993,0.0010147050000000003,4.821,0,0
-0.0002404540000000002,-0.001483830864,0.0010007497800000001,6.419619999999991e-05,0.002292835,4.822,0,0
0.000567236,-0.0008246268640000001,0.0011186770000000002,-3.0396000000000378e-06,0.0018929188,4.823,0,0
0.0019505960000000002,-0.00012570286399999996,0.000630437,0.00046278279999999996,0.0015913028000000002,4.824,0,0
0.004021264,0.00013654813600000003,-0.00010694099999999994,0.00051227714,0.0015090234,4.825,0,0
0.004557758,7.325100000000002e-05,-0.0003045388,-0.00061918086,0.00023924540000000005,4.826,0,0
0.0039163304,4.4867600000000024e-05,-0.0008010548,-0.00086826906,-0.0007874545999999999,4.827,0,0
0.0035397502,-7.209319999999999e-05,-0.0012571392,-0.00063641506,-0.0010147664,4.828,0,0
0.0021137682,-6.959723999999998e-05,-0.0006210931999999999,-0.00171029346,-0.0022237424,4.829,0,0
-0.00013422580000000024,-0.00018338204,6.302280000000004e-05,-0.0032686288000000003,-0.00392401,4.83,0,0
-0.0017358338,-0.00027246944,0.00038245400000000006,-0.0035665468,-0.004790098,4.831,0,0
-0.0029486082,-0.00012444884,0.00092581,-0.0040772568,-0.005506494,4.832,0,0
-0.0043678300000000005,-0.00023191203999999997,0.0014500782000000001,-0.0037893040000000007,-0.005793422,4.833,0,0
-0.005006802000000001,-0.00018589359999999995,0.0011746396,5.032599999999984e-05,-0.0037874140000000002,4.834,0,0
-0.0044309760000000005,-9.589880000000002e-05,0.0005982824,0.0035462479999999997,-0.0010795240000000003,4.835,0,0
-0.003910002,-0.00031532860000000007,0.00025774240000000007,0.004680009999999999,0.00036088120000000036,4.836,0,0
-0.0030036724000000003,-0.000547548,-0.00023580160000000002,0.005031439999999999,0.0012478812000000002,4.837,0,0
-0.0009368464000000001,-0.0007969060000000001,-0.0006802818000000001,0.004751735,0.0021228420000000002,4.838,0,0
0.0008545296,-0.0012171064,-0.0008283632,0.0030813429999999994,0.0019157360000000003,4.839,0,0
0.0018019756000000001,-0.0010641628,-0.0009480380000000002,0.0012693172,0.0014401340000000002,4.84,0,0
0.0033466856000000005,-0.0004193428000000002,-0.0010316084000000002,0.0009861759999999998,0.0022296148000000003,4.841,0,0
0.0051809379999999995,0.0002448046,-0.0009708138000000001,0.0014055192,0.0036207708,4.842,0,0
0.0057013540000000005,0.0010644746,-0.0010033278000000003,0.0008003762000000001,0.004193846,4.843,0,0
0.005488368,0.001491633,-0.0012367198000000001,-0.0006550178,0.00370461,4.844,0,0
0.005263463999999999,0.0015908198,-0.0010406264,-0.0013948040000000001,0.0030141386,4.845,0,0
0.003641608,0.0015202478,-0.00050504,-0.0024855548000000003,0.0012980146000000003,4.846,0,0
0.0007458540000000002,0.0008145785999999999,-9.705999999999734e-07,-0.0035045840000000003,-0.0005208674000000002,4.847,0,0
-0.0013583080000000001,0.00026608562000000007,0.0006325254,-0.003698006,-0.0017510074,4.848,0,0
-0.002949666,0.0005323832200000001,0.0011410954,-0.00393092,-0.0034188814000000005,4.849,0,0
-0.0046363559999999995,0.00045689642000000004,0.001505518,-0.0030182940000000004,-0.004214908000000001,4.85,0,0
-0.004823975999999999,0.00018688001999999997,0.0013546094,-0.000894368,-0.0033927794000000004,4.851,0,0
-0.004087754000000001,0.00051665582,0.00104524446,0.0004830240000000001,-0.0028277774,4.852,0,0
-0.004015598,0.0005717078,0.00094063446,0.0012467304,-0.0032030354,4.853,0,0
-0.0030638042000000003,0.0003051168,0.00066105126,0.001817634536,-0.0025905214000000003,4.854,0,0
-0.0008934882000000001,0.00023184950000000002,0.00036348766000000003,0.001485246536,-0.0015868040000000003,4.855,0,0
0.0006639158,3.731590000000004e-05,0.00036277886000000005,0.0005963169360000001,-0.0015447026000000002,4.856,0,0
0.0021666098,-0.00039424070000000004,0.0003901182,-0.00038546106400000004,-0.0005495386000000001,4.857,0,0
0.0045403118,-0.00045073954,4.554059999999999e-05,-0.001255799464,0.0016584014,4.858,0,0
0.005996812000000001,-2.1092540000000018e-05,0.00010981065999999997,-0.0019163516,0.0029748754000000002,4.859,0,0
0.005710822000000001,0.00025948616,0.00011476425999999998,-0.0020856896,0.0033470340000000005,4.86,0,0
0.005279084000000001,0.00056368716,-0.00044346034000000006,-0.0014826320000000002,0.0044073720000000005,4.861,0,0
0.004472476000000001,0.00099843376,-0.0007317827400000001,-7.647800000000005e-05,0.00497923,4.862,0,0
0.002100786,0.0011992296,-0.0007292515400000001,0.001049424,0.0034963390000000007,4.863,0,0
-0.0005904380000000001,0.0006463838000000001,-0.0006005912,0.0016582732,0.002132405,4.864,0,0
-0.0024238440000000005,-0.0006235582,-0.00020333119999999997,0.0023592592000000003,0.0014448704000000001,4.865,0,0
-0.0043933800000000005,-0.0017569971999999998,0.0005996907999999999,0.0022380892000000005,-0.00018896760000000027,4.866,0,0
-0.006371348,-0.0026327558,0.0009369204,0.0016739092,-0.0021142176,4.867,0,0
-0.00670055,-0.0036810078000000003,0.0008749016,0.0010912112,-0.0027207126000000003,4.868,0,0
-0.005850004000000001,-0.0043131,0.0008734001999999999,0.000267972,-0.0025412846,4.869,0,0
-0.005017512,-0.0037314600000000002,0.0002366642,-9.496800000000007e-05,-0.002032294,4.87,0,0
-0.0032684259999999996,-0.0028053242,-0.0007105898,-9.413600000000009e-05,-0.000746582,4.871,0,0
-0.0009245840000000002,-0.0020318750000000003,-0.0010447174000000003,-0.0006893140000000003,-4.767610000000004e-05,4.872,0,0
0.0002906112,-0.0010574940000000002,-0.000852387,-0.0015562100000000001,-0.0004725220999999998,4.873,0,0
0.0014407712,-0.00022008359999999997,-0.0011959988,-0.001193526,-0.0007273780999999998,4.874,0,0
0.0032083212,0.0006060264000000001,-0.0012916448,-0.0004229120000000001,-0.00037729409999999995,4.875,0,0
0.004196243200000001,0.0015200326,-0.0008266822,-0.0004181940000000001,-0.00011672009999999988,4.876,0,0
0.0045713412000000005,0.0021976414,-0.0008071022000000001,-0.000474488,0.0005874320000000001,4.877,0,0
0.005101726000000001,0.0027416263999999997,-0.0010635354,0.0002528039999999998,0.0023678700000000002,4.878,0,0
0.0045359108,0.003168224,-0.0007029964,0.0006930354000000001,0.0029789814,4.879,0,0
0.0021675868000000003,0.0031367,0.0002106336,-0.0002583894,0.0013385493999999998,4.88,0,0
-0.0003449992000000002,0.0025975120000000006,0.0004434046,-0.0005586274,-0.0003258886000000002,4.881,0,0
-0.0023994612000000004,0.0020296542,0.0010102426000000002,0.00038808660000000004,-0.0011952442,4.882,0,0
-0.004714047200000001,0.0012886176000000001,0.0017502786000000003,0.0011367366000000002,-0.0020574102,4.883,0,0
-0.006114606,0.000526896,0.0015598144000000002,0.0015416412000000001,-0.002109933,4.884,0,0
-0.005796554000000001,8.343340000000008e-05,0.0010823146000000002,0.0019446360000000002,-0.0010733118000000002,4.885,0,0
-0.00527477,-0.0003143846,0.0009199188000000001,0.0018820120000000002,-0.000555858,4.886,0,0
-0.004361870800000001,-0.0006620588,0.0006948602000000001,0.0016908820000000003,-0.0004084204,4.887,0,0
-0.0020089927999999996,-0.0009064742000000001,0.00018796004,0.0016349880000000002,0.0002910256,4.888,0,0
0.0001735132000000001,-0.0010090326000000002,8.276604000000002e-05,0.0009155000000000003,0.0005177226,4.889,0,0
0.0014664972000000003,-0.0010769474000000001,-0.00030867816,-0.00018785200000000007,0.0003124578,4.89,0,0
0.0036170252000000003,-0.0011164474000000001,-0.0008725139600000001,-0.0009340279999999999,0.0009085800000000001,4.891,0,0
0.005747094000000001,-0.0011099308000000001,-0.00131379536,-0.0015639340000000001,0.0013816660000000001,4.892,0,0
0.006083110000000001,-0.0008242238000000002,-0.001454009,-0.0020723074,0.0008842326000000001,4.893,0,0
0.005800896000000001,-0.00020602980000000004,-0.0013485582,-0.0018033782,0.000529591,4.894,0,0
0.00553438,0.0003660076,-0.0009237509999999999,-0.0018745142,-0.0002583574000000002,4.895,0,0
0.003584222,0.000783832,0.00019467900000000012,-0.0020077982,-0.0016320554000000002,4.896,0,0
0.0003884740000000002,0.0011637714,0.0007454870000000001,-0.0010502542,-0.0018142694,4.897,0,0
-0.0015734579999999998,0.0013712108000000001,0.0009179414000000002,-0.0006003067999999999,-0.0014571240000000002,4.898,0,0
-0.003073994,0.0007986288000000001,0.0015238218000000001,-0.0009462179999999999,-0.0016223240000000003,4.899,0,0
-0.004971496000000001,-0.0004805432,0.0017762046000000002,-0.0005542759999999999,-0.001449032,4.9,0,0
-0.005492530000000001,-0.0015257616000000002,0.0011032848000000002,-0.00010811119999999983,-0.0009005600000000001,4.901,0,0
-0.00463525,-0.0020299296000000004,0.0007855646000000001,-0.00064125,-0.0010321587999999999,4.902,0,0
-0.004283134,-0.0023512426,0.0010921440000000002,-0.0009193059999999998,-0.0010783248,4.903,0,0
-0.0033270754000000007,-0.0023197766,0.0004264702,-7.149999999999995e-05,-7.524799999999911e-06,4.904,0,0
-0.0008521814,-0.0015561292000000003,-0.0006725058000000001,0.0011708080000000002,0.0017060392,4.905,0,0
0.0009257006,-0.000598538,-0.000904824,0.0015592624000000002,0.0029714932000000005,4.906,0,0
0.0021086166,-8.158800000000003e-05,-0.0013635858,0.0015630664,0.0035497620000000006,4.907,0,0
0.003907948600000001,0.00027711460000000006,-0.0021153898,0.0021288524000000002,0.00401809,4.908,0,0
0.005162804,0.0006201652000000001,-0.0020767568,0.0021145484,0.0039433260000000005,4.909,0,0
0.005063678,0.0008589514000000001,-0.0017888368,0.0015270204000000002,0.003384198,4.91,0,0
0.004825364,0.0013057142000000002,-0.0017140848,0.0014203946000000002,0.0030639680000000002,4.911,0,0
0.004424920000000001,0.0020590362000000003,-0.0011308522,0.0009188654,0.0027129420000000003,4.912,0,0
0.0024606780000000004,0.0025900942000000003,-0.00016673419999999994,-9.269260000000011e-05,0.0011840820000000001,4.913,0,0
-0.0001982100000000001,0.0027957676,0.0002855326000000001,-0.0008107406000000001,-0.0004657159999999999,4.914,0,0
-0.0019077120000000002,0.0027257688,0.0006660318000000001,-0.0015047726000000001,-0.001783518,4.915,0,0
-0.003650172,0.0022648742,0.0012957398,-0.0017519170000000002,-0.0037299660000000004,4.916,0,0
-0.005441128000000001,0.0015568222,0.0015725212000000002,-0.000959079,-0.004624912,4.917,0,0
-0.005387926000000001,0.0008953594000000001,0.0011709336,8.863000000000013e-06,-0.003851612,4.918,0,0
-0.004549226,0.0006159126,0.0010771556,0.0006909050000000001,-0.002793229,4.919,0,0
-0.004086804,0.0006868234,0.0011859194,0.0014358150000000002,-0.0014657430000000003,4.92,0,0
-0.00251148,0.0008451660000000001,0.0006560222,0.0016274502000000002,0.0007234850000000001,4.921,0,0
-0.00019339399999999984,0.0007261054,0.00027067840000000003,0.0011640562000000002,0.0017534450000000002,4.922,0,0
0.00134336,0.0004449212000000001,6.199260000000001e-05,0.0007773374,0.0014781150000000001,4.923,0,0
0.00318788,0.00025526520000000003,-0.0004153542,0.00042184359999999997,0.001634686,4.924,0,0
0.0054597940000000005,0.00018539580000000007,-0.00048087520000000003,0.00011185180000000003,0.001654632,4.925,0,0
0.006503584000000001,0.00012531940000000004,-0.00028973000000000003,-0.00018016840000000003,0.0010124460000000002,4.926,0,0
0.006324772,0.00022221800000000005,-0.0004874122,-0.0009254844,0.00029806000000000006,4.927,0,0
0.0060054620000000005,0.000656263,-0.0005119798,-0.0017251936,0.00028062000000000014,4.928,0,0
0.004847000000000001,0.0006150492,5.520500000000001e-05,-0.0024742558000000006,-0.000598356,4.929,0,0
0.0018657280000000003,-0.00015179700000000006,0.00039810500000000005,-0.003355812,-0.002927406,4.93,0,0
-0.00068312,-0.0007303986,8.903700000000004e-05,-0.0036460940000000003,-0.004414840000000001,4.931,0,0
-0.002313234,-0.0011604174,0.0002271882,-0.0029990736000000003,-0.00459861,4.932,0,0
-0.004481000000000001,-0.0018719294,0.000500234,-0.0024103758,-0.00500962,4.933,0,0
-0.005877968,-0.0022277548,-5.2817999999999805e-06,-0.0018826638,-0.00444172,4.934,0,0
-0.005391258,-0.0019899868000000003,-0.00022685180000000003,0.0001801582,-0.0010657940000000001,4.935,0,0
-0.0046127419999999995,-0.0018499228,0.0003396842,0.0023452122000000002,0.0020544160000000003,4.936,0,0
-0.004028882,-0.0020176020000000003,0.0005185666,0.0031134558,0.0034227940000000003,4.937,0,0
-0.002111506,-0.00208589,0.00017876319999999996,0.003512142,0.005041396,4.938,0,0
-5.361000000000005e-05,-0.002051208,0.00020560319999999996,0.00334918,0.005593258,4.939,0,0
0.001234272,-0.00201088,0.00015534639999999997,0.0021336008,0.0041506482,4.94,0,0
0.00270385,-0.0016903950000000001,-0.0004464056000000001,0.0010255068,0.0026565802000000005,4.941,0,0
0.0042840280000000005,-0.0009339530000000002,-0.0006496694000000001,0.0005072048000000001,0.0017088722000000002,4.942,0,0
0.004802054000000001,-0.00015375699999999997,-0.00044641120000000003,0.0009451308,0.0008560232000000001,4.943,0,0
0.004327232,0.000556965,-0.0006980914,0.0022883848000000004,0.0007313392000000001,4.944,0,0
0.00393757,0.0009670414,-0.0009461394000000001,0.002094364,0.000565344,4.945,0,0
0.0024727760000000003,0.0005579424,-0.0007106618000000001,0.0011070240000000003,-0.000798182,4.946,0,0
-4.0847999999999796e-05,1.2561799999999938e-05,-0.0006078384,0.0007330460000000001,-0.002125572,4.947,0,0
-0.0017919480000000002,-0.00034626199999999996,-0.0004880196,-0.000511728,-0.0034896630000000005,4.948,0,0
-0.0031893100000000003,-0.0007556582,0.0003371724000000001,-0.0016835020000000001,-0.004886641,4.949,0,0
-0.005160298000000001,-0.0008130288000000001,0.0008815152000000001,-0.000898546,-0.0049179036,4.95,0,0
-0.005833576000000001,-0.0005058282000000001,0.0010887206000000003,-0.00016790799999999998,-0.0037118135999999998,4.951,0,0
-0.005005468000000001,-0.0004027480000000001,0.0013607714,-0.000439532,-0.0026991156000000004,4.952,0,0
-0.004795744000000001,-0.00038126260000000004,0.0012972992,-0.00072716,-0.0021823896,4.953,0,0
-0.0043187780000000005,-0.00011757220000000002,0.0009600682,-0.001616864,-0.0009547264000000001,4.954,0,0
-0.002236342,0.000182266,0.0005359450000000001,-0.0021252482000000002,0.0008305492,4.955,0,0
-0.0002590899999999999,0.0004148974,0.000381022,-0.0019768082,0.0017962872000000002,4.956,0,0
0.0009461200000000003,0.0008738558,1.3681200000000048e-05,-0.00146572458,0.0029314232000000003,4.957,0,0
0.0028254760000000004,0.0018713822,-0.0007435289999999999,-8.430057999999979e-05,0.0053807272,4.958,0,0
0.004587058000000001,0.0026084940000000003,-0.001374772,0.0010617696200000003,0.006484386,4.959,0,0
0.0049178780000000005,0.00274135,-0.0016857148,0.0005796798200000002,0.0049276730000000005,4.96,0,0
0.004593822,0.002885568,-0.0021496528000000004,-0.0002671961799999999,0.003309729,4.961,0,0
0.004131344,0.002826192,-0.0022513580000000006,-0.0008014917999999999,0.001992557,4.962,0,0
0.0021789500000000007,0.0020781046,-0.0012987480000000002,-0.0012883328000000002,-0.0002975110000000002,4.963,0,0
-0.00017414399999999977,0.0009225926000000001,-0.000546246,-0.000340239,-0.002046369,4.964,0,0
-0.0012567099999999999,0.00013749059999999997,-2.321880000000001e-05,0.000760757,-0.0027321040000000004,4.965,0,0
-0.002618042,-0.0003942238,0.0008162852,0.0008220389999999999,-0.003801604,4.966,0,0
-0.004199860000000001,-0.0010081578,0.0011976224,0.0008141190000000002,-0.004687402,4.967,0,0
-0.003874124,-0.0011096568,0.0008761464,0.00045077599999999995,-0.0043924820000000005,4.968,0,0
-0.0027498202,-0.0008129808,0.0007422246000000001,-0.0006926683999999999,-0.0039248642,4.969,0,0
-0.0026221262000000003,-0.0007336428,0.0007395784,-0.0010409284000000001,-0.0031659979999999997,4.97,0,0
-0.0012972282000000002,-0.0003735152,0.0002779824,-6.905240000000003e-05,-0.00040052999999999964,4.971,0,0
0.0012972878,2.908100000000003e-05,0.00025204260000000005,0.0007367275999999999,0.002847594,4.972,0,0
0.0028329818000000003,-0.00017414619999999998,0.0006946426,0.0013154436,0.00457677,4.973,0,0
0.003785272000000001,-0.000160292,0.0006564804,0.0019374920000000003,0.0058672402,4.974,0,0
0.005391636000000001,-0.000104468,0.00032363100000000006,0.001969194,0.006629758,4.975,0,0
0.00618081,-0.0005919272,8.742899999999998e-05,0.0012283754,0.005506827000000001,4.976,0,0
0.005238866000000001,-0.00047449940000000016,-0.0003557524,0.00040241540000000007,0.003372627,4.977,0,0
0.0042829336,-5.78318e-05,-0.0009086115999999999,-0.0003141386,0.0019465424000000002,4.978,0,0
0.0032844076000000002,-0.00027769800000000005,-0.0008920741999999998,-0.0011209006,0.00031349039999999985,4.979,0,0
0.0009654856000000003,-0.000287178,-0.0002755977999999999,-0.0017234906000000003,-0.0016343975999999999,4.98,0,0
-0.0017624004,-0.000174364,0.0005017122,-0.0017090504,-0.0024245706000000002,4.981,0,0
-0.0034841624,-0.0006981680000000001,0.0010627422,-0.0012443202000000002,-0.0031999085999999998,4.982,0,0
-0.005179416,-0.001241846,0.0015792394,-0.0008534326800000001,-0.004519138000000001,4.983,0,0
-0.006665482,-0.0012787620000000001,0.0018372719999999998,-0.00047240248000000006,-0.004694510000000001,4.984,0,0
-0.006510356,-0.0014737980000000001,0.0012761411999999998,-0.00018748392000000002,-0.003876394,4.985,0,0
-0.005615742,-0.001771758,0.0008646208,-0.00021031812,-0.003449314,4.986,0,0
-0.004565026,-0.0016492560000000002,0.0005916499999999999,-0.00026846792,-0.0025153098,4.987,0,0
-0.0023115199999999996,-0.0012654740000000004,-0.00023068000000000012,-0.00033909544000000006,-0.0008918578,4.988,0,0
8.702600000000025e-05,-0.0007984768000000002,-0.0007748316,-0.00039779224,-0.00013407439999999998,4.989,0,0
0.0011870760000000002,3.364720000000005e-05,-0.0008787888,-0.0004459624,-0.00017368240000000004,4.99,0,0
0.002707234,0.0009766392000000001,-0.0011361364,-0.0003872524,0.0002611196,4.991,0,0
0.004604432,0.0015913172,-0.0012939476000000001,-0.00018953420000000003,0.0006765534,4.992,0,0
0.004732252,0.0019584052,-0.0009517601999999999,-0.0003154452,-0.0001124765999999999,4.993,0,0
0.00420137,0.0018085097999999999,-0.0009867666,-0.00027529368,-0.00043738399999999997,4.994,0,0
0.004424884,0.0014138658,-0.0011134806,-9.801267999999996e-05,0.0004051000000000001,4.995,0,0
0.0031550639999999995,0.00097777302,-0.0007402848000000001,-0.00065987408,0.00020464740000000005,4.996,0,0
0.00042639199999999983,0.00040286762,-0.00042854199999999996,-0.00129942468,-0.0007703326000000001,4.997,0,0
-0.0012616859999999997,-8.784438000000001e-05,-6.948939999999992e-05,-0.00116238648,-0.0001779202,4.998,0,0
-0.002670442,-0.00034031418,0.0005245066,-0.0009158214,0.0007748378000000001,4.999,0,0
-0.004627984,-0.00065177018,0.0010227954,-0.0008825966,0.0002948536,5.0,0,0
-0.005344944000000001,-0.000757415,0.0010376396000000001,-0.000288712,0.00033764140000000004,5.001,0,0
-0.0041993868,-0.000605155,0.0008142328,0.00042069000000000004,0.0016129934000000002,5.002,0,0
-0.0032700444000000007,-0.000874891,0.0004522887999999999,0.0010192988000000001,0.002180593,5.003,0,0
-0.0022459188000000007,-0.0010529909999999999,-6.688860000000003e-05,0.0016728288000000002,0.002283821,5.004,0,0
0.00013671919999999995,-0.001027005,-0.0005851594000000002,0.0021847346,0.0032571392,5.005,0,0
0.0020916952000000003,-0.0010955098,-0.0008402128000000002,0.0025059480000000005,0.0037286940000000003,5.006,0,0
0.002853126,-0.0007715983999999999,-0.0009265928000000001,0.0019871240000000003,0.0029166112000000004,5.007,0,0
0.0040834616,0.00026527160000000007,-0.0009093228,0.0006915920000000001,0.0018354672000000004,5.008,0,0
0.005531078,0.0015155896000000001,-0.0006278902,-0.0006824520000000001,0.0004560692000000001,5.009,0,0
0.005519668,0.0025902556000000003,-5.8394800000000026e-05,-0.001264542,-0.0010570428,5.01,0,0
0.00505726,0.0031483800000000005,0.0002912526,-0.00149849796,-0.0020256608,5.011,0,0
0.004449056,0.0031232440000000003,0.00023628459999999995,-0.00147555396,-0.002345266,5.012,0,0
0.0022874619999999997,0.0028681800000000006,0.00043069520000000005,-0.00029074396000000006,-0.002143828,5.013,0,0
-0.0004810400000000004,0.0020982530000000004,0.0006071100000000001,0.00101230204,-0.0015066178,5.014,0,0
-0.0022912780000000003,0.0010659390000000003,0.0006330866000000001,0.00143474604,-0.0009449484,5.015,0,0
-0.004252232,0.0004343750000000002,0.0004513552000000001,0.0016818600000000003,-0.0009692343999999999,5.016,0,0
-0.006325428,-0.00020157699999999998,0.0003842032000000001,0.0020594058,-0.0011701004,5.017,0,0
-0.006365880000000001,-0.001287383,0.00022611120000000005,0.0014135878000000003,-0.0009117266000000001,5.018,0,0
-0.005260704000000001,-0.0021080400000000003,-0.00019667899999999998,0.0002653098000000001,-0.0008277658,5.019,0,0
-0.004509721800000001,-0.002529884,-0.0005008388,-0.0003622434,-0.0009564932000000002,5.02,0,0
-0.0028644018,-0.0030622260000000004,-0.0007548712,-0.0005180887999999999,0.0003534088000000001,5.021,0,0
-0.0002229618000000001,-0.003239458,-0.0004055101000000001,-0.0001358125999999999,0.0024827208,5.022,0,0
0.0012761662,-0.002686015,-0.0002116479,0.0003551014,0.0034282110000000005,5.023,0,0
0.0021416462,-0.001993357,-0.0002993773000000001,0.0006295546,0.003847258,5.024,0,0
0.003738828,-0.0013653781999999998,-0.0003086297,0.0009914878,0.004066842,5.025,0,0
0.004784674,-0.00039382280000000016,-0.0003060579000000001,0.0012734851999999998,0.002838462,5.026,0,0
0.004671158,0.00043025320000000003,-0.0002008132,0.0006714812,0.0007140479999999999,5.027,0,0
0.004495978,0.0008952442000000001,-0.00029719280000000005,2.8563199999999964e-05,-0.0011959260000000002,5.028,0,0
0.0037568984000000004,0.0013929742,4.154620000000001e-05,-0.00045898400000000006,-0.0026629180000000002,5.029,0,0
0.0011704244000000003,0.0015816562000000001,0.0007734064000000001,-0.0014330000000000002,-0.00342725,5.03,0,0
-0.0014278035999999998,0.0014502852000000002,0.0011686864,-0.00212861,-0.0035141020000000003,5.031,0,0
-0.0027594956,0.0011624790000000001,0.0012634186,-0.0018155352000000001,-0.0034070680000000005,5.032,0,0
-0.0043202556000000005,0.0006979950000000001,0.0015740974000000001,-0.0004483991999999998,-0.0028422580000000003,5.033,0,0
-0.00557635,4.430699999999997e-05,0.0016813220000000003,0.0012754508000000003,-0.0018682840000000002,5.034,0,0
-0.005028068,-0.0006739318000000001,0.0012586006000000001,0.0023526748,-0.0008697520000000002,5.035,0,0
-0.0039036818,-0.0010924582000000002,0.0012121674,0.0026029224000000003,0.000427078,5.036,0,0
-0.0034475217999999997,-0.0012388412,0.0009595158,0.0025379996,0.0018211400000000002,5.037,0,0
-0.0019526777999999997,-0.001270593,4.073979999999987e-05,0.0016379218000000001,0.002892696,5.038,0,0
0.00035535820000000013,-0.0009999382000000002,-0.0005593982000000001,0.00010965780000000004,0.003329346,5.039,0,0
0.0014728862000000001,-0.00043331820000000004,-0.0010450648000000001,-0.0009024062000000001,0.0029094328000000003,5.04,0,0
0.0028540800000000006,3.588220000000001e-05,-0.0017456876000000003,-0.0012530998,0.00208293914,5.041,0,0
0.004644426,0.0004746794,-0.0022491740000000005,-0.0017534198,0.00154585314,5.042,0,0
0.005040776000000001,0.0008232472000000001,-0.0020475520000000002,-0.002426368,0.0006772057399999999,5.043,0,0
0.004724016000000001,0.0012780044000000003,-0.0017476374000000004,-0.002383614,-7.513826e-05,5.044,0,0
0.00480267,0.0017328284,-0.0014393476,-0.0021795440000000003,-0.00024495585999999997,5.045,0,0
0.0037171458,0.0015741872,-0.0006182256000000002,-0.0020805,-0.0015464002000000001,5.046,0,0
0.0011896858,0.0014374452,0.00020641240000000003,-0.0015235064000000001,-0.0033935322000000004,5.047,0,0
-0.0006973422,0.0013427052,0.0010011104,-0.0013601164000000001,-0.0040631008,5.048,0,0
-0.0023185062,0.0007195224000000001,0.0013506198,-0.0018418044,-0.0049360248,5.049,0,0
-0.0042327862,-5.641599999999956e-06,0.0014847512,-0.0019792124,-0.006187514,5.05,0,0
-0.005426424000000001,-0.00039047480000000003,0.0014229512,-0.0018483962,-0.004967640000000001,5.051,0,0
-0.005215456,-0.0007812046000000001,0.0009124572000000002,-0.0013105497999999997,-0.0020607159999999998,5.052,0,0
-0.004713176000000001,-0.0012748306000000002,0.00034251580000000005,-0.0002458858,-0.0003428099999999996,5.053,0,0
-0.003998184000000001,-0.0014494378000000003,-0.00011270240000000003,0.0008149362,0.0011918340000000001,5.054,0,0
-0.00176814,-0.0012612672000000002,-0.00046497240000000005,0.0017413962,0.00354627,5.055,0,0
0.0005616859999999997,-0.0010340382,-0.000647484,0.002431302,0.004551778,5.056,0,0
0.002162618,-0.0008892744,-0.0006121322000000001,0.002149582,0.004072836000000001,5.057,0,0
0.004134116,-0.0002691644,-0.0009062228000000001,0.0015629878,0.004011742,5.058,0,0
0.005787394,0.0002499096000000001,-0.0009938086,0.0015513238000000001,0.00445523,5.059,0,0
0.00588067,0.0004978036,-0.0004934478,0.0009287658000000001,0.004324283999999999,5.06,0,0
0.005511158,0.0010966326000000001,-0.00027924420000000007,-4.4612199999999986e-05,0.0037307140000000004,5.061,0,0
0.005206514000000001,0.001264986,-7.665281999999997e-05,-0.0005093716,0.00288757096,5.062,0,0
0.003464842,0.001176252,0.00063324718,-0.000679685,0.00140985896,5.063,0,0
0.0010817599999999995,0.001319626,0.00103727338,-0.00042815500000000005,6.269295999999989e-05,5.064,0,0
-0.0007683120000000003,0.001072364,0.0007951445800000001,0.0006634310000000001,-0.0008767490400000001,5.065,0,0
-0.0031168460000000004,0.00039651000000000004,0.00059181818,0.001337463,-0.00205652704,5.066,0,0
-0.005593840000000001,-0.00012816740000000002,0.0008440470000000001,0.0012744468,-0.00326481,5.067,0,0
-0.006102446,-0.0007456494,0.0006926082000000001,0.0014416102000000001,-0.003398836,5.068,0,0
-0.005197589200000001,-0.0013814474000000002,0.00030667799999999995,0.000774638,-0.003903982,5.069,0,0
-0.0047304772,-0.0013494161999999998,0.000283961,-0.00053513,-0.004842758,5.07,0,0
-0.0031528234000000005,-0.0010649803,4.889819999999998e-05,-0.000862458,-0.003580594,5.071,0,0
-0.00026570940000000007,-0.0006063045,-0.00034888560000000005,-8.02604e-05,-0.001282948,5.072,0,0
0.0015266166,0.0001682535,-0.0005455646000000001,0.0005667377999999999,0.00029422,5.073,0,0
0.0025532918,0.0010036475,-0.0007138386,0.001003526,0.00222811,5.074,0,0
0.0041641358000000005,0.0017268437,-0.0009426826,0.0014405969999999998,0.004241316,5.075,0,0
0.005162896,0.0019317898000000002,-0.0009549130000000002,0.001224663,0.00426604,5.076,0,0
0.004844612,0.002013101,-0.0012683752,0.00019937100000000016,0.0029942227999999998,5.077,0,0
0.004510622000000001,0.002117449,-0.0016083994,-0.0011421690000000002,0.0018218027999999998,5.078,0,0
0.0038944360000000003,0.0016864362000000002,-0.0013076212000000002,-0.001962521,0.0003854167999999999,5.079,0,0
0.001816584,0.0008948592000000001,-0.0007519634000000002,-0.002587362,-0.0020445652,5.08,0,0
-0.000610978,0.0004524292,1.1494199999999874e-05,-0.002741106,-0.0038519612,5.081,0,0
-0.0023198360000000005,-0.0002552738000000001,0.0013802462,-0.0013882160000000003,-0.003354634,5.082,0,0
-0.004618476,-0.0019232658,0.0027004902,0.0003783520000000002,-0.0026862680000000003,5.083,0,0
-0.0067087200000000005,-0.0029934149999999997,0.0028592856,0.0011831800000000003,-0.0028092860000000002,5.084,0,0
-0.006853942,-0.00334273,0.0022454275999999997,0.0016369700000000002,-0.0019556960000000003,5.085,0,0
-0.006328366,-0.003467454,0.0016091679999999998,0.0017233099999999998,-0.001259892,5.086,0,0
-0.006065452000000001,-0.0029042182,0.0005336797999999999,0.000412356,-0.0025497340000000005,5.087,0,0
-0.00399269,-0.0017685321999999998,-0.0008662662,-0.000753156,-0.0032108,5.088,0,0
-0.0012986,-0.0006841708000000001,-0.0013016418,-0.00015592000000000015,-0.0015895899999999999,5.089,0,0
6.529400000000008e-05,-0.00013953780000000002,-0.0011135346,0.0011410499999999998,0.00022940600000000014,5.09,0,0
0.001708784,0.00044402220000000004,-0.0012503558,0.00205473,0.001538014,5.091,0,0
0.003883282,0.0011487964,-0.0010303488,0.0026115191999999997,0.0031719120000000007,5.092,0,0
0.004617418,0.0019619884,-0.00023108280000000002,0.0024940872,0.003328564,5.093,0,0
0.004097832,0.002641207,0.0002459658,0.0011899991999999998,0.0020925538,5.094,0,0
0.004542212,0.00312514,0.0004994858000000001,-0.0002717888,0.0006291578000000001,5.095,0,0
0.003392164,0.0031234179999999998,0.0010190386,-0.0015516048,-0.0006254782,5.096,0,0
0.001317384,0.0022654868000000004,0.0010047880000000002,-0.002084348,0.0007693777999999997,5.097,0,0
-0.001389674,0.0012117708000000003,0.00018689599999999998,-0.0012700560000000003,0.0038207698,5.098,0,0
-0.002417078,0.0005040194,-0.0008802306000000001,-0.0008576100000000001,0.0059777960000000005,5.099,0,0
0.0030480720000000006,0.0004562254,-0.0022630258000000004,-0.0011603540000000002,0.008162666,5.1,0,0
0.010401008,0.0007240174,-0.0035311918000000006,-0.000786824,0.009988458,5.101,0,0
0.015344078,0.0015602426,-0.0038297180000000006,-0.0008491099999999999,0.0078276334,5.102,0,0
0.018689986,0.0024482466,-0.0031940740000000007,-0.002590368,0.0032351794000000005,5.103,0,0
0.018319237999999998,0.00231578438,-0.0019674880000000003,-0.003903536,-0.0015771866000000002,5.104,0,0
0.008749637999999999,0.0013820103800000001,2.097200000000007e-05,-0.003945622,-0.007066486600000001,5.105,0,0
-0.004445942,-0.00010931561999999993,0.0021530940000000004,-0.003169812,-0.0113886186,5.106,0,0
-0.015126522,-0.00214543962,0.0034980799999999998,-0.0017487120000000004,-0.013600434000000002,5.107,0,0
-0.023131282000000003,-0.00434927362,0.0043846119999999995,-2.330799999999988e-05,-0.013703350000000003,5.108,0,0
-0.028527720000000003,-0.006438346,0.005090625999999999,0.0019333900000000001,-0.012466748000000001,5.109,0,0
-0.030364960000000003,-0.007687736000000001,0.004865558000000001,0.0034018560000000004,-0.009653324000000001,5.11,0,0
-0.026621860000000004,-0.00790315,0.00389363,0.0034514500000000004,-0.005491356,5.111,0,0
-0.020584846000000004,-0.007686204,0.0026289658000000003,0.002838076,-0.0012572080000000005,5.112,0,0
-0.012686302,-0.006373382,0.0005250478000000003,0.0032053259999999997,0.0036972619999999998,5.113,0,0
-0.001817422,-0.004127426199999999,-0.0016519282,0.003828664,0.009733200000000001,5.114,0,0
0.009108838000000001,-0.0016599622000000001,-0.0032759282,0.003747794,0.014331656000000002,5.115,0,0
0.017630478,0.0011728897999999997,-0.0046066862,0.003070598,0.016103628000000002,5.116,0,0
0.024379284,0.0041508937999999995,-0.00531186,0.0018906119999999998,0.016297620000000002,5.117,0,0
0.028279159999999998,0.006140549800000001,-0.004816224000000001,-0.0003165320000000001,0.013355790400000001,5.118,0,0
0.02694898,0.007295262,-0.0035681266000000002,-0.002604726,0.007604100400000002,5.119,0,0
0.022113900000000002,0.007658966,-0.0021675626000000003,-0.0035519360000000003,0.0024629424,5.12,0,0
0.015443410000000003,0.006741116,-0.00039773459999999994,-0.0038697120000000004,-0.0021643596,5.121,0,0
0.005986310000000001,0.005266948000000001,0.0013244494000000002,-0.003961288,-0.0069478996,5.122,0,0
-0.004639030000000001,0.003175778,0.0026657894,-0.00317292,-0.00974889,5.123,0,0
-0.01290433,0.000839184,0.0035905300000000006,-0.001859296,-0.010606780000000001,5.124,0,0
-0.01897985,-0.0012939220000000003,0.004162394,-0.001223194,-0.011262904,5.125,0,0
-0.02302934,-0.003130926,0.0039583000000000005,3.520000000001213e-07,-0.010979882000000002,5.126,0,0
-0.02282914,-0.004414324,0.0030097504000000004,0.002153426,-0.008234882800000001,5.127,0,0
-0.018909468,-0.004537432,0.0021865256,0.0037750220000000003,-0.0038707248,5.128,0,0
-0.0136059196,-0.0035538762000000006,0.0010901736,0.004535276,-0.00035049280000000005,5.129,0,0
-0.006376719599999999,-0.0024130984000000004,-0.0006626904,0.004574054,0.0038018492000000004,5.13,0,0
0.002619660400000001,-0.0009332584000000001,-0.0021261444,0.003902518,0.0091053492,5.131,0,0
0.010510760400000001,0.0010015555999999999,-0.0027508968000000003,0.0027338148,0.01182601,5.132,0,0
0.0167677284,0.0028746136,-0.0032974740000000008,0.0014411722,0.011904926,5.133,0,0
0.021841600000000003,0.0043998558000000005,-0.0036348980000000006,-0.00028124780000000015,0.011804094000000001,5.134,0,0
0.02347818,0.005576272,-0.003169722,-0.0019324138,0.0095542246,5.135,0,0
0.020695322,0.006166750000000001,-0.00250209,-0.0034814738,0.0040821366,5.136,0,0
0.015952692,0.005650152000000001,-0.0018478674000000001,-0.0048997806,-0.0007657834000000003,5.137,0,0
0.009696102000000002,0.0041367332,-0.0005863814000000002,-0.005425012,-0.0048429774,5.138,0,0
0.001057602,0.0022175752000000003,0.0007590466000000001,-0.0049540800000000005,-0.009313997400000001,5.139,0,0
-0.007266318000000001,1.9753200000000026e-05,0.0015838206,-0.0035168972,-0.012070408000000001,5.14,0,0
-0.013233520000000002,-0.0021854867999999998,0.0028564466,-0.0017346651999999999,-0.01258344,5.141,0,0
-0.01779337,-0.0038485528,0.004044778000000001,-0.00032063260000000015,-0.012217722,5.142,0,0
-0.02052358,-0.004948878,0.00383207,0.0008350214,-0.010213178,5.143,0,0
-0.01961784,-0.005706178000000001,0.0030663614000000002,0.0021840574,-0.006088402,5.144,0,0
-0.015814934,-0.005580628000000001,0.0025424602000000004,0.0033212785999999998,-0.0023705680000000004,5.145,0,0
-0.01083972,-0.005092392,0.0010943922000000003,0.0039686886,0.0008553619999999999,5.146,0,0
-0.004213939999999999,-0.004573842000000001,-0.0009207838,0.0042005720000000005,0.00437236,5.147,0,0
0.0036346000000000004,-0.0031626906000000003,-0.0019969798,0.003352768,0.0063144939999999995,5.148,0,0
0.010198600000000002,-0.0016601866000000001,-0.0029430912000000006,0.001642264,0.0065254219999999995,5.149,0,0
0.014777114000000003,-0.00012121860000000029,-0.0038230000000000004,6.716399999999998e-05,0.007168268,5.15,0,0
0.01790636,0.0017677494,-0.0037781960000000006,-0.0008884022000000001,0.007775273999999999,5.151,0,0
0.01824172,0.0030949534,-0.0029906436,-0.0014693222,0.0060901596,5.152,0,0
0.015384679999999998,0.003650524,-0.0022362948,-0.0018410042,0.0035877716,5.153,0,0
0.011248294800000001,0.003856552,-0.0010642908000000001,-0.0021905702000000003,0.0021030216000000003,5.154,0,0
0.0059350888,0.0030951752000000004,0.0008581612000000001,-0.0028008802000000005,-0.0001308183999999998,5.155,0,0
-0.0007336911999999999,0.0014679152000000003,0.0020789072,-0.003160594,-0.0031879364,5.156,0,0
-0.0065746512,-0.00013710679999999985,0.0025917588000000003,-0.0029830202000000004,-0.004654696000000001,5.157,0,0
-0.010877011200000002,-0.0019880388,0.0029872940000000006,-0.0021173182,-0.004790020000000001,5.158,0,0
-0.014450506,-0.0034406568,0.0032753660000000005,-0.0008696761999999999,-0.004989820000000001,5.159,0,0
-0.0160759,-0.004184732,0.002710326,0.00038268380000000004,-0.00397951,5.16,0,0
-0.014614209999999999,-0.0044891,0.0018648054000000003,0.0013217658000000002,-0.0015805680000000003,5.161,0,0
-0.011693976,-0.004014538000000001,0.0016730514000000002,0.001976214,0.00056078,5.162,0,0
-0.0077072799999999995,-0.0029746496000000004,0.0009981010000000002,0.002729614,0.0026964120000000005,5.163,0,0
-0.0017880600000000006,-0.001872217,-0.00034273300000000007,0.0029541640000000004,0.004529226000000001,5.164,0,0
0.004183320000000001,-0.000502781,-0.001304581,0.00293309,0.005058646,5.165,0,0
0.00851647,0.0013899390000000002,-0.0017004984,0.002754644,0.00458731,5.166,0,0
0.011830256,0.003156753,-0.0024323664,0.0016657800000000002,0.004192658,5.167,0,0
0.01384358,0.0045937266000000004,-0.002719816,0.0002045660000000001,0.0033021200000000004,5.168,0,0
0.013243088,0.005833684,-0.002140838,-0.0006834160000000001,0.0012552820000000004,5.169,0,0
0.010785902000000002,0.006465462,-0.0016188746000000002,-0.0014817,-0.0007318599999999999,5.17,0,0
0.007475816000000001,0.006268508,-0.0010190558,-0.002540138,-0.00281041,5.171,0,0
0.0025243639999999994,0.005076623,-2.587379999999999e-05,-0.0030392,-0.005604268,5.172,0,0
-0.0034867760000000005,0.003323713,0.0009510102,-0.003074128,-0.007942348000000002,5.173,0,0
-0.008049724000000001,0.0009988750000000002,0.0014970082000000003,-0.002447434,-0.007989436,5.174,0,0
-0.010965098000000003,-0.0017904210000000004,0.0018603248000000003,-0.0013151860000000003,-0.006894759200000001,5.175,0,0
-0.013213532,-0.003928893,0.0015923093999999998,-0.0004192494000000001,-0.0059959672000000006,5.176,0,0
-0.013129413999999999,-0.00488689,0.0007270193999999999,0.00060926118,-0.0037760850000000006,5.177,0,0
-0.010510502,-0.004725648000000001,0.0002708520000000001,0.0010198245800000002,-0.0006009870000000001,5.178,0,0
-0.007862958000000001,-0.0038562518000000005,1.0751400000000034e-05,0.00050582858,0.001123795,5.179,0,0
-0.004514068,-0.0020785678,-0.0004979084,0.0002778145800000001,0.0024629502000000003,5.18,0,0
0.0006873119999999994,-0.00021335980000000015,-0.0006358198,0.0001089179800000001,0.0049267482,5.181,0,0
0.005301726,0.0011760642000000002,-0.0006332978,-0.0007046625999999999,0.0061774360000000006,5.182,0,0
0.008466074,0.0016319962,-0.0011104404,-0.00018973999999999998,0.006870008,5.183,0,0
0.01120143,0.0010962760000000002,-0.0016406858,0.0014772760000000002,0.008158224,5.184,0,0
0.012351160000000002,0.000771855,-0.0017373760000000001,0.0012322460000000002,0.0071216,5.185,0,0
0.010626564000000002,0.00039008300000000005,-0.0014213480200000001,0.0010826384000000003,0.00489036,5.186,0,0
0.007825004,7.457200000000034e-06,-0.0008311860200000002,0.0024356864000000004,0.0034856559999999997,5.187,0,0
0.004792742,5.476720000000004e-05,0.00011254397999999998,0.0020878838000000003,1.1073999999999806e-05,5.188,0,0
0.0005181420000000001,0.0003892212,0.0010958559800000002,0.0002426298,-0.004306366000000001,5.189,0,0
-0.0037321780000000005,-9.986180000000008e-05,0.00144886838,-0.00045366020000000006,-0.005349264,5.19,0,0
-0.006532814,-0.0010817558,0.0016390544000000002,-0.00038455860000000006,-0.004978089000000001,5.191,0,0
-0.008619054000000001,-0.002248742,0.0019195424000000001,-0.0005951266000000001,-0.005358405,5.192,0,0
-0.010291632,-0.0036877880000000004,0.0016362964,-0.0007379786,-0.004281371,5.193,0,0
-0.009983944000000002,-0.004448538,0.0010550870000000003,-0.0002149886000000001,-0.0019397061999999999,5.194,0,0
-0.008283632,-0.00493964,0.0007833968000000001,0.0008599654,-0.0008358062,5.195,0,0
-0.0066360080000000005,-0.004968238,0.0006757212000000001,0.0014657154,2.00888000000003e-05,5.196,0,0
-0.003935698,-0.004229480000000001,0.0001632208,0.0015330274,0.0022655968,5.197,0,0
-0.00010986200000000028,-0.002715148,-0.0004406792,0.00203251,0.0046192268,5.198,0,0
0.0030358060000000003,-0.0009745859999999999,-0.0010676498,0.00256287,0.005903984,5.199,0,0
0.005636154,0.002159332,-0.0017017120000000002,0.00228023,0.006815178,5.2,0,0
0.008815602,0.007323682,-0.0022742164,0.001153054,0.006708629999999999,5.201,0,0
0.010497772,0.012146252,-0.002483926,-0.00032650400000000025,0.004569658000000001,5.202,0,0
0.009992436,0.015832442000000002,-0.001847442,-0.0015546060000000005,0.0017465980000000005,5.203,0,0
0.008981058,0.01861774,-0.0010640110000000003,-0.0030435080000000003,-0.0007459079999999998,5.204,0,0
0.006562742,0.01988128,-0.000259855,-0.004045916,-0.003412378,5.205,0,0
0.0026026139999999996,0.0187318,0.000548255,-0.003935206,-0.0056454339999999995,5.206,0,0
-0.0007901340000000001,0.015297516,0.001125895,-0.0031117340000000005,-0.006070472,5.207,0,0
-0.0033798680000000003,0.006544976000000001,0.0013261930000000003,-0.0019852100000000003,-0.006246848,5.208,0,0
-0.006444246000000001,-0.006750904000000001,0.0016904480000000002,-0.001377456,-0.00698642,5.209,0,0
-0.00849793,-0.017590144000000002,0.0019138800000000004,-0.00024524400000000004,-0.005999764,5.21,0,0
-0.008332250000000001,-0.024643524000000003,0.0017074388000000002,0.0013289859999999999,-0.004018674000000001,5.211,0,0
-0.007564322000000001,-0.028179680000000006,0.0016300928000000001,0.0013857723999999999,-0.0031501263999999998,5.212,0,0
-0.0061030680000000006,-0.024565062000000002,0.000959742,0.0009552463999999999,-0.0016047283999999998,5.213,0,0
-0.0027370320000000004,-0.014976312000000002,0.00014619600000000002,0.0016342884,0.0019875576000000002,5.214,0,0
0.001038692,-0.007083434,-0.00014057880000000004,0.0015189143999999998,0.0041710336,5.215,0,0
0.0030773960000000005,-0.0026455559999999994,-0.0004887496000000001,0.0009174484000000001,0.0043314496000000004,5.216,0,0
0.004592226,5.414800000000023e-05,-0.0011630976,0.0014173599999999999,0.004866762,5.217,0,0
0.0060227200000000005,0.0013553716000000002,-0.0012864388,0.001336556,0.004523118400000001,5.218,0,0
0.005765630000000001,0.0020634816,-0.0009478463999999999,0.0006426720000000002,0.0019713044000000002,5.219,0,0
0.0046424199999999995,0.0022404296,-0.0009753442,-0.0004846499999999999,-0.0011563355999999999,5.22,0,0
0.0037398252,0.0024757136000000003,-0.0008758041999999998,-0.00213272,-0.0030594316,5.221,0,0
0.0019167152,0.0020096766000000004,-0.00014670019999999995,-0.0023108003999999997,-0.0039551736,5.222,0,0
-0.0007306008000000003,0.0009212550000000003,0.0003730358,-0.0007255804000000001,-0.0034089719999999997,5.223,0,0
-0.0021519308,0.0005958452,0.00016146700000000002,0.00048021960000000003,-0.00228126,5.224,0,0
-0.0029352408000000003,0.0005545592,0.0003073998,0.0012089626,-0.0015077860000000001,5.225,0,0
-0.00403325,0.00030262919999999997,0.0005235942,0.0027004306,-0.0005492520000000001,5.226,0,0
-0.004304932,0.0011491902,0.00029743719999999996,0.0035061510000000003,-9.593320000000005e-05,5.227,0,0
-0.0037936160000000005,0.0027295522,0.0003813232,0.002411339,-0.00040667540000000014,5.228,0,0
-0.0036773260000000003,0.003429248,0.000704327,0.001126473,-0.0009172468000000003,5.229,0,0
-0.003447424,0.004437956,0.0007389376,0.001157602,-0.0003641202,5.23,0,0
-0.00157385,0.005627406000000001,0.0005245344,0.000557746,0.0007017298,5.231,0,0
0.000496308,0.006163554000000001,0.00015499340000000005,-0.001312384,0.001248437,5.232,0,0
0.0020087160000000002,0.006310624000000001,-0.0004700406,-0.002437536,0.0015463352,5.233,0,0
0.0040717900000000005,0.005282614200000001,-0.0010441180000000001,-0.0028006840000000003,0.0024804626000000003,5.234,0,0
0.005489426,0.0031342322000000008,-0.0010781374000000002,-0.00332126,0.003456132,5.235,0,0
0.00516415,0.0010547402000000003,-0.0008358613999999999,-0.003764738,0.0031115840000000006,5.236,0,0
0.004388312,-8.306500000000007e-05,-0.0006766304,-0.0038331320000000004,0.00280488,5.237,0,0
0.003810488,-0.00045778500000000005,-4.2976399999999936e-05,-0.0034762380000000004,0.0031408459999999997,5.238,0,0
0.002045428,-2.269199999999907e-06,0.0007782916000000001,-0.0026469128000000002,0.002744662,5.239,0,0
3.5208000000000114e-05,0.0011223648,0.0008283118,-0.0023919448,0.00132132,5.24,0,0
-0.001154548,0.0020500328,0.0007698388,-0.0020704228,0.00073171,5.241,0,0
-0.0022569060000000004,0.0022990940000000002,0.0011594418,-0.00033210679999999993,0.001003592,5.242,0,0
-0.003328728,0.0019466262000000004,0.0008942194,0.0012615032000000003,0.0009623419999999999,5.243,0,0
-0.0034280380000000004,0.0013242502000000004,0.0002686192,0.0015823900000000001,0.001530752,5.244,0,0
-0.002795696,-5.277579999999975e-05,0.0003805146,0.001895804,0.002334138,5.245,0,0
-0.0028321320000000002,-0.0014003338,0.0003506856,0.0023868940000000005,0.002205932,5.246,0,0
-0.0020013116,-0.0020569058,-0.0003807864,0.0018190374,0.002003942,5.247,0,0
-0.00030947760000000016,-0.0027830619999999998,-0.000655396,0.0007681552,0.001739244,5.248,0,0
0.00022098699999999994,-0.0032591779999999997,-0.00044682960000000003,0.0008485532,0.001267824,5.249,0,0
0.0005208364,-0.003155528,-0.0009769166000000002,0.0014907492,0.0016924540000000001,5.25,0,0
0.0020482364000000003,-0.003141596,-0.0015907598,0.0017757292,0.0027867660000000004,5.251,0,0
0.0027155060000000003,-0.003703374,-0.0015321958000000001,0.0021681278,0.0030453940000000003,5.252,0,0
0.0017586988000000002,-0.003634548,-0.001414017,0.0022575272,0.0021626500000000003,5.253,0,0
0.0017369180000000003,-0.0029033132000000003,-0.0011113651999999999,0.0016417851999999998,0.0011723540000000002,5.254,0,0
0.0015402402,-0.0024419412000000005,-0.0005623752,0.001046591,-0.0004076879999999999,5.255,0,0
-0.00026830180000000003,-0.0017504332,-8.96536e-05,0.0007397867999999999,-0.00264239,5.256,0,0
-0.0016425658,-0.0006255092000000001,0.00041107400000000004,0.0003946288,-0.003851264,5.257,0,0
-0.0017197216,0.0005311188000000001,0.0006411070000000001,0.000412074,-0.004175796000000001,5.258,0,0
-0.0020831274,0.0015683480000000002,0.0005101788000000001,0.0007791940000000001,-0.005069332,5.259,0,0
-0.002173367,0.0030506360000000002,0.0002128516,0.0009922702,-0.0057383980000000005,5.26,0,0
-0.0009232970000000002,0.004268338,4.9052000000000004e-05,0.000902724,-0.005697966,5.261,0,0
-9.112900000000015e-05,0.004699150000000001,0.0004009104,0.0005196784,-0.006106332000000001,5.262,0,0
1.0999999999999929e-05,0.004240649800000001,0.0005390306,0.00029761139999999995,-0.006007326,5.263,0,0
0.000772392,0.0027225078,0.00010748280000000003,0.00010892399999999999,-0.004490931599999999,5.264,0,0
0.001873164,0.0018221318,0.00010325460000000003,-0.0005039140000000001,-0.0032394656,5.265,0,0
0.0017532340000000002,0.0015058938000000002,0.0004983448,-0.0013064716,-0.0027528056000000003,5.266,0,0
0.0013812308,0.0006951142000000001,0.00018134360000000003,-0.0016040580000000002,-0.0018375697999999999,5.267,0,0
0.0018982808,0.0003461924000000002,-2.4969399999999985e-05,-0.0009515874000000002,-0.0002468018000000001,5.268,0,0
0.0017346568,0.0012625244,0.0005606526,0.00043581999999999974,0.0012778738,5.269,0,0
0.0007399754000000001,0.0009774878,0.000905072,0.002054346,0.0029709738000000003,5.27,0,0
-0.0007718546000000002,-0.0028074162,0.0007713418000000001,0.004011026,0.0051106778,5.271,0,0
-0.0040702454,-0.0069890746,0.0007408632000000001,0.005372362,0.005805108,5.272,0,0
-0.0086098714,-0.0086202166,0.0008407082000000001,0.005010634000000001,0.0046830374,5.273,0,0
-0.0111282274,-0.0094991046,0.0005847544000000001,0.0035283572000000003,0.0029146740000000003,5.274,0,0
-0.011507680000000001,-0.009282948000000001,0.00040618260000000004,0.0017471492,0.001000206,5.275,0,0
-0.0102089678,-0.0042644480000000005,0.0006939186000000001,7.669120000000011e-05,-0.0005283460000000001,5.276,0,0
-0.0048161378,0.003918292,0.0010039664,-0.0015741248,-0.0011783774,5.277,0,0
0.0027772422,0.010844114,0.0011402384000000002,-0.0027640208,-0.0013522408,5.278,0,0
0.0077287422,0.015301368000000001,0.0010001876,-0.00326162,-0.0014988754000000001,5.279,0,0
0.009981134200000002,0.016676622000000002,-5.81726000000002e-05,-0.0028235216,-0.0009105421999999999,5.28,0,0
0.011839338000000001,0.01434023,-0.0016871606000000003,-0.0019817335999999996,-0.00014191019999999993,5.281,0,0
0.01155974,0.00718883,-0.0027277146,-0.0016627235999999998,-2.637280000000005e-05,5.282,0,0
0.009125976000000001,-0.003606530000000001,-0.0033012206,-0.0018723256,0.00020972439999999997,5.283,0,0
0.0074310719999999995,-0.014249850000000001,-0.0035006000000000004,-0.0028332076,0.0009420944,5.284,0,0
0.0062479319999999994,-0.023355372,-0.0020064799999999997,-0.00421564,0.0007914504,5.285,0,0
0.003856331999999999,-0.02908054,0.00038484999999999984,-0.00559715,-0.0006662156,5.286,0,0
0.0013496960000000005,-0.028532080000000005,0.0012486139999999999,-0.0064976420000000005,-0.0016242256000000002,5.287,0,0
-4.438400000000012e-05,-0.0227566332,0.0013145499999999998,-0.006428512,-0.0017190342000000002,5.288,0,0
-0.00179462,-0.013057213199999999,0.00156672888,-0.0048417684,-0.0016745622000000002,5.289,0,0
-0.0030832459999999996,0.0003439668000000014,0.00097754528,-0.0029556244,-0.0010519614,5.29,0,0
-0.0026932566,0.0123400468,-0.00036170672,-0.0016971286000000002,0.0003477305999999999,5.291,0,0
-0.0019446052000000001,0.018766246800000004,-0.00079485672,4.8957399999999946e-05,0.0014234882,5.292,0,0
-0.0018190991999999999,0.020748600000000002,-0.0004286871199999999,0.0013812054,0.0013007636,5.293,0,0
-0.0013099610000000001,0.019010788,-0.000553935,0.0018840558000000002,0.0004405596000000001,5.294,0,0
-0.0007334734,0.013854012000000002,-0.00032251539999999997,0.0022464198,-0.0004540584,5.295,0,0
-0.0016182027999999998,0.008155792,0.0004403886,0.0022124908000000004,-0.0015072584000000002,5.296,0,0
-0.0023917282,0.0046514927999999995,0.0005718754,0.0023520408000000004,-0.0023747620000000003,5.297,0,0
-0.0023337192000000002,0.0033051168000000006,0.0005739387999999999,0.0031290368000000002,-0.0019895200000000003,5.298,0,0
-0.0030648094,0.0034988908000000004,0.0008512172000000001,0.0034020028,-0.0011115680000000003,5.299,0,0
-0.0035000150000000004,0.0043783828,0.0007899756,0.0036322148,-0.0004897599999999999,5.3,0,0
-0.002206975,0.0052450908,0.0004383214,0.004663486,0.000833936,5.301,0,0
-0.001556335,0.005649222000000001,0.00045662179999999994,0.004723034,0.002573484,5.302,0,0
-0.002013286,0.0048102856,0.00026116499999999994,0.004013086000000001,0.003265868,5.303,0,0
-0.001149434,0.0012161036000000003,-0.00029526840000000003,0.003332986,0.0031898280000000005,5.304,0,0
-0.000325862,-0.0040008924,-0.0004804144,0.001693964,0.002577422,5.305,0,0
-0.0005180614,-0.0077947803999999996,-0.0004905454000000001,9.45200000000018e-06,0.001085898,5.306,0,0
0.0005644526,-0.0104924524,-0.0004077592,-0.00030372799999999985,0.00020661640000000004,5.307,0,0
0.0022424526,-0.011875448,-0.000322961,-0.0008821819999999999,-0.0004937326000000002,5.308,0,0
0.0027203806,-0.010657400000000001,6.070099999999999e-05,-0.002518554,-0.0018368806000000001,5.309,0,0
0.0027826286000000003,-0.008398021999999998,0.00024029180000000004,-0.003134444,-0.0015765242,5.31,0,0
0.002883364,-0.0070736919999999995,-0.00018230300000000003,-0.0036744000000000004,0.00027353779999999986,5.311,0,0
0.0017601020000000002,-0.005950354000000001,-0.0006627304000000001,-0.005209092000000001,0.0008062073999999999,5.312,0,0
-9.682600000000005e-05,-0.004063582,-0.0010072228000000002,-0.005516214000000001,0.0006658597999999999,5.313,0,0
-0.0009262520000000001,-0.00031776999999999977,-0.0009678606000000002,-0.004460326000000001,0.0014065044,5.314,0,0
-0.0011132920000000003,0.004701192000000001,-0.0007257618000000003,-0.00364081,0.0011104099999999998,5.315,0,0
-0.0013610340000000001,0.008422382,-0.0001549958000000001,-0.0027147276000000008,-0.00040544400000000003,5.316,0,0
-0.0010373918000000002,0.011021758000000001,0.00044553259999999994,-0.0014983136,-0.001391834,5.317,0,0
-5.278019999999998e-05,0.0108584236,0.0009807846000000002,-0.001046921,-0.0014187186000000002,5.318,0,0
0.00013230640000000003,0.006533689600000002,0.0014323043999999998,-0.0011585990000000002,-0.0015503092000000002,5.319,0,0
-0.0001250676,0.0013546996,0.0011666988000000001,-0.0005432138,-0.0011796138,5.32,0,0
0.00047248440000000004,-0.0019436204,0.0008961742,0.0006645418,0.00043372820000000005,5.321,0,0
0.0010053942000000002,-0.0027145284,0.000777721,0.0013515038000000003,0.0014014182000000003,5.322,0,0
0.0012251206,-0.0012962259999999997,0.0005255850000000001,0.0016250794000000003,0.0013784552,5.323,0,0
0.002219352,0.0013751100000000004,0.000120984,0.0021778892,0.0014130584,5.324,0,0
0.003285184,0.004262228,0.000166441,0.0026556100000000005,0.0011075009999999999,5.325,0,0
0.0028385019999999997,0.006803324,0.0005186636,0.0019805560000000005,-0.000670307,5.326,0,0
0.001887148,0.008570598,6.940240000000001e-05,0.0012336790000000001,-0.002065071,5.327,0,0
0.0010789140000000003,0.008153896,-0.00038571959999999996,0.0018295548000000002,-0.0012830088,5.328,0,0
-0.001007788,0.005245286,-0.0005322356,0.002647271,-0.00010782000000000001,5.329,0,0
-0.0036561960000000004,0.0023897679999999996,-0.0008157502000000001,0.002676427,-0.00010652000000000014,5.33,0,0
-0.0051658,0.0012503120000000002,-0.0012744114,0.0024132349999999997,-0.00030696800000000013,5.331,0,0
-0.006241656000000001,-0.0011757240000000002,-0.0006925490000000002,0.0018358939999999998,-0.0005598020000000001,5.332,0,0
-0.0071293020000000006,-0.005142334,0.0005057830000000001,0.0004957420000000002,-0.002353566,5.333,0,0
-0.006295452,-0.007253666000000001,0.0007794170000000001,-0.00041550524000000006,-0.0031048160000000003,5.334,0,0
-0.0045060989999999995,-0.009561556,0.0009327902000000001,-0.00034493124000000016,-0.001161082,5.335,0,0
-0.0038789230000000003,-0.013330216000000002,0.0011437270000000002,0.00023455076000000004,0.0007627700000000001,5.336,0,0
-0.0037005350000000005,-0.014707824,0.0008210820000000001,0.00116244676,0.0022851720000000002,5.337,0,0
-0.0028905030000000004,-0.011794964399999998,-0.00018458,0.00152213276,0.003545756600000001,5.338,0,0
-0.0024942384000000003,-0.007628696399999999,-0.0010080850000000001,0.0013289896,0.0031117746000000005,5.339,0,0
-0.0022880314,-0.004222832400000001,-0.0024436210000000004,0.0011545036,0.0020154886000000004,5.34,0,0
-0.0005822854,-0.0010010266000000001,-0.0048540106,0.0012713076000000002,0.0020139246,5.341,0,0
0.0015547386000000002,0.0006900194000000001,-0.006456656,0.0022752816000000003,0.0023334146,5.342,0,0
0.0018574546000000003,0.0004824458,-0.007093818,0.0035009436000000005,0.0028106579999999997,5.343,0,0
0.0018239310000000002,0.0012504258000000002,-0.0051961440000000015,0.0041061560000000006,0.003504732,5.344,0,0
0.002222251,0.0043408618,-0.00031058800000000053,0.003678568,0.0029792565999999998,5.345,0,0
0.000998857,0.007562816,0.005245072,0.002052806,0.0012358465999999999,5.346,0,0
-0.000720259,0.009294194,0.009562310000000001,-2.915000000000003e-05,-0.0005278354,5.347,0,0
-0.0004974194000000001,0.0094600896,0.011058008000000001,-0.001445002,-0.0017254114000000002,5.348,0,0
0.0006618875999999999,0.007379367599999999,0.009165426,-0.00239302,-0.003385615400000001,5.349,0,0
0.0018463216,0.002933153600000001,0.0067042540000000015,-0.003294238,-0.004868186000000001,5.35,0,0
0.0047583916,-0.0035671664000000002,0.0057257340000000006,-0.0034727760000000003,-0.004447266000000001,5.351,0,0
0.0074562176,-0.0107804664,0.0029709138,-0.00360758,-0.0037113260000000005,5.352,0,0
0.008192804000000001,-0.013008368,-0.00033236619999999937,-0.0039439440000000004,-0.002597732,5.353,0,0
0.009067926,-0.009233494000000002,-0.0016283961999999997,-0.004436862,-3.1014e-05,5.354,0,0
0.009016684,-0.0022732000000000004,-0.0033326121999999996,-0.005238036,0.0016877560000000001,5.355,0,0
0.006737786000000001,0.006576120000000001,-0.0061191402,-0.005559278,0.001254762,5.356,0,0
0.005142914,0.013137684000000002,-0.00683424,-0.0052086499999999996,0.0009174020000000001,5.357,0,0
0.005562948000000001,0.014111622000000002,-0.00452287,-0.004474006199999999,0.0002619012,5.358,0,0
0.00500982,0.010434190000000003,-0.002842086,-0.0031852782000000007,-0.0017712428000000002,5.359,0,0
0.004049558000000001,0.0035994900000000008,-0.0029811300000000002,-0.0009304462,-0.0024870588,5.36,0,0
0.00439502,-0.0039629,-0.0039695,0.0016299238000000004,-0.0013714088,5.361,0,0
0.0040953022,-0.006746028,-0.004573942,0.0038580118,-0.00043332479999999996,5.362,0,0
0.0021235822,-0.004585442,-0.004694592,0.005598204000000001,-0.00048191799999999996,5.363,0,0
-0.00038529980000000003,-0.00029512999999999935,-0.0043284672,0.0073986300000000015,3.864300000000004e-05,5.364,0,0
-0.0028660458000000005,0.0036201900000000006,-0.0023797712,0.009553200000000001,0.000981553,5.365,0,0
-0.005918209800000001,0.005682626400000001,0.00015930879999999977,0.010614054,0.001109865,5.366,0,0
-0.007826284000000001,0.006225070400000001,0.0015298971999999997,0.01056132,0.001402175,5.367,0,0
-0.008587052000000001,0.0039024224000000006,0.0025456771999999997,0.009907692,0.0024241469999999998,5.368,0,0
-0.0108789,-9.292759999999969e-05,0.004574832399999999,0.007735015600000001,0.002985276,5.369,0,0
-0.013836216,-0.0021865196000000003,0.0057902484,0.0043983336,0.0032188019999999998,5.37,0,0
-0.014476356,-0.0027093820000000006,0.006088522400000001,0.0014838356,0.004215814,5.371,0,0
-0.013727612,-0.004735222,0.0062792918000000005,-0.0017793223999999998,0.004342426,5.372,0,0
-0.011951886,-0.006955358,0.004819703800000001,-0.0062875184,0.0033528170000000006,5.373,0,0
-0.005734965999999999,-0.007061694,0.0020003298,-0.010809782,0.0028070344,5.374,0,0
0.002799554,-0.0056633000000000005,-0.0004419953999999998,-0.01621674,0.0020878070800000002,5.375,0,0
0.008966634000000001,-0.004304545999999999,-0.0017717331999999998,-0.022110162000000003,-0.00020829692000000008,5.376,0,0
0.013403856,-0.0013540039999999998,-0.002178039,-0.025768860000000005,-0.00231071492,5.377,0,0
0.0164486,0.00279115,-0.0019571830000000004,-0.027368960000000005,-0.0030594679200000004,5.378,0,0
0.01582778,0.005603116,-0.002669391,-0.027651760000000004,-0.00425917332,5.379,0,0
0.012908022000000002,0.008486134000000001,-0.005187785800000001,-0.024737740000000005,-0.005649268000000001,5.38,0,0
0.009527734,0.011555856,-0.007668304,-0.018820180000000002,-0.00609056,5.381,0,0
0.004494644000000002,0.016399214000000002,-0.008323114,-0.012215076000000002,-0.005971236,5.382,0,0
-0.0014898560000000001,0.022511800000000002,-0.007186209999999999,-0.005057456,-0.006186734000000001,5.383,0,0
-0.006561076000000001,0.0224159,-0.004478654,0.0034986639999999994,-0.006047272000000001,5.384,0,0
-0.010024698,0.017567164,0.0012445060000000003,0.014916304,-0.005570328,5.385,0,0
-0.012170170000000001,0.012513571999999999,0.010131166,0.028634123999999997,-0.0052376720000000005,5.386,0,0
-0.012552080000000002,-0.0002809280000000006,0.020437726000000003,0.043093400000000004,-0.004242367,5.387,0,0
-0.010109606000000002,-0.017299608,0.025612814000000005,0.05681096000000001,-0.002822995,5.388,0,0
-0.006257918000000001,-0.025598148,0.0243222514,0.06731528000000002,-0.001029907,5.389,0,0
-0.0026031000000000006,-0.027616352000000004,0.0205141534,0.07236240000000001,0.001653739,5.39,0,0
0.001401474,-0.026713623600000003,0.0073242134000000006,0.0710651,0.005437203,5.391,0,0
0.004736828,-0.019948095600000004,-0.0120958466,0.06370356000000002,0.008590674,5.392,0,0
0.005496952,-0.0114619096,-0.0230204466,0.05115538000000001,0.010039664,5.393,0,0
0.005252814,-0.0064944996,-0.025844758000000002,0.035554772,0.011020523999999999,5.394,0,0
0.005160616,-0.0069577996,-0.023725836,0.016695352,0.01093743,5.395,0,0
0.004222224,-0.011183876,-0.012405776,-0.004685428000000001,0.008835998000000001,5.396,0,0
0.0036499300000000004,-0.012943104000000002,0.0015286639999999999,-0.024714148000000002,0.006486482,5.397,0,0
0.0039785440000000005,-0.011286218800000001,0.009379524,-0.041280088,0.0055237540000000005,5.398,0,0
0.0020299960000000005,-0.0078529888,0.010959754000000002,-0.05571278,0.0037658854,5.399,0,0
-0.002320324,-0.0011588288000000005,0.004928709999999999,-0.06833734000000001,0.0008854554000000002,5.4,0,0
-0.005369386,0.0078669712,-0.006301529999999999,-0.07689986000000001,-0.0009364426000000002,5.401,0,0
-0.0070414480000000005,0.0160466512,-0.015564449999999999,-0.08353874,-0.0029469846,5.402,0,0
-0.0079813056,0.022013,-0.019218595999999998,-0.08915024000000002,-0.0052012466,5.403,0,0
-0.005281427599999999,0.02517774,-0.017742014,-0.08945036,-0.00541004,5.404,0,0
0.00021085240000000022,0.02480572,-0.011885458000000002,-0.08406136,-0.005224756,5.405,0,0
0.0037837664,0.019554814,7.126199999999989e-05,-0.07431750000000001,-0.006797046000000001,5.406,0,0
0.005592792400000001,0.009004174,0.011111602000000002,-0.057866742,-0.008050048,5.407,0,0
0.0070715660000000005,-0.0030657659999999993,0.012756682,-0.035163122,-0.008475352,5.408,0,0
0.006773806,-0.013347286,0.011054298,-0.011565422,-0.009502072,5.409,0,0
0.005200814000000001,-0.021286586,0.00927794,0.009531938000000002,-0.009230996,5.41,0,0
0.004991176000000001,-0.02521044,0.006153720000000001,0.027947038,-0.0062626800000000005,5.411,0,0
0.00466028,-0.024666379999999998,0.0041727,0.04393708,-0.0031003920000000004,5.412,0,0
0.002178508,-0.021867460000000002,0.005452866000000001,0.056861400000000006,-0.0010630116000000002,5.413,0,0
0.00025589799999999985,-0.01632665,0.009226258000000001,0.06686666,0.0013025644000000003,5.414,0,0
-0.0005703488000000002,-0.00799107,0.01604112,0.07612786,0.0037827004,5.415,0,0
-0.0027626348,0.00014993000000000124,0.0178095,0.08316426,0.0045705624,5.416,0,0
-0.0053566028000000005,0.007325110000000001,0.00680156,0.08289636,0.0040886284000000005,5.417,0,0
-0.0055737168000000005,0.012035824,-0.00430298,0.07537648,0.004371264000000001,5.418,0,0
-0.0051492808,0.012317564000000001,-0.01119956,0.06272504000000001,0.004718696,5.419,0,0
-0.006037672,0.009116632,-0.02092286,0.046410054000000006,0.00490962,5.42,0,0
-0.007306082,0.005041958,-0.027400640000000004,0.030227598,0.007568322000000001,5.421,0,0
-0.009084062,0.0025529646000000002,-0.022423480000000003,0.01604856,0.011221308000000001,5.422,0,0
-0.012372264000000001,0.0039649506,-0.014537004000000001,0.003294680000000001,0.012771906000000001,5.423,0,0
-0.01625455,0.007927000600000001,-0.008692860000000002,-0.00860164,0.012148622,5.424,0,0
-0.01872608,0.012822992600000001,-0.0018566000000000012,-0.020491494000000002,0.008970188,5.425,0,0
-0.020172660000000002,0.020277906600000003,0.005696680000000001,-0.032906538,0.0037074399999999993,5.426,0,0
-0.01991902,0.027965160000000003,0.015930600000000003,-0.04243580000000001,-5.945140000000035e-05,5.427,0,0
-0.01747322,0.03141758000000001,0.020195364,-0.046571360000000006,-0.0022341592,5.428,0,0
-0.015306740000000003,0.024739048000000003,0.015881660000000002,-0.045803500000000004,-0.005063563200000001,5.429,0,0
-0.013124266,0.010008748000000001,0.0130051,-0.039703300000000004,-0.007330767199999999,5.43,0,0
-0.007958980000000001,-0.003450831999999999,0.008142982800000002,-0.030181060000000003,-0.0089808792,5.431,0,0
