bandpass 1,bandpass 2,bandpass 3,bandpass 4,bandpass 5,time,onset,mark
0.005520254,0.00047439039999999996,0.0001033788,-0.00109845,0.000859484,3.852,1,1
0.006318004,0.0008493044000000001,0.00037982280000000004,-0.0016624959999999999,0.0007412666,3.853,0,0
0.0061693146,0.0011587924000000002,0.0005675948,-0.0022996979999999998,0.0005220966,3.854,0,0
0.0012143746,0.0012271896000000003,0.0008623939999999999,-0.002362084,-4.327540000000006e-05,3.855,0,0
-0.0026533133999999997,0.0015077760000000004,0.0011052154,-0.0021030482,7.457860000000005e-05,3.856,0,0
-0.0050948773999999995,0.0015099080000000001,0.0009897714,-0.0017819544,0.0004596346000000001,3.857,0,0
-0.0082698874,0.0014613920000000002,0.0010738854,-0.0012588793999999998,0.0005826619600000001,3.858,0,0
-0.010319338,0.0014756300000000001,0.0011219974,-0.0007619764,0.00098243756,3.859,0,0
-0.009045762000000002,0.0012732151600000003,0.0012416454000000001,-0.0006999844,0.0012234935600000001,3.86,0,0
-0.0076714240000000005,0.0010407871600000003,0.0016224640000000001,-0.0004464852,0.00087561116,3.861,0,0
-0.00662364,0.00058669356,0.0015656406000000003,0.00020224899999999994,0.0009989531600000001,3.862,0,0
-0.003061356000000001,0.00022497196000000004,0.0012567328000000003,0.000564422,0.0016708612000000001,3.863,0,0
0.0008570300000000002,0.00029044396000000005,0.0007857668000000001,0.0008806746000000001,0.0018361556000000001,3.864,0,0
0.0031565919999999997,0.0006761628,-0.00013283120000000004,0.0015058726,0.0019266636000000003,3.865,0,0
0.0060365620000000005,0.0008205170000000001,-0.0011091652,0.0013808226,0.00245171,3.866,0,0
0.009407368,0.0009528086,-0.0014936498,0.00032988059999999994,0.002468374,3.867,0,0
0.009845594000000001,0.0012573742000000002,-0.0013730625999999998,-0.0002909533999999999,0.0019100928,3.868,0,0
0.009003242000000002,0.0009869962,-0.0010476116,-0.0005007125999999999,0.0013890568000000003,3.869,0,0
0.008496262000000001,0.0005548452,-0.0004164787999999999,-0.0007955806,0.0008182708000000001,3.87,0,0
0.005277268000000001,0.0005225474000000001,0.0003194952,-0.000719308,5.460800000000075e-06,3.871,0,0
0.00046144800000000015,0.0004326554,0.0007391181999999999,0.00024417800000000006,-0.0004277268,3.872,0,0
-0.0028428480000000002,-2.4137400000000004e-05,0.0007917168000000001,0.0009811400000000001,-0.00032626559999999994,3.873,0,0
-0.006054782,-9.40774e-05,0.0011441578,0.0009855964000000002,-0.0005987416000000001,3.874,0,0
-0.00944962,-0.0002005714,0.0014259770000000001,0.0013365524,-0.0012639116000000001,3.875,0,0
-0.009925976000000001,-0.0009067838,0.0010917766000000002,0.0016774228,-0.0015762976,3.876,0,0
-0.008262092,-0.0016145138,0.0008902630000000002,0.0012692048,-0.0016764920000000001,3.877,0,0
-0.006787464,-0.002304217,0.0003823650000000001,0.0009055762000000001,-0.002087088,3.878,0,0
-0.004197583999999999,-0.003188615,-0.000775197,0.0008430630000000001,-0.0017301470000000002,3.879,0,0
-0.00022190600000000023,-0.003535078,-0.0013543049999999999,0.00018640900000000006,-0.00028388700000000003,3.88,0,0
0.002516044,-0.0030489686,-0.0013042458,-0.000863801,0.0008125210000000001,3.881,0,0
0.004349202,-0.0024574816,-0.0016336312,-0.002129903,0.0008501284000000002,3.882,0,0
0.0069050399999999994,-0.0016063158000000001,-0.0015387762,-0.0030847404000000004,0.0007402264,3.883,0,0
0.008941439999999998,-0.0006686324000000001,-0.0006009682000000001,-0.003079629,0.0011238753999999998,3.884,0,0
0.009021262,4.7597599999999986e-05,-0.0003848256000000001,-0.0026074234,0.0013113314,3.885,0,0
0.008736986,0.0006886682,-0.0006775284000000001,-0.0014968894,0.0013796234,3.886,0,0
0.007980538,0.0011886692,-0.00029306396,0.00016816659999999985,0.0014733364000000001,3.887,0,0
0.0043191359999999995,0.0014863574000000001,0.00010289304,0.001160472,0.0012102624000000003,3.888,0,0
-3.932399999999987e-05,0.0015347066,-6.456835999999998e-05,0.0011941478,0.0004914524,3.889,0,0
-0.0033694600000000003,0.0012041106,0.00015762424000000002,0.0012068496000000003,-0.0009155516000000001,3.89,0,0
-0.007124284,0.0006528478000000001,0.00101627024,0.00081729,-0.0024719416000000003,3.891,0,0
-0.010491138,0.00014917360000000002,0.0014386478,0.0001894502,-0.003198832,3.892,0,0
-0.010736470000000001,-0.0004234084,0.0012988,0.0002293516,-0.003154584,3.893,0,0
-0.009391312,-0.0006660370000000001,0.0012726058,0.0003859838,-0.0028885862,3.894,0,0
-0.008291133999999999,-0.000800951,0.0011344036,0.0005698224,-0.0024988182,3.895,0,0
-0.00519263,-0.0012392542,0.0004952238,0.0007222960000000001,-0.0015380583999999998,3.896,0,0
-0.00103137,-0.0013214720000000002,-0.0002127362,0.0008448101999999999,-0.0004214364000000001,3.897,0,0
0.001768616,-0.0011944426000000002,-0.0008547544,0.0011528034000000001,0.0002751679999999999,3.898,0,0
0.004118084,-0.0013152126,-0.0013638688000000001,0.0011732107999999999,0.0008180882,3.899,0,0
0.007170322000000001,-0.0011123682,-0.0014296912000000001,0.0005147028,0.0014644202,3.9,0,0
0.008650446000000001,-0.0004577228,-0.0011806368000000002,-0.0002519052000000001,0.0011906604,3.901,0,0
0.008184422,0.0002950512000000001,-0.0009726234,-0.0006082276,0.00014209240000000005,3.902,0,0
0.00794937,0.0010870218000000004,-0.0006098394000000001,-0.0014669855999999998,6.5194000000000786e-06,3.903,0,0
0.0065465359999999995,0.0018318378000000005,0.00011210460000000001,-0.0023788260000000006,-0.00038484660000000004,3.904,0,0
0.002865742,0.0025111894000000006,0.00027599920000000004,-0.0020388380000000003,-0.0011183466,3.905,0,0
-0.0006507399999999999,0.0026583060000000005,0.00020890119999999998,-0.001212962,-0.0007417436000000001,3.906,0,0
-0.003276504,0.0021095660000000002,0.0007280218,-0.0008739738000000002,-0.00030488300000000004,3.907,0,0
-0.006513204,0.0013345996000000003,0.0010838566,-0.00038399720000000003,-0.0008496044,3.908,0,0
-0.008523958,0.0005183396000000002,0.00084449566,0.0006760368,-0.0010476724,3.909,0,0
-0.007856234,-0.00039779839999999996,0.00071800744,0.0010761928,-0.0006216559999999999,3.91,0,0
-0.007096296,-0.0010367724,0.00063115624,0.0012493368,-0.0007271975999999999,3.911,0,0
-0.006246538000000001,-0.0008442395999999999,2.1878239999999986e-05,0.0016143186,-3.891619999999991e-05,3.912,0,0
-0.00302805,-0.0007285239999999999,-0.00050915056,0.0016243006000000002,0.0017819218000000002,3.913,0,0
0.000194458,-0.001046808,-0.00077229762,0.0017177646000000003,0.0031598218000000004,3.914,0,0
0.002117346,-0.0008777672000000001,-0.0010150966,0.0015551066000000003,0.004166555400000001,3.915,0,0
0.005254362,-0.0004073210000000001,-0.0013582720000000002,0.0011895584,0.005351972,3.916,0,0
0.008503192,-0.0003481398000000001,-0.0013394892000000002,0.0006906494,0.005735544,3.917,0,0
0.00900623,-5.644100000000001e-05,-0.0007788490000000001,7.988279999999993e-05,0.004823904,3.918,0,0
0.008308929999999999,0.0007983110000000001,-0.000528651,-0.000472581,0.0035855748,3.919,0,0
0.007905371999999999,0.0011104382000000001,-0.00029565099999999997,-0.0007964674000000001,0.0019200268,3.92,0,0
0.0049519279999999995,0.0010391628,0.0003342710000000001,-0.0008758212000000001,-0.0006189192,3.921,0,0
0.00043711800000000023,0.0007732096000000001,0.0006425116,-0.0009013986000000001,-0.0030454512000000003,3.922,0,0
-0.002509722,0.0003178015999999999,0.0007656754000000001,-0.0008126226,-0.0046360012,3.923,0,0
-0.005080806,-0.00020663840000000004,0.0012986854,-0.0007583164,-0.005731732,3.924,0,0
-0.008362126000000001,-0.0007808024000000001,0.0015603434,-0.00030535199999999995,-0.00591534,3.925,0,0
-0.009927062,-0.0011236432000000002,0.0012273694,3.797200000000005e-05,-0.00486719,3.926,0,0
-0.008994944,-0.001330696,0.001488718,7.565260000000001e-05,-0.003400452880000001,3.927,0,0
-0.008291774000000002,-0.00108788,0.002052066,0.0004506452,-0.002006140880000001,3.928,0,0
-0.006538388000000001,-0.00102548,0.0019291619999999999,0.00048123640000000004,-0.0005164288799999999,3.929,0,0
-0.0023643979999999998,-0.000876818,0.0018692072000000002,8.56986e-05,0.00038688092,3.93,0,0
0.0010932140000000001,-0.00015785400000000002,0.002034498,-0.0002595254,0.00041061692000000005,3.931,0,0
0.00357061,0.000411958,0.0011362960000000002,-0.00037852700000000003,0.0006745798000000001,3.932,0,0
0.007153774,0.0007721059999999999,-0.001102672,-0.00043176740000000003,0.0007918077999999999,3.933,0,0
0.009974526000000001,0.0011408174,-0.003093958,-0.0007328570000000001,0.00040704,3.934,0,0
0.009956792000000003,0.0016990674,-0.0040015752,-0.0009939852,0.00020105379999999998,3.935,0,0
0.009730042000000001,0.0019854994,-0.0043058952,-0.0012771152000000002,0.0001829838,3.936,0,0
0.009093124000000001,0.0020084434,-0.0038810122,-0.0015611378,5.406100000000002e-05,3.937,0,0
0.005033092,0.0018922874000000002,-0.0020690622,-0.0016241902,-0.00047462899999999996,3.938,0,0
0.0004590339999999999,0.0017588920000000002,-0.0002000942,-0.0011475598,-0.0012030171999999999,3.939,0,0
-0.0024812320000000003,0.0012829734,0.0005458107999999999,-0.00033937979999999995,-0.0016286348,3.94,0,0
-0.006173934000000001,0.00037792900000000005,0.001057206,0.00035982420000000014,-0.0017235048,3.941,0,0
-0.009658960000000001,-0.000294843,0.001406563,0.0011449622,-0.0016899956000000001,3.942,0,0
-0.009951442000000001,-0.001139177,0.001179971,0.0017973744000000002,-0.0008636776000000001,3.943,0,0
-0.009036914,-0.0017094290000000002,0.000993434,0.00209503,0.00038555040000000005,3.944,0,0
-0.008620064,-0.0018807064,0.001149963,0.001777836,0.0013742144,3.945,0,0
-0.005851851600000001,-0.002225284,0.0006777086,0.0013670420000000002,0.0026174344,3.946,0,0
-0.0015960796000000005,-0.002164852,0.00020500360000000003,0.0011550576,0.003330146,3.947,0,0
0.0013635304,-0.001393054,0.00034459160000000004,0.0009103476000000001,0.003553946,3.948,0,0
0.0039379324,-0.000645936,0.00011288940000000002,0.0007319832,0.0042262639999999995,3.949,0,0
0.007237672400000001,-0.0001855698,-0.00018622259999999998,0.0005089592000000001,0.0045021539999999995,3.95,0,0
0.009314180000000002,0.0006389882,0.00028496380000000006,0.0003446652000000001,0.0037431918,3.951,0,0
0.008990572,0.0015571162,0.0005259912,7.043680000000006e-05,0.0027148184,3.952,0,0
0.008447768,0.0019385682000000004,0.00013844240000000004,-0.00013885700000000002,0.0014096584,3.953,0,0
0.0068263866000000005,0.0019947262,0.0006586076000000001,-0.0001808356,-0.0010444856,3.954,0,0
0.0025365706000000003,0.00204739,0.0012048176000000002,-0.0003185416,-0.0033889676,3.955,0,0
-0.0015781614,0.0016410856000000002,0.0006428136,-0.0005413576000000001,-0.0044358774000000005,3.956,0,0
-0.0046280874,0.000895837,0.0002152672,-0.0006870768000000001,-0.004790448,3.957,0,0
-0.0083244194,0.00047274860000000004,0.00029795319999999996,-0.0006796562,-0.004565102,3.958,0,0
-0.010772470000000001,4.0960400000000015e-05,-0.00025014740000000007,-0.00036630119999999993,-0.0032715505999999996,3.959,0,0
-0.009951644,-0.0003994656,-0.0008936514000000001,-0.0001546431999999999,-0.0010653666,3.96,0,0
-0.008764046000000001,-0.00048428740000000005,-0.0005447940000000001,6.134800000000035e-06,0.0008084973999999998,3.961,0,0
-0.007793976000000001,-0.0009058268,-0.00028307240000000007,0.0006334348,0.0020257834,3.962,0,0
-0.0040925399999999995,-0.0017828864000000002,-0.0005245950000000001,0.0005611902,0.0029937194,3.963,0,0
7.710600000000018e-05,-0.0023359902,-0.0005145074000000001,-0.00024135980000000002,0.003411388,3.964,0,0
0.002610472,-0.0026067682,-0.0006071674000000002,-0.00038936060000000004,0.003009758,3.965,0,0
0.006129306000000001,-0.002550745,-0.0012846408000000001,0.00015553539999999997,0.002797304,3.966,0,0
0.010076878000000001,-0.0018988270000000005,-0.0013766890000000002,0.00028563540000000004,0.002984692,3.967,0,0
0.011178562,-0.0006098849999999998,-0.0008400156000000002,0.00015758080000000002,0.00223339,3.968,0,0
0.01042469,0.000718375,-0.0006381848,0.00011725679999999999,0.0011383,3.969,0,0
0.00969773,0.0013389836,-0.00041442199999999996,-0.00035476240000000003,0.00026306599999999995,3.97,0,0
0.00659763,0.0015661628000000001,0.00029686580000000005,-0.0014086884,-0.001630584,3.971,0,0
0.0015521220000000006,0.0015709098000000002,0.0008737064000000001,-0.0025894964000000003,-0.004048264,3.972,0,0
-0.0018525199999999999,0.0007702178000000001,0.0008965404000000001,-0.002952264,-0.005217886,3.973,0,0
-0.00464651,-0.00022453620000000007,0.0013382966,-0.0028851299999999996,-0.005353814,3.974,0,0
-0.008260846,-0.0007059308000000001,0.0017781038000000001,-0.0022529629999999998,-0.0047067618000000006,3.975,0,0
-0.009828194,-0.0014750590000000001,0.0015089348000000002,-0.0005651909999999999,-0.0027260698000000005,3.976,0,0
-0.008715144,-0.0022196720000000002,0.0011028748000000003,0.001516987,-0.00045354180000000007,3.977,0,0
-0.00806349,-0.0022676640000000004,0.0006926688000000002,0.0027945030000000003,0.0007619004000000001,3.978,0,0
-0.0064692428,-0.0019875412,-0.00010566120000000002,0.0033513650000000002,0.0015560830000000002,3.979,0,0
-0.0021534348000000004,-0.0015845124000000003,-0.0010155172000000001,0.0034751158,0.0023121088000000005,3.98,0,0
0.0015363812000000001,-0.0010712864,-0.00117744,0.0023088757999999996,0.0019736828000000003,3.981,0,0
0.0041847732,-0.00034210120000000005,-0.0012485154,0.0008466912000000003,0.0013982518000000002,3.982,0,0
0.007887741200000001,0.0004756608,-0.0017031514,0.00010565564000000004,0.0020354376,3.983,0,0
0.010718690000000001,0.000861576,-0.0015975574000000002,-0.00020306235999999997,0.002908653,3.984,0,0
0.010345428000000002,0.0010007619999999999,-0.0009470430000000002,-0.0004931511600000001,0.002570699,3.985,0,0
0.009277488000000002,0.00180203,-0.0006084921999999999,-0.00060366116,0.00208208206,3.986,0,0
0.008012668,0.0027525708,-0.00013611479999999995,-0.0007993285600000001,0.00211602106,3.987,0,0
0.0038255719999999997,0.0029160428000000005,0.0006893612000000001,-0.0009272572,0.0011537670600000002,3.988,0,0
-0.0006009519999999999,0.0026031418,0.0009228408,-0.0007051420000000001,-0.00040201893999999996,3.989,0,0
-0.003283508,0.0020910890000000004,0.000900578,-0.0006083872000000001,-0.00135768694,3.99,0,0
-0.006723656,0.0014274834000000001,0.0009292924,-0.000405047,-0.0023132680000000003,3.991,0,0
-0.00998955,0.0005470733999999999,0.00051133,-0.0002114854,-0.00351301,3.992,0,0
-0.010461738000000002,-0.0003666546,-5.5118000000000105e-06,-0.00010895320000000003,-0.0034971579999999998,3.993,0,0
-0.009611116000000001,-0.0007662136,-7.588880000000003e-05,-0.00017629540000000006,-0.002462602,3.994,0,0
-0.008926248000000001,-0.000575264,-0.00035550300000000007,0.0002555128,-0.0016368539999999999,3.995,0,0
-0.006011554,-0.0006830632,-0.0008315582000000001,0.0010421346,-0.00030027599999999993,3.996,0,0
-0.0016106440000000003,-0.0011093972,-0.000759764,0.0013235323999999998,0.001248842,3.997,0,0
0.001435934,-0.0009103752,-0.00041388740000000007,0.0014627134,0.0018286819999999999,3.998,0,0
0.004360608,-0.0005703908,-0.00012342199999999982,0.001515002,0.001766268,3.999,0,0
0.007780930000000001,-0.0004751862000000001,0.0005861326,0.0006326360000000002,0.0016414884000000001,4.0,0,0
0.009592396,-6.558939999999999e-05,0.0019440226,-0.001161916,0.0008305424000000001,4.001,0,0
0.009159934000000002,0.0005421266,0.0026127828,-0.0024614714,-0.0006521056,4.002,0,0
0.008662524,0.0009292966,0.002533976,-0.0035111544,-0.0016938036,4.003,0,0
0.007001792,0.0015155542,0.001977792,-0.004098556,-0.0024084196000000004,4.004,0,0
0.0026257959999999997,0.0020555260000000002,0.00038513199999999984,-0.0035593624,-0.0031921060000000005,4.005,0,0
-0.001336552,0.0016665631999999999,-0.00132894,-0.0021904064,-0.003096342,4.006,0,0
-0.003956544,0.0010025052,-0.0020299960600000003,-0.00022838840000000008,-0.0019993312,4.007,0,0
-0.007090268,0.0002448272,-0.00197230706,0.0018195536,-0.0012401017600000002,4.008,0,0
-0.009522788,-0.0009313328,-0.0017179188600000002,0.0031452356,-0.0007185453600000001,4.009,0,0
-0.008776254,-0.0017337388,-0.0007758014599999999,0.003629502,0.00041296863999999993,4.01,0,0
-0.00750185,-0.0019635620000000003,-3.041386000000002e-05,0.003726718,0.0010381286400000002,4.011,0,0
-0.006739396,-0.0021115820000000003,-0.00019966460000000005,0.0030627698,0.0011831218400000002,4.012,0,0
-0.0034975919999999995,-0.001985608,-0.00039581260000000004,0.0019850476,0.0022532804,4.013,0,0
0.0005428179999999996,-0.0016342720000000002,-0.00042406620000000003,0.0010227772000000004,0.0031694239999999997,4.014,0,0
0.003300736,-0.0016192280000000001,-0.0005679876,0.00039541319999999996,0.0035176680000000003,4.015,0,0
0.006409700000000001,-0.0013682202000000001,-0.0008471472,-0.0002228808,0.004250716,4.016,0,0
0.00980343,-0.0008892646000000002,-0.0008014074,-0.0008963866000000001,0.004528228,4.017,0,0
0.010443186,-0.00025504260000000007,-0.0004271903999999999,-0.0012381264000000001,0.0034413151400000002,4.018,0,0
0.00918913,0.0006773034000000001,-5.3508999999999924e-05,-0.001500536,0.00212277114,4.019,0,0
0.008148908000000002,0.0014216454000000002,0.00037281060000000005,-0.002017868,0.0009697671399999999,4.02,0,0
0.004881684,0.0018392336000000002,0.0011899466,-0.002146332,-0.00073744086,4.021,0,0
-0.00018973600000000024,0.0019744048,0.0018738896000000003,-0.0016082651999999998,-0.0021003428600000003,4.022,0,0
-0.003699336,0.0017347704000000002,0.0017835476000000001,-0.0013286632,-0.0023566660000000003,4.023,0,0
-0.006588630000000001,0.001140578564,0.0016813158000000001,-0.0010365361999999999,-0.0023707040000000004,4.024,0,0
-0.010437624000000001,0.0005870103640000001,0.0017067016000000001,-0.00025922080000000006,-0.002675114,4.025,0,0
-0.01236568,-0.00016101563599999998,0.0012225116,0.0007704952000000001,-0.0023707740000000004,4.026,0,0
-0.011447598000000002,-0.000726200436,0.0005796732,0.0012324344,-0.0017605446,4.027,0,0
-0.010248314,-0.001123052036,0.00012590520000000006,0.0014168044000000002,-0.0016580868,4.028,0,0
-0.008110000800000001,-0.0015164642,-0.000538611,0.0017158154,-0.0010526988,4.029,0,0
-0.0035099908000000004,-0.001760894,-0.0012726084,0.0013902594000000002,0.0002949512000000002,4.03,0,0
0.0010381891999999998,-0.0017406320000000002,-0.0016156664000000001,0.0005098534000000001,0.0012228532000000002,4.031,0,0
0.004177795200000001,-0.0013392290000000002,-0.0017372785999999999,-0.00017907500000000003,0.0016448778000000002,4.032,0,0
0.0077874112,-0.0009373757999999999,-0.0019646206000000005,-0.000340479,0.0023668680000000003,4.033,0,0
0.010757838,-0.0002112577999999999,-0.0018237026000000002,-0.0005763417600000001,0.002407746,4.034,0,0
0.011050154,0.0006008982000000002,-0.0011947842,-0.00110144716,0.00112927,4.035,0,0
0.010479644,0.0012603582000000003,-0.0008845450000000003,-0.0013335991600000002,0.0003765758,4.036,0,0
0.00960566,0.0016928032000000002,-0.0005982322000000002,-0.00142391076,0.00019715839999999993,4.037,0,0
0.0057502939999999995,0.001931678,0.00013238379999999997,-0.0022293767600000004,-0.0010783156,4.038,0,0
0.0008740080000000003,0.001880292,0.0004900716,-0.002376188,-0.0021354336,4.039,0,0
-0.0023602959999999996,0.0013254746,0.0006080662000000001,-0.001100848,-0.0013683016000000001,4.04,0,0
-0.0059389460000000005,0.0006875206,0.0012518870000000001,-8.55719999999999e-05,-0.0011159184000000002,4.041,0,0
-0.00961507,0.0001600984000000001,0.0015847508,0.0006671620000000001,-0.0016220990000000001,4.042,0,0
-0.010175836,-0.00011523920000000001,0.0014058742,0.001729966,-0.0010142038,4.043,0,0
-0.008681818,-0.000566434,0.0015182082,0.0021550980000000003,-0.0006801378,4.044,0,0
-0.00800746,-0.0010426926000000002,0.0014204806,0.001921172,-0.0009805244,4.045,0,0
-0.005477172000000001,-0.0011489846,0.0004158145999999999,0.001842586,-0.00043526139999999986,4.046,0,0
-0.0008269339999999997,-0.0013331844,-0.0005103754,0.0014891936,0.0005132446,4.047,0,0
0.002237082,-0.0014032446,-0.0010184028000000001,0.0013266424,0.0013186334000000002,4.048,0,0
0.004590122,-0.0009717478000000001,-0.0016581146000000002,0.0014365404,0.0027064254000000003,4.049,0,0
0.008334222,-6.228379999999995e-05,-0.0020045920000000004,0.0010923652000000002,0.00340052,4.05,0,0
0.010664434,0.0007834462,-0.0018900434000000002,0.0005107822,0.0027718222000000002,4.051,0,0
0.010078114,0.0013269042,-0.001535233,2.2970599999999912e-05,0.0022449476400000002,4.052,0,0
0.009522302,0.0015983579999999998,-0.0010131788,-0.00022536300000000004,0.0014895846400000002,4.053,0,0
0.00799239,0.0014551328,3.388520000000006e-05,-0.0006392870000000001,0.00013328664000000003,4.054,0,0
0.0033915179999999996,0.0010774602,0.0009608112000000001,-0.0009851898,-0.00085113536,4.055,0,0
-0.0009601480000000003,0.0006583954,0.0014378046000000002,-0.0011272188000000002,-0.00123770156,4.056,0,0
-0.003516544,0.0002874266,0.0019858862,-0.0009300034,-0.0018858990000000001,4.057,0,0
-0.007005196,-0.00017262160000000004,0.002168674,-0.0007198676,-0.002729426,4.058,0,0
-0.009945716,-0.0004982844,0.0018556760000000001,-0.0006695674000000001,-0.00324857,4.059,0,0
-0.009657586000000001,-0.0006557040000000001,0.001297795,-0.00012422139999999994,-0.0032833120000000005,4.06,0,0
-0.008865950000000001,-0.0008153992000000001,0.0008911774000000001,0.0004170786000000001,-0.003171058,4.061,0,0
-0.00853135,-0.0008277492000000001,0.0003610954,0.0007570948000000001,-0.0026543506000000004,4.062,0,0
-0.005417984000000001,-0.0006286850000000001,-0.0004902046,0.0009411818000000002,-0.0009360465999999999,4.063,0,0
-0.0010696020000000002,-0.0002488036000000001,-0.0012490366,0.0007355404,0.0007362894,4.064,0,0
0.0014541019999999999,0.0002241746,-0.0018683716,0.00021336639999999996,0.0018168074000000003,4.065,0,0
0.004087706,0.0004515736,-0.002226888,-0.0001356288,0.0032677254,4.066,0,0
0.007513524000000001,0.0004514534,-0.0022953340000000004,-0.0005837883999999999,0.0042702700000000005,4.067,0,0
0.008895004,0.0006964814,-0.001976126,-0.0010675584,0.0038745280000000003,4.068,0,0
0.008357818000000001,0.00082963,-0.0015761884,-0.0007437922000000001,0.0032089864,4.069,0,0
0.008258276,0.00080222,-0.0010767904,-0.00048196120000000006,0.002739060600000001,4.07,0,0
0.006269642,0.001063053,-0.00013446840000000003,-0.000693714,0.0012877026,4.071,0,0
0.0017886340000000003,0.001303653,0.0010803736000000001,-0.0004905808000000001,-0.0005987254,4.072,0,0
-0.0016848319999999996,0.0011181812,0.0025864296,-0.000313048,-0.0017674714000000002,4.073,0,0
-0.004618736,0.0008625560000000001,0.004071666000000001,-0.0006508632000000001,-0.0026821698,4.074,0,0
-0.008174036,0.0004831484,0.00523032,-0.0003056462,-0.003946674000000001,4.075,0,0
-0.009781184,-0.00025557360000000003,0.005828372,0.0005913778000000001,-0.004504600000000001,4.076,0,0
-0.008776806,-0.0007908986000000002,0.005050538,0.0008780526,-0.0034190512,4.077,0,0
-0.007886692,-0.0012697168,0.0024367959999999998,0.0010057052,-0.0024201232000000002,4.078,0,0
-0.006106931,-0.0018366956000000002,-0.0007488880000000001,0.0015872594,-0.0015468186,4.079,0,0
-0.001785137,-0.001995358,-0.002886444,0.0018453554,0.00027223140000000003,4.08,0,0
0.0019535110000000002,-0.0017110888000000002,-0.00360873,0.0014618574,0.0016347474000000003,4.081,0,0
0.004328045,-0.0011011708,-0.0033232920000000003,0.0013774954,0.0018918446000000004,4.082,0,0
0.007650811,-0.00023826279999999988,-0.0019883134,0.0013331224,0.0023985526,4.083,0,0
0.010337797999999999,0.0006732172000000001,-0.0007492413999999999,0.0003048844,0.0027173320000000003,4.084,0,0
0.009819027999999999,0.0016796712000000003,-0.0011965574000000001,-0.0010510576,0.0018443458000000003,4.085,0,0
0.008763026,0.0023727780000000003,-0.0025122634,-0.0012374506,0.0014931088000000002,4.086,0,0
0.008111700000000001,0.0023344976000000003,-0.0034065033999999997,-0.0012352918,0.0013938248000000002,4.087,0,0
0.004316752,0.0020970896,-0.003307618,-0.0016334802000000002,0.0001965148,4.088,0,0
-0.0006295680000000003,0.0017709696000000003,-0.002318406,-0.0011219348,-0.0008734612000000001,4.089,0,0
-0.0035212240000000003,0.0007947176000000001,-0.0005566920000000001,-0.00041708120000000004,-0.0012325270000000002,4.09,0,0
-0.006592182,-0.0003417284,0.000969386,-0.0006272196,-0.002001042,4.091,0,0
-0.01007588,-0.00108274,0.001708706,-0.0010460404,-0.002900556,4.092,0,0
-0.01078916,-0.0019095880000000003,0.0016372665000000002,-0.0008190380000000001,-0.002689612,4.093,0,0
-0.009442904000000002,-0.002686806,0.0011564959,-0.0004430674000000001,-0.0019900280000000005,4.094,0,0
-0.008295656,-0.003035354,0.0010345019,-0.0002777244000000001,-0.0016280766000000002,4.095,0,0
-0.00560524,-0.0027911000000000004,0.0004730219,-0.00018543840000000004,-0.0010618936000000002,4.096,0,0
-0.001069338,-0.0023325326,-0.0001320841,-5.459180000000002e-05,-0.00011060760000000002,4.097,0,0
0.002475902,-0.0017814046,-0.0003388886,7.610979999999999e-05,0.0006745524000000001,4.098,0,0
0.0050911559999999995,-0.001071312656,-0.000564202,-5.9500199999999997e-05,0.0015593824,4.099,0,0
0.0083121,-0.000543031656,-0.0008333216,-1.1159600000000048e-05,0.002562913,4.1,0,0
0.010422724,8.697834399999999e-05,-0.0007511234000000002,0.00014879599999999998,0.003149158,4.101,0,0
0.01004807,0.000453066944,-0.0005864726,-2.0716600000000038e-05,0.0030837399999999997,4.102,0,0
0.009508926000000001,0.000502500544,-0.0005597396000000001,-0.00022836260000000004,0.00257817,4.103,0,0
0.008426934,0.0008024166,5.100040000000002e-05,-0.0004130614,0.00170298,4.104,0,0
0.004496438,0.0010962256,0.000784886,-0.0007305270000000001,0.000425932,4.105,0,0
0.0003483579999999998,0.0010039034000000001,0.0009945498,-0.0006243592000000001,-0.00045836000000000005,4.106,0,0
-0.002643738,0.000800747,0.0012148706,3.194879999999996e-05,-0.001031542,4.107,0,0
-0.0065900260000000006,0.0006007862,0.0017070956000000003,0.0004751448,-0.0016081860000000002,4.108,0,0
-0.010201644000000001,4.357619999999999e-05,0.0017693596,0.0010672456,-0.002119136,4.109,0,0
-0.010705324000000002,-0.0006954458000000001,0.0013424536000000002,0.0019376640000000002,-0.0020895840000000002,4.11,0,0
-0.010103536000000002,-0.0012748056000000002,0.0010427834000000002,0.0021120640000000003,-0.00151584,4.111,0,0
-0.009564018,-0.0015226902000000002,0.0007789990000000002,0.001971992,-0.00089683,4.112,0,0
-0.006405884000000001,-0.0015256796000000003,0.0001602450000000001,0.002028822,0.0002760280000000001,4.113,0,0
-0.002138714,-0.0013719354,-0.0002920546,0.0016853628000000002,0.0015774860000000001,4.114,0,0
0.0007551820000000001,-0.0009602266,-0.0007210406,0.0009041130000000001,0.002296498,4.115,0,0
0.003958594,-0.0005338252000000001,-0.0012378984,8.48100000000007e-06,0.002440556,4.116,0,0
0.007744704000000001,-6.326019999999995e-05,-0.0011883001999999998,-0.000995761,0.0022210116,4.117,0,0
0.009270078000000001,0.0008767124,-0.0009262378000000001,-0.0018991570000000003,0.0014579248000000003,4.118,0,0
0.008935614000000001,0.0018353382,-0.0010691182,-0.002204542,0.0008075416,4.119,0,0
0.008804168000000001,0.0023013994,-0.0010713564,-0.00209291152,0.0007118936000000001,4.12,0,0
0.006854791200000001,0.002599062,-0.0004035960000000001,-0.00188897352,-7.049839999999992e-05,4.121,0,0
0.0023734372,0.00255147,-1.1414000000000498e-06,-0.0016954915200000002,-0.00118131,4.122,0,0
-0.0012827588000000004,0.001774154,0.00012071759999999994,-0.00196347752,-0.0018699392,4.123,0,0
-0.0038497408,0.0010913618,0.0006396516,-0.00231613332,-0.002759176,4.124,0,0
-0.0072210548000000005,0.0008572948,0.0010865798000000001,-0.002057216,-0.0037256620000000002,4.125,0,0
-0.009465178000000001,0.0002492968,0.0010049592,-0.0011489,-0.0035310140000000003,4.126,0,0
-0.009092502,-0.0004208312000000001,0.0007466091999999999,0.00025970599999999985,-0.0019435799999999999,4.127,0,0
-0.008242996,-0.0006955912,0.0008153927999999999,0.0018240420000000001,-0.0005654060000000002,4.128,0,0
-0.007530498,-0.001313141,0.0005930394000000001,0.002799504,0.00046166799999999993,4.129,0,0
-0.004292632,-0.002034736,6.487339999999999e-05,0.002795108,0.001673014,4.13,0,0
-0.0010629640000000007,-0.002168024,-0.00021774840000000006,0.0021829139999999998,0.002333696,4.131,0,0
0.0010044159999999997,-0.001995104,-0.0005496704000000001,0.001390544,0.002218158,4.132,0,0
0.003857578,-0.001666717,-0.0009297774,0.0007654648,0.0020738,4.133,0,0
0.006811516,-0.0012605546,-0.0012452740000000002,0.00021448200000000005,0.0021035700000000004,4.134,0,0
0.0076701140000000004,-0.0007656498,-0.0011376638,9.244800000000003e-06,0.0009132400000000001,4.135,0,0
0.0069231480000000005,-0.00019955079999999997,-0.0010120818,0.0002233424,-0.0002470320000000001,4.136,0,0
0.007359144000000001,0.0002732252,-0.0006939552,0.000197406,-0.0015495580000000001,4.137,0,0
0.0037002140000000003,0.0005803542,-0.00010455319999999997,8.15328e-05,-0.0028461800000000002,4.138,0,0
-0.00025577399999999985,0.0012771318000000002,0.0006797268,0.0001279976,-0.0010315519999999998,4.139,0,0
-0.004611918,0.001989879,0.0011928166,7.737247999999998e-05,0.002305718,4.14,0,0
-0.006611875999999999,0.002088808,0.00031847860000000006,-0.0005717091200000001,0.004811552,4.141,0,0
0.0032738460000000004,0.0026090799999999997,-0.0009754639999999999,-0.0015502907200000001,0.007131106,4.142,0,0
0.015939656,0.003326672,-0.001970176,-0.0024875303200000004,0.008211538,4.143,0,0
0.023561584,0.00400453,-0.0025755864,-0.0033385203200000002,0.004870981999999999,4.144,0,0
0.028582523999999998,0.004825724,-0.0025902723999999995,-0.003693528,5.236200000000024e-05,4.145,0,0
0.02780674,0.005275986,-0.0008832923999999999,-0.0034444740000000003,-0.003811632,4.146,0,0
0.01092876,0.0049192260000000005,0.0016827036,-0.002496807,-0.00811631,4.147,0,0
-0.009873660000000003,0.00342195,0.0033607456000000003,-0.0009083809999999999,-0.011257756,4.148,0,0
-0.02549304,0.0009639260000000001,0.004459582,0.000694845,-0.01239606,4.149,0,0
-0.03796696000000001,-0.001930648,0.005258952000000001,0.001957243,-0.01238994,4.15,0,0
-0.044604740000000004,-0.004470170000000001,0.005155984000000001,0.003217331,-0.011648566,4.151,0,0
-0.0446908,-0.006583472000000001,0.0037235526000000004,0.0043764220000000005,-0.008832093200000002,4.152,0,0
-0.03685709,-0.008132754,0.0022746926000000007,0.005180068,-0.0048975471999999996,4.153,0,0
-0.025937408000000002,-0.008733974000000002,0.0006547066000000001,0.005452304000000001,-0.0011845372000000003,4.154,0,0
-0.010800648,-0.008276618000000001,-0.0017292674,0.0051507260000000004,0.0031334428000000004,4.155,0,0
0.007209651999999999,-0.006903874,-0.0039143194000000004,0.0042673956,0.0072140688,4.156,0,0
0.023035352000000002,-0.00473024,-0.005132442,0.002749145600000001,0.009781856,4.157,0,0
0.035516482,-0.00154037,-0.005818894,0.0011585416,0.01091425,4.158,0,0
0.04408298,0.0017551020000000004,-0.006108140000000001,-0.00045187639999999996,0.011391611999999999,4.159,0,0
0.046370839999999997,0.004577462,-0.005098986000000001,-0.0022042144,0.010207974,4.16,0,0
0.04046572,0.006792384,-0.0032021360000000004,-0.0033555520000000004,0.0071659900000000006,4.161,0,0
0.030264061999999998,0.00806544,-0.00142672,-0.00392619,0.00393324,4.162,0,0
0.016742542,0.008372234000000001,0.0002982360000000001,-0.004646188,0.0005516920000000001,4.163,0,0
-7.637800000000194e-05,0.007422148000000001,0.00231238,-0.00468141,-0.0034251000000000004,4.164,0,0
-0.016276398,0.00540292,0.004088214,-0.0036524128,-0.006279046000000001,4.165,0,0
-0.028218758000000004,0.0029899840000000007,0.005000432,-0.0024872516,-0.007073286000000001,4.166,0,0
-0.03648018,0.00023330200000000034,0.005430068,-0.0011608156000000001,-0.0075338060000000005,4.167,0,0
-0.040793380000000004,-0.0027481700000000003,0.005317255999999999,0.0003683924,-0.006959296,4.168,0,0
-0.037903820000000005,-0.004945576,0.004016967599999999,0.0015580384,-0.0040970139999999995,4.169,0,0
-0.02988855,-0.006445902,0.0023624608,0.0021036272,-0.0006751700000000001,4.17,0,0
-0.019540830000000002,-0.0072359419999999995,0.001093568,0.0023920340000000003,0.002297276,4.171,0,0
-0.006056490000000002,-0.007048564,-5.373600000000003e-05,0.0025818380000000004,0.0055446060000000005,4.172,0,0
0.008714449999999999,-0.006058118,-0.0009920880000000001,0.0020777846000000003,0.008213444,4.173,0,0
0.02082509,-0.00416005,-0.0015023776,0.0012073826,0.009190506000000001,4.174,0,0
0.02946998,-0.0016968460000000001,-0.0022670568,0.0004776165999999999,0.009220468,4.175,0,0
0.03535166,0.000749478,-0.0041424240000000005,-0.00044658940000000014,0.008578302,4.176,0,0
0.03526722,0.002890246,-0.005509340000000001,-0.0016685154000000003,0.0065825836000000006,4.177,0,0
0.029323518,0.004770656,-0.005107444,-0.0026829140000000002,0.0036601096000000006,4.178,0,0
0.02124333,0.005593552,-0.00396785,-0.0031370740000000005,0.0009572356000000005,4.179,0,0
0.010045130000000001,0.0056258060000000006,-0.002045944,-0.0033252080000000005,-0.0018929643999999997,4.18,0,0
-0.003829009999999999,0.005226786000000001,0.001081006,-0.0030769360000000006,-0.0047400464,4.181,0,0
-0.015796690000000002,0.0039658358,0.003669124,-0.0018647520000000008,-0.006160088,4.182,0,0
-0.024388968,0.0020530358000000006,0.00443982,-4.62040000000001e-05,-0.006556734,4.183,0,0
-0.03094468,0.0001215738000000002,0.0041541056,0.001345228,-0.00670752,4.184,0,0
-0.032914940000000004,-0.0015295922,0.0029473522000000004,0.002503536,-0.005876828,4.185,0,0
-0.0285813,-0.0032382962000000004,0.0013261582,0.003558368,-0.0038867320000000004,4.186,0,0
-0.021668678,-0.004354252,-0.00021463579999999991,0.0033946960000000004,-0.001408662,4.187,0,0
-0.01305264,-0.004594568,-0.0017112958,0.0025305226000000005,0.0012850720000000004,4.188,0,0
-0.0013282000000000007,-0.0042190579999999995,-0.0027729774000000004,0.0020906368,0.003939336,4.189,0,0
0.01031372,-0.0034092772,-0.0031349060000000007,0.0017479328,0.0058795440000000004,4.19,0,0
0.01894962,-0.0023081672,-0.00310046,0.0008780799999999999,0.007131048,4.191,0,0
0.025665578,-0.0010603058,-0.0032015280000000004,-0.00011076400000000007,0.007078598000000001,4.192,0,0
0.02983364,0.00023514820000000014,-0.0026596096000000005,-0.0004285206,0.005907626000000001,4.193,0,0
0.028373560000000003,0.0017526802,-0.0014259136,-0.0006407208000000001,0.004230540600000001,4.194,0,0
0.022646424000000002,0.0034320154,-0.0005606396000000001,-0.0012747808,0.0015367146000000004,4.195,0,0
0.015326672,0.0046717434,0.00044287640000000006,-0.0014182570000000002,-0.0015715554,4.196,0,0
0.0053281119999999986,0.005166004,0.0020454304,-0.001150383,-0.0045905174,4.197,0,0
-0.005971248,0.00499162,0.002985726,-0.0010716838000000002,-0.0069497394,4.198,0,0
-0.014806788000000001,0.0039236342,0.0032244580000000004,-0.0005258398000000001,-0.008114286,4.199,0,0
-0.020842772000000002,0.0020673201999999997,0.0034289660000000007,0.0002870422,-0.00819142,4.2,0,0
-0.025433180000000003,3.053219999999985e-05,0.0031977900000000007,0.0010650152,-0.007971832000000002,4.201,0,0
-0.025653500000000003,-0.0015030498,0.0024618400000000003,0.0023340292000000006,-0.006670764,4.202,0,0
-0.021296842,-0.0028098638000000004,0.00171081,0.003255020000000001,-0.0043397212000000004,4.203,0,0
-0.016244324,-0.003853958,0.0009467524000000001,0.0031613080000000003,-0.0027124832000000004,4.204,0,0
-0.008741504,-0.004271738,-0.0003625416000000001,0.002908642,-0.0009540231999999999,4.205,0,0
0.0014353159999999994,-0.0038666100000000004,-0.0016389676,0.0022713522,0.0012230828000000002,4.206,0,0
0.010095076000000001,-0.0027287820000000003,-0.0022492116,0.0005986942,0.0026705828,4.207,0,0
0.016593978000000002,-0.0012862860000000002,-0.0026370356,-0.0011496098,0.0031053600000000006,4.208,0,0
0.022286360000000005,0.00022092199999999992,-0.00298224,-0.0022300538000000003,0.0035396200000000003,4.209,0,0
0.024410780000000003,0.001521662,-0.0023174998,-0.0032841198000000005,0.0033333620000000003,4.21,0,0
0.021618174,0.0025478420000000002,-0.0010983818,-0.004257208,0.001697274,4.211,0,0
0.017197998,0.0030327640000000003,-0.0004716738,-0.0038190580000000006,0.0006390080000000002,4.212,0,0
0.011201114,0.0030374100000000004,0.0005350862,-0.0026531132,0.00012464959999999988,4.213,0,0
0.002575513999999999,0.0025422657,0.0019558082,-0.0020398564,-0.0012649624,4.214,0,0
-0.005847066000000001,0.0018686303000000001,0.0027091520000000003,-0.0011701303999999998,-0.0020684124,4.215,0,0
-0.0118015,0.0009955443,0.002985484,-8.58162e-05,-0.0013541384000000003,4.216,0,0
-0.016627704,-0.0003374997000000001,0.0029511506000000002,0.0003659836,-0.0013467324000000001,4.217,0,0
-0.02013862,-0.0015101417000000002,0.0020144846,0.0007359308,-0.0018173120000000004,4.218,0,0
-0.019438860000000002,-0.0024663874000000006,0.0008879486,0.001373742,-0.0006631100000000002,4.219,0,0
-0.015705506000000004,-0.0032336660000000005,-5.097739999999996e-05,0.0014789982,0.0006707,4.22,0,0
-0.011323466,-0.003362192,-0.0012832914,0.001556497,0.001570858,4.221,0,0
-0.004951666,-0.00310051,-0.002067928,0.0016209542,0.0030663920000000002,4.222,0,0
0.002689894,-0.0025018913999999997,-0.00218256,0.0009169212000000001,0.00444066,4.223,0,0
0.008571954,-0.0011404254,-0.002194496,0.00017433620000000002,0.004583368,4.224,0,0
0.012520960000000001,1.322259999999995e-05,-0.0022218480000000002,-0.0002918920000000001,0.003983148,4.225,0,0
0.015673760000000002,0.0007971986,-0.002007898,-0.0009276509999999999,0.0032629894,4.226,0,0
0.01597472,0.0018585306000000002,-0.00138462802,-0.00189783,0.0015438994,4.227,0,0
0.013081388000000001,0.002758004,-0.0006557920200000001,-0.0026359670000000003,-0.0007103446000000001,4.228,0,0
0.0099054968,0.00311912,-0.0003023734200000001,-0.003169068,-0.0022623006,4.229,0,0
0.0053602928,0.003040318,0.00041792657999999996,-0.0035493340000000003,-0.0032281706,4.23,0,0
-0.0015851872000000001,0.0025427208000000003,0.0015463765800000002,-0.003404354,-0.0044019260000000004,4.231,0,0
-0.007503947200000001,0.0015448728000000001,0.0018743246,-0.0023506260000000006,-0.0049658260000000004,4.232,0,0
-0.0109704152,0.0002416448,0.0018719086,-0.000741426,-0.004416725999999999,4.233,0,0
-0.013995004000000002,-0.0011514272,0.001961224,0.0005041680000000002,-0.0041744780000000006,4.234,0,0
-0.015258820000000003,-0.0021099712,0.0013994864000000003,0.001846538,-0.0038099580000000004,4.235,0,0
-0.012587886000000001,-0.0027883440000000003,0.00045280440000000004,0.0030845380000000004,-0.00245294,4.236,0,0
-0.0088757486,-0.003255398,0.0004728624000000001,0.0033903460000000002,-0.0010464740000000001,4.237,0,0
-0.0054481986,-0.003092636,0.0007228384000000001,0.0028831100000000004,0.00016137999999999992,4.238,0,0
-0.00014959860000000012,-0.0026874940000000003,0.0010015664000000003,0.002002076,0.0017976340000000002,4.239,0,0
0.005571561400000001,-0.0017878240000000004,0.0024991780000000003,0.0007790120000000002,0.002951856,4.24,0,0
0.009246227400000001,-0.00042650199999999994,0.004055822000000001,-0.00014190800000000005,0.0033893060000000003,4.241,0,0
0.012004210000000001,0.0007263400000000001,0.004156480000000001,-0.0004063720000000001,0.004104778,4.242,0,0
0.01440224,0.001512958,0.002426402,-0.0004664216000000001,0.0044460920000000004,4.243,0,0
0.013611084000000002,0.0018161542000000002,-0.00021639800000000046,4.828639999999995e-05,0.0037305520000000003,4.244,0,0
0.010344917600000001,0.0013881042000000003,-0.0038246420000000005,0.0010155404,0.002695044,4.245,0,0
0.007167401600000001,0.0006921986000000001,-0.0071220100000000015,0.0013868204000000001,0.0015784520000000002,4.246,0,0
0.0025875536000000005,0.0004374660000000002,-0.007794694000000001,0.0011251282,-0.0001640500000000001,4.247,0,0
-0.0030181864000000005,0.00050236,-0.006342726000000001,0.0011954128000000001,-0.001984898,4.248,0,0
-0.006995270400000001,0.0008768958,-0.003823524,0.0010857782000000002,-0.002844776,4.249,0,0
-0.009424784,0.0011890613999999999,-0.0009531780000000004,0.0006081080000000001,-0.002819242,4.25,0,0
-0.012050588000000001,0.0012140514,0.0012828360000000003,0.0004713082,-0.0025566042,4.251,0,0
-0.0126405,0.0009622997999999998,0.0015719844000000001,0.0005007836,-0.0017721906,4.252,0,0
-0.01018018,0.00042598680000000005,0.0012261082,0.0002124386,-0.0006977061999999998,4.253,0,0
-0.0079206206,0.0003691428,0.0008605262000000001,3.6974e-05,-0.000235846,4.254,0,0
-0.0050826846,0.0005871812000000001,-5.214379999999994e-05,0.00047736219999999996,0.0004993420000000001,4.255,0,0
-0.00010204459999999969,0.0004367268,-0.0006299238,0.00053861,0.0015739182000000002,4.256,0,0
0.0044006354,0.00041510980000000015,-0.0008599558000000001,7.68508e-05,0.0020469026,4.257,0,0
0.0068627754,0.0004568712,-0.000868037,-0.0003558092000000001,0.0027233822,4.258,0,0
0.009519316,-0.00020312879999999996,-0.0007646042000000001,-0.000678128,0.004143966000000001,4.259,0,0
0.0112645,-0.0007827488,-3.317020000000002e-05,-0.0016448320000000002,0.004439164000000001,4.26,0,0
0.009721762000000002,-0.0005547628,0.0007209258000000001,-0.0026732640000000003,0.003040864,4.261,0,0
0.0075638048,-0.0005391269999999999,0.0009609154,-0.0024796646,0.002121886,4.262,0,0
0.00539039888,-0.00046075139999999994,0.0015111888000000002,-0.002138979,0.0009592640000000001,4.263,0,0
0.00121055688,0.00022187259999999998,0.002192682,-0.0017214041,-0.0014944020000000001,4.264,0,0
-0.00317564312,0.00039566719999999995,0.0024661880000000002,-0.0006772500999999999,-0.0028920400000000002,4.265,0,0
-0.00517516712,7.362719999999995e-05,0.00252665,0.0004207079,-0.0026142478,4.266,0,0
-0.00678893392,-3.912140000000001e-05,0.002862266,0.0008388865,-0.0026519857999999998,4.267,0,0
-0.008735034,-0.0005347134000000002,0.002783096,0.0010597781,-0.0029935118,4.268,0,0
-0.00769589,-0.0016077734000000002,0.0017666520000000003,0.0010950424000000002,-0.0022104698000000003,4.269,0,0
-0.005127924000000001,-0.001993316,0.0004479480000000001,0.0005367146,-0.0014539840000000002,4.27,0,0
-0.004050342000000001,-0.0017757288000000001,-0.000688682,0.0004389346,-0.0013564941999999998,4.271,0,0
-0.0018674580000000004,-0.0016152924,-0.0018343959999999999,0.00045328260000000004,-0.0006336961999999999,4.272,0,0
0.0018039800000000002,-0.00125490232,-0.002625292,0.0002658806,0.0006692058,4.273,0,0
0.003336158,-0.0004417963200000001,-0.0025311481999999996,0.0003580482,0.0011720566,4.274,0,0
0.003955702,0.00039867168000000007,-0.0020556968000000004,0.00036832340000000007,0.0008687012,4.275,0,0
0.005922214,0.0007376784800000001,-0.0012943042,-0.0001555366,0.0009466588000000002,4.276,0,0
0.006304584000000001,0.0010968200800000002,-0.00036818800000000003,-0.0005950266,0.0007617970000000001,4.277,0,0
0.004360070000000001,0.001443908,0.00016231820000000001,-0.0004352898,0.000222892,4.278,0,0
0.00340033,0.00158362,0.00047999500000000004,-0.00047088100000000003,0.0003581212,4.279,0,0
0.0021307360000000007,0.001637018,0.0010344176000000001,-0.0006121124000000001,0.0006166834000000001,4.28,0,0
-0.001073172,0.0017060320000000001,0.001107711,-0.0003384664,0.0001260258,4.281,0,0
-0.003236908,0.001719438,0.0009938304000000002,0.0001313876,-0.00010976640000000002,4.282,0,0
-0.004095072,0.0012227412000000001,0.0013847182000000001,0.0005255196000000001,0.00016966260000000002,4.283,0,0
-0.005323766,0.0005359452,0.0012972335999999998,0.0009603540000000001,-0.00015787560000000002,4.284,0,0
-0.00588872,0.0001409348,0.0007117684,0.001725702,-0.0002665581999999999,4.285,0,0
-0.0046781,-0.00034758280000000004,0.00017907840000000008,0.002065182,0.0004828018000000001,4.286,0,0
-0.0036363922,-0.000697248,-0.00016923919999999997,0.0017631341999999998,0.0005407336200000001,4.287,0,0
-0.0028278442000000004,-0.0003956784,-0.0008075832,0.0012296948,-4.988380000000013e-06,4.288,0,0
-0.0005782382000000001,-0.00011942800000000002,-0.0014258632,0.0003910888,0.00042527582,4.289,0,0
0.0016442818,-0.00017790420000000006,-0.00158734,-0.0002566322,0.00061689002,4.29,0,0
0.0025400878,-8.757160000000001e-05,-0.001543064,-0.00057046706,1.9082019999999993e-05,4.291,0,0
0.0034319520000000003,-7.061440000000001e-05,-0.00149277,-0.00058800786,0.00018526840000000002,4.292,0,0
0.0052516740000000004,4.768280000000001e-05,-0.0016649500000000001,-0.00061736446,0.000540853,4.293,0,0
0.005253978000000001,0.0004659944,-0.00112752014,-0.0007919764600000001,-0.00019312099999999998,4.294,0,0
0.0037153766000000005,0.0006872446,-0.00035910814000000006,-0.0009954294600000003,-0.0008675472,4.295,0,0
0.003758930600000001,0.0008646922000000001,0.00011920386,-0.00100017425,-0.0007932396,4.296,0,0
0.003088984400000001,0.0007342296,0.00100373786,-0.0011729096500000002,-0.0014105498000000001,4.297,0,0
0.0003577964000000002,0.0004847666000000001,0.00191756986,-0.00138147165,-0.0022614584,4.298,0,0
-0.0012067736,0.000310403,0.00222139,-0.00082933485,-0.0018271746,4.299,0,0
-0.0016303122,-0.0004799366,0.002210856,-0.00073117885,-0.0013454626000000002,4.3,0,0
-0.0033882962,-0.0012483772000000002,0.002249646,-0.0006959876,-0.0014094802000000001,4.301,0,0
-0.004353796,-0.0012919168000000002,0.001569272,0.0003107164000000001,-0.0003046081999999999,4.302,0,0
-0.00333187,-0.0016635918000000001,0.0004775860000000001,0.0011111504000000001,0.0012179838000000002,4.303,0,0
-0.0033478759999999996,-0.0022786641999999998,-0.00045034199999999995,0.0009239060000000002,0.0012307270000000003,4.304,0,0
-0.003190108,-0.0019372062,-0.0014843880000000001,0.0011895484000000003,0.001111426,4.305,0,0
-0.0009429900000000001,-0.0013520568,-0.0021346880000000005,0.0016297568000000003,0.0018544,4.306,0,0
0.0006494660000000001,-0.0012295936,-0.0020858252,0.0010418220000000002,0.0018824800000000002,4.307,0,0
0.0008593174000000001,-0.00106827,-0.001692839,0.000526151,0.001281792,4.308,0,0
0.0019429734000000003,-0.0007153386,-0.0011455112000000002,0.0001816006,0.0012654922800000002,4.309,0,0
0.0033061714000000002,-0.00042382899999999997,-0.0003105772000000001,-0.0005280378000000001,0.0017106552800000001,4.31,0,0
0.0026571034,0.0001583356000000001,0.0003174168,-0.0016493538,0.0011124418800000002,4.311,0,0
0.00189517726,0.0007502986000000001,0.000774528,-0.0023526849999999998,-0.00018707811999999993,4.312,0,0
0.0025520738600000002,0.0008440494000000001,0.0016479398,-0.0024198984000000003,-0.00061485612,4.313,0,0
0.0022991158600000005,0.00129373,0.00272602,-0.0018786262,-0.0007777626,4.314,0,0
0.0012116624600000002,0.0017751484,0.0033348060000000005,-0.0009231381999999998,-0.0009392314,4.315,0,0
0.0012438944600000003,0.0013025964000000002,0.0031369784000000005,-0.00022395400000000006,-0.0005596820000000001,4.316,0,0
0.001336938,0.0007413300000000001,0.0028993244,0.00028445400000000007,-0.00029819000000000004,4.317,0,0
-9.75180000000001e-05,0.0007570454000000001,0.0011925864000000004,0.0005132054000000001,-0.000492342,4.318,0,0
-0.0008243880000000001,0.00033597480000000006,-0.0023616016,0.0005938164000000001,-0.0005688628,4.319,0,0
-0.0007697988000000001,-0.0004523372,-0.0041484056,0.0006299664000000001,-0.0011310159999999999,4.32,0,0
-0.0022855908,-0.0006601532,-0.004196107,0.0009226362000000001,-0.001922832,4.321,0,0
-0.0032855682,-0.0004785288,-0.004743941000000001,0.0011488242,-0.0017765279999999999,4.322,0,0
-0.0024953952,-0.0003053214,-0.0037283728,0.0013202912,-0.0012839968000000002,4.323,0,0
-0.0023217292000000003,-0.00016982299999999996,-0.000982415,0.001365998,-0.0013766648000000002,4.324,0,0
-0.0026943809999999996,0.00027542820000000005,3.766499999999997e-05,0.000767792,-0.0014340128,4.325,0,0
-0.0013814305999999999,0.00042826600000000006,-0.00011216460000000002,0.0005456922,-0.0006349228000000001,4.326,0,0
-0.00010229659999999997,4.8679999999999405e-06,9.392599999999995e-05,0.0008988442000000001,0.00011524119999999999,4.327,0,0
-0.0002917884,-0.00014363900000000004,0.00011536800000000001,0.0010934642,0.00039602999999999996,4.328,0,0
0.0003932796000000001,-8.702640000000003e-05,-0.00012773420000000002,0.0012295882,0.001267074,4.329,0,0
0.0012767476,-0.00018430080000000004,-5.0475799999999995e-05,0.0015536538000000002,0.0020980260000000002,4.33,0,0
0.0007341792,-0.00015605400000000003,0.0004965108,0.0012594791999999998,0.0016976798,4.331,0,0
0.0004641631999999999,0.00018011320000000002,0.0007164658000000001,0.0005125240000000001,0.0011438278000000003,4.332,0,0
0.001169866,0.0004079954,0.0008329776,-0.00019363800000000002,0.0009227932000000002,4.333,0,0
0.0009854400000000002,0.00026923,0.001487582,-0.0009394119999999999,0.0003197962,4.334,0,0
0.00028555400000000004,1.8511999999999988e-05,0.0020654356000000002,-0.0008393816,-9.909699999999999e-05,4.335,0,0
0.0008401300000000001,-9.541959999999998e-05,0.0023634136,-0.0007048639999999999,0.0002664712,4.336,0,0
0.0005728216000000001,-0.0003009686,0.002880872,-0.0010508548,0.0005158192,4.337,0,0
-0.0013460004,-0.0005021452000000001,0.0030482459999999997,-0.0010438848,0.0003180272,4.338,0,0
-0.0016959569999999999,-0.0006350696,0.0026320671999999997,-0.0009643508,0.00040417459999999997,4.339,0,0
-0.0008617309999999997,-0.0007480544000000001,0.0016561531999999997,-0.0012056204000000003,0.0005595417999999999,4.34,0,0
-0.0014913729999999998,-0.0005844162000000001,-0.00011446680000000019,-0.0012966968,0.0002632928,4.341,0,0
-0.0017704005999999999,-0.0003123466,-0.0016541528000000002,-0.0009851908,-1.0118400000000005e-05,4.342,0,0
-0.0001316846,-0.00016715319999999995,-0.0026300508,-0.0008030396000000001,0.0002820782,4.343,0,0
0.000213138,-7.572099999999996e-05,-0.0033755879999999997,-0.0006963156000000001,0.0003010176,4.344,0,0
-0.00068207,-1.6629999999999466e-06,-0.0032667654,-0.0005916954000000001,5.751899999999999e-05,4.345,0,0
0.00047940800000000007,-0.0002730182,-0.0022522458000000006,-0.0004645416360000001,0.000503168,4.346,0,0
0.00156398,-0.0005790098000000001,-0.0014245942,-0.00022156643600000005,0.0007754152000000001,4.347,0,0
0.00099524,-0.000721437,-0.0010851162,-6.303943599999998e-05,0.00042284600000000005,4.348,0,0
0.00157157,-0.0008349474000000001,-0.0010195121999999998,9.793916400000001e-05,0.0003302158000000001,4.349,0,0
0.003011426,-0.0007898146,-0.0011738488,0.0005403545640000001,0.00017286240000000005,4.35,0,0
0.002545932,-0.0004405186,-0.0011601062,0.000920552,-0.0008765976,4.351,0,0
0.0019577482,0.0001847932,-0.0011741307999999998,0.0006773168,-0.0016227976,4.352,0,0
0.0029614802000000003,0.0005236492,-0.0005979408,0.00029324860000000006,-0.0017031524,4.353,0,0
0.0020563444,0.0010301148000000002,0.0010936492,-0.00012566599999999986,-0.002176762,4.354,0,0
-0.0003527716000000001,0.001705822,0.0026647672000000002,-0.0008411720000000001,-0.002061101,4.355,0,0
-0.0010543476,0.001918328,0.0038976130000000003,-0.0011853360000000002,-0.00138853724,4.356,0,0
-0.0015219118000000002,0.0015740481999999998,0.00500631,-0.001291304,-0.0014384052400000001,4.357,0,0
-0.0031515738,0.0009765662000000002,0.0055144799999999996,-0.0011756842,-0.00140630764,4.358,0,0
-0.0036595300000000002,0.0008405176,0.0041773266000000005,-0.0001929121999999999,-0.0005046116400000001,4.359,0,0
-0.0025141810000000003,0.0007737276000000001,0.0009270806,0.0007408398000000001,0.0001911793599999999,4.36,0,0
-0.002345869,0.0004033664000000001,-0.0018224214,0.0009355718,0.0001613675999999999,4.361,0,0
-0.002229175,0.00013127440000000007,-0.0035787854000000003,0.0012392198,0.0006784882,4.362,0,0
-0.0008013069999999999,0.0001832264,-0.0049964414,0.0016743160000000003,0.0014931346000000001,4.363,0,0
-0.00016086094379999996,4.0720200000000044e-05,-0.0048248148,0.001455514,0.0012221342,4.364,0,0
-4.784354379999998e-05,-0.00010677980000000004,-0.0027437446,0.0011039740000000002,0.0006147834000000002,4.365,0,0
0.0014050664562000003,3.0064999999999937e-05,-0.0011927718,0.0009152806000000001,0.0009606274000000001,4.366,0,0
0.0028786064562000002,0.00030838359999999995,-0.0004963378000000001,0.0006682106,0.0011503228000000001,4.367,0,0
0.0028267604562,0.0007155154,0.00035986620000000004,0.00042275460000000005,0.000348204,4.368,0,0
0.0032023504,0.00068370712,0.000421677,0.00015802140000000002,0.00022903515999999998,4.369,0,0
0.0035317800000000004,0.0007380671200000001,5.967880000000002e-05,-0.0002449434,1.9183959999999995e-05,4.37,0,0
0.0013553959999999998,0.00095186752,5.7323200000000034e-05,-0.000561036,-0.00134494204,4.371,0,0
-0.000967156,0.0007537155200000002,0.0005399712,-0.00019031400000000002,-0.00180814804,4.372,0,0
-0.0015484378,0.00046967332,0.0011915112,0.00021288200000000007,-0.00140982324,4.373,0,0
-0.0025750458,0.0001413044000000001,0.0020371932,0.00012610700000000003,-0.0014395998,4.374,0,0
-0.0039055398,-0.0004511936,0.0033475852,-0.00018424419999999998,-0.0009778988,4.375,0,0
-0.0030234320000000004,-0.0010549895999999999,0.0040143060000000005,-0.0003030222000000001,0.00041516320000000004,4.376,0,0
-0.0017427968000000003,-0.0015547223999999998,0.0033778164000000006,-0.0005064728000000001,0.0014519092,4.377,0,0
-0.0020738830000000003,-0.001712312,0.0011695164000000004,-0.0009132088000000002,0.0018549192,4.378,0,0
-0.001166471,-0.0014269617999999999,-0.0014226536000000003,-0.0007792572000000002,0.002387681,4.379,0,0
0.0009146269999999999,-0.0013691398,-0.0029118036000000003,-0.00011853720000000017,0.0030062000000000005,4.38,0,0
0.0015561232,-0.0010714818,-0.0036392424000000006,0.0004507418,0.003056634,4.381,0,0
0.002313714,-0.00042912580000000004,-0.0034805988000000004,0.0003676726000000001,0.00254499,4.382,0,0
0.004035766,-0.0002661528,-0.0018506448000000003,0.00024715260000000004,0.00245426,4.383,0,0
0.004618616,-0.00017083780000000002,0.00021617920000000011,0.00013808679999999997,0.0024562700000000004,4.384,0,0
0.0039892320000000005,0.00021140420000000004,0.0007606330000000001,-0.00022077660000000002,0.0018795942000000001,4.385,0,0
0.003998948,0.00036024040000000003,0.0007555352000000001,-0.000331935,0.0015549582,4.386,0,0
0.003501154,0.0006630344,0.0009865112,-2.2872000000000007e-06,0.0009419542000000003,4.387,0,0
0.0012179380000000002,0.0014714414000000001,0.0005513596000000002,0.0004048068,-0.0004442918,4.388,0,0
-0.00042326799999999986,0.0017875422,3.975820000000001e-05,0.0003770598,-0.0012857878,4.389,0,0
-0.0013053519999999999,0.001555871,5.271680000000002e-05,1.982520000000002e-05,-0.001688718,4.39,0,0
-0.0033423360000000004,0.0011136328,6.997040000000001e-05,-0.0006739054000000002,-0.002559838,4.391,0,0
-0.005305724,0.0002139628000000001,-0.00020961979999999997,-0.0010184488000000002,-0.0029080120000000006,4.392,0,0
-0.0050511060000000005,-0.0010597832,-0.0001722456,-0.0007837348000000001,-0.00236331,4.393,0,0
-0.004881,-0.0019925772000000002,0.00023354380000000004,-0.0005779638000000002,-0.002405178,4.394,0,0
-0.00535175,-0.0021966940000000003,0.0006128174000000001,-6.28664000000001e-05,-0.00265211,4.395,0,0
-0.003639572,-0.0017966622000000002,0.0006728700000000001,0.0009522756,-0.0017052732000000003,4.396,0,0
-0.001742524,-0.0009611362000000001,0.0007599286000000002,0.0012572952,-0.0007697412000000001,4.397,0,0
-0.0011778644000000002,-0.00033004640000000005,0.0008509660000000002,0.0007528097,-0.0008412292,4.398,0,0
0.0004103415999999999,0.0001786128,0.00022260999999999998,0.0005501999,-0.0005239354,4.399,0,0
0.0030210856,0.0004830564,-0.00031163340000000004,-3.1799500000000006e-05,-0.00018114859999999994,4.4,0,0
0.0039444575999999995,0.0003962576,-0.00030737300000000005,-0.0008325495,-0.0005154052,4.401,0,0
0.0042770316,0.000266369,-0.0006459074000000001,-0.0005125577000000001,-0.00012215519999999994,4.402,0,0
0.005217836,0.0005817512,-0.0009634734000000002,0.00027425979999999995,0.0008910728000000001,4.403,0,0
0.004155796,0.0010591860000000002,-0.0007183272,0.000605708,0.001148155,4.404,0,0
0.001660558,0.0011243286,-0.00048353580000000005,0.0011238660400000001,0.0012432906,4.405,0,0
0.00014973400000000016,0.0011177971240000002,-0.0006884498,0.0014825714400000002,0.0014894508,4.406,0,0
-0.001305696,0.000783389524,-0.0007986537999999999,0.0007024614400000001,0.0006016728,4.407,0,0
-0.003565266,2.3973524000000016e-05,-0.000482398,-0.0008791525600000002,-0.0009150332000000001,4.408,0,0
-0.004380548000000001,-0.0009637184760000001,-0.00040591556,-0.00197860456,-0.0017775592,4.409,0,0
-0.0035420608800000005,-0.0017984526760000002,-0.00034691956,-0.0022208846,-0.0017329564,4.41,0,0
-0.0035703908800000005,-0.0021949682000000003,0.00036989644,-0.0019246959999999998,-0.0015154908,4.411,0,0
-0.0033069608800000002,-0.0021173008,0.00106508644,-0.0006287119999999998,-0.0005108068,4.412,0,0
-0.00086157088,-0.0016683310000000001,0.0012265466400000003,0.0010436460000000003,0.0015286792,4.413,0,0
0.0010261711200000002,-0.0010449226000000002,0.0014170559999999999,0.001839972,0.0026574012000000003,4.414,0,0
0.0015341120000000002,-0.00011107860000000004,0.0012709628,0.0017980360000000005,0.0028312567999999997,4.415,0,0
0.0033357440000000003,0.0006802214,0.0007220344000000001,0.0012923259999999999,0.0025332128000000002,4.416,0,0
0.00545041,0.0011891642,0.0004121826,-0.00014897799999999997,0.0015228388,4.417,0,0
0.0052097,0.0016422284,3.205779999999997e-05,-0.0019728280000000003,-0.00034180120000000004,4.418,0,0
0.004637862,0.00194422,-0.000351991,-0.002793534,-0.0014191852000000002,4.419,0,0
0.004761596000000001,0.00207319,-0.0004277932,-0.00214536,-0.0010240220000000003,4.42,0,0
0.0026596900000000006,0.002116022,-0.0005233078,-0.0006456819999999999,-0.000624284,4.421,0,0
-0.0003427180000000001,0.001900422,-0.0009473400000000001,0.0008193800000000002,-0.00023654480000000005,4.422,0,0
-0.0019868060000000002,0.0015250660000000003,-0.0010752972,0.002038736,0.00031358959999999996,4.423,0,0
-0.003955710000000001,0.0010889562,-0.0007940464000000001,0.0027877564,0.0005054496,4.424,0,0
-0.006091246000000001,0.00016326420000000006,-0.0008759786000000001,0.0025347642,-0.00042106639999999997,4.425,0,0
-0.006095526000000001,-0.0006633238,-0.0009562616000000001,0.0014243055999999998,-0.0010775664,4.426,0,0
-0.005306388000000001,-0.0013809378,-0.00043925720000000004,0.0003473224000000001,-0.0010180428,4.427,0,0
-0.005230538000000001,-0.0023188178,0.00019771680000000002,-7.09652e-05,-0.0011168452,4.428,0,0
-0.0036762920000000003,-0.0027683960000000002,0.0003265748,6.964420000000004e-05,-0.00043336320000000005,4.429,0,0
-0.000941786,-0.0025564560000000004,0.0003318256,0.0001623604,0.0006649848,4.43,0,0
0.00068795,-0.002376166,0.00057608598,-0.00011935800000000002,0.0011594948,4.431,0,0
0.002399338,-0.002210168,0.0005139895799999999,-0.0006901968000000001,0.00116627,4.432,0,0
0.005447092000000001,-0.0013296888,0.00016113958000000002,-0.0010163372,0.0014556862000000002,4.433,0,0
0.007423862,-0.00045735080000000003,-1.6744219999999996e-05,-0.001381773,0.0010674894000000002,4.434,0,0
0.0071527579999999995,8.086860000000004e-05,-3.843702000000001e-05,-0.001950263,-2.1672599999999966e-05,4.435,0,0
0.007042573999999999,0.0005643566,-0.0002237928,-0.002050928,-0.00048820860000000005,4.436,0,0
0.006484706,0.0010859692,-0.0004991128,-0.001705968,-0.0012425666,4.437,0,0
0.0029812399999999996,0.0014114800000000001,-0.0004277862,-0.0012008448,-0.0018829448,4.438,0,0
-0.0005686560000000001,0.001502924,-0.00018995839999999997,-0.0005442228000000001,-0.0015863029999999998,4.439,0,0
-0.0023740260000000004,0.0015009204000000003,0.00014450520000000003,0.00017398319999999996,-0.0013665340000000002,4.44,0,0
-0.004864552000000001,0.0011768444000000002,0.0006699186,0.0007954152,-0.0017233,4.441,0,0
-0.007014824,0.0007418638,0.0010760634,0.0014598852000000002,-0.001584342,4.442,0,0
-0.0065372,-0.00010926220000000001,0.0012322988000000002,0.0016856220000000003,-0.0010094600000000002,4.443,0,0
-0.005579186000000002,-0.0007031382000000001,0.0011095272,0.00129034,-0.0010730612000000002,4.444,0,0
-0.005361414000000001,-0.00087387124,0.0007494754,0.001036241,-0.0007456421999999998,4.445,0,0
-0.0032253240000000003,-0.0010899632400000001,0.00018027739999999993,0.0011115910000000003,0.0007106918000000001,4.446,0,0
-0.000486944,-0.00110990724,-0.00036711940000000003,0.0008598074,0.0016604978000000002,4.447,0,0
0.0008186580000000001,-0.0007883328400000001,-0.0010112694,0.0003301194,0.0014496518,4.448,0,0
0.002895448,-0.00050852864,-0.0017969818,5.229400000000015e-06,0.0013818602,4.449,0,0
0.005642418,-0.0007418194,-0.001937752,-0.0005561676000000001,0.0013178736,4.45,0,0
0.00638154,-0.0005276313999999999,-0.0016581246,-0.0015216356000000001,0.0006568856000000002,4.451,0,0
0.006039676000000001,8.266460000000008e-05,-0.0014806306,-0.0017665268000000005,0.0008821636,4.452,0,0
0.006317854,0.00037900140000000004,-0.0008923794000000001,-0.0012528908000000003,0.0017899836000000002,4.453,0,0
0.0045199160000000006,0.0006004932,0.00026655860000000006,-0.0008368740000000003,0.0014737894,4.454,0,0
0.0009141180000000002,0.0011380952,0.00051278696,-0.00039688600000000005,0.000821014,4.455,0,0
-0.0014461099999999998,0.0014424692000000001,0.00046024692000000005,0.00011829800000000004,0.000402496,4.456,0,0
-0.003612494,0.0012038864,0.00182578892,0.0003315318,-0.000896114,4.457,0,0
-0.006277436,0.0010155852000000001,0.00308796372,0.00014141980000000002,-0.002334324,4.458,0,0
-0.0074111360000000005,0.0007686466,0.00396237172,0.00024504080000000003,-0.0026146800000000003,4.459,0,0
-0.006446598,0.0005294036,0.00556269736,0.00045532080000000005,-0.0023146894,4.46,0,0
-0.0058235940000000005,0.00024074380000000005,0.006614906,0.0005046158,-0.002135894,4.461,0,0
-0.00501837,-1.3097400000000001e-05,0.00495924,0.0005739848000000001,-0.0013638266,4.462,0,0
-0.002032344,-0.0001509214,0.0017166519999999997,0.0004957868000000001,0.00016967939999999997,4.463,0,0
0.000570756,-0.0003456156,-0.0014965620000000001,0.0001693098,0.0012343974,4.464,0,0
0.001975428,-0.00027374980000000005,-0.005154860000000001,-0.0001909232,0.0019187568,4.465,0,0
0.004524604,4.948999999999999e-05,-0.007967042,-0.0002736518,0.0030251953999999998,4.466,0,0
0.0071615540000000005,0.000429324,-0.008059748,-0.0006826978,0.003539236,4.467,0,0
0.007058366,0.0010804220000000002,-0.0063709522,-0.0009548158,0.0029129764,4.468,0,0
0.006567106,0.0017304108000000002,-0.0047883642,-0.0005374986000000002,0.0024863634,4.469,0,0
0.006716042,0.0016872658000000001,-0.0028277892000000003,-0.0005921576,0.0019456135999999999,4.47,0,0
0.004218262,0.0012679048,-0.0007796272000000003,-0.000960112,0.00028565360000000007,4.471,0,0
0.0006360000000000003,0.000935029,0.00019685280000000002,-0.0002819299999999999,-0.0009937404,4.472,0,0
-0.0015223820000000003,0.00016966700000000008,0.0006756050000000001,0.0007611760000000001,-0.0013718928000000003,4.473,0,0
-0.0039004900000000004,-0.000749427,0.001213455,0.0010212860000000002,-0.0019371618,4.474,0,0
-0.0070436579999999995,-0.0011528448000000001,0.0017531660000000004,0.001302564,-0.0024829500000000003,4.475,0,0
-0.008012692,-0.0014767438,0.0017905060000000003,0.0016731284,-0.0020625636,4.476,0,0
-0.007101576,-0.001845056,0.0015613372000000002,0.0010831722,-0.0015937296000000003,4.477,0,0
-0.006634874000000001,-0.0018656560000000003,0.0016752412000000001,-4.239980000000004e-05,-0.0017630196000000002,4.478,0,0
-0.0050575928,-0.0015122440000000003,0.0017851892,-0.0005750928,-0.0012874836,4.479,0,0
-0.0019307328000000002,-0.0012648606000000002,0.0017459232,-0.00028507080000000006,-0.00042230360000000005,4.48,0,0
0.0005624412000000002,-0.0009725028,0.0018812932,0.00031234479999999994,7.2082e-05,4.481,0,0
0.0024916592000000003,-0.00041716660000000005,0.0019241458000000002,0.0010304350000000001,0.001071888,4.482,0,0
0.0054144852,1.7288400000000016e-05,0.0011318738000000003,0.0014290604000000001,0.002288914,4.483,0,0
0.007588016000000001,0.0001000386,6.174380000000001e-05,0.0009531994000000001,0.0024876726,4.484,0,0
0.007720544000000001,0.00040015320000000006,-0.0006526102000000002,0.00016447140000000005,0.0019592106,4.485,0,0
0.007634132000000001,0.0009264554000000001,-0.0012737094000000002,-0.0007363006,0.0012306145999999999,4.486,0,0
0.0064324582,0.0009464054000000001,-0.0012890524000000003,-0.0019808886000000003,-0.0005305774000000001,4.487,0,0
0.0028329921999999995,0.0007926547800000001,-0.0006820644,-0.002548162,-0.0028986154000000004,4.488,0,0
-0.0005074178000000003,0.0006288765800000001,-0.00028725840000000006,-0.001414616,-0.00400294,4.489,0,0
-0.0026308118,0.0004092041800000001,-0.00014805540000000005,-0.00014006800000000014,-0.0038742898,4.49,0,0
-0.0054332178,0.00011313158,4.830359999999997e-05,0.00028341819999999987,-0.0030210058,4.491,0,0
-0.007487828,5.4438179999999995e-05,-0.0003449812,0.0013015942000000002,-0.0013579977999999995,4.492,0,0
-0.007047924,-4.71848e-05,-0.0011231252,0.0023328762000000003,0.0007607142000000002,4.493,0,0
-0.006441144,-0.0003630988,-0.0013325432000000001,0.0018968922000000004,0.0019283042000000001,4.494,0,0
-0.006096834000000001,-0.0005402506,-0.0016227082,0.0011588352,0.0021563508000000003,4.495,0,0
-0.0036335779999999997,-0.0007380037999999999,-0.002048672,0.0011126754000000002,0.0022916888000000003,4.496,0,0
-0.0005194440000000004,-0.00076235324,-0.001315672,0.0007221054000000001,0.0021597027999999997,4.497,0,0
0.0015367019999999998,-0.0005536934399999999,0.0003148840000000001,0.00018127920000000002,0.0021585348,4.498,0,0
0.004244986,-0.00019237464000000003,0.001816674,0.00012961180000000002,0.0027003008,4.499,0,0
0.0072565419999999995,0.00027307956,0.0032126200000000002,-0.00041139120000000006,0.003376834,4.5,0,0
0.00816719,0.0009795453600000001,0.004408972,-0.0012342816,0.0027129234,4.501,0,0
0.007787732,0.001496528,0.0041048074,-0.0015432136,0.0014191974,4.502,0,0
0.007685691999999999,0.0019667228,0.0029961200800000002,-0.0020072494,0.0007835167999999998,4.503,0,0
0.005551367999999999,0.00244386,0.0030049080800000003,-0.002486224,-0.0003658432000000002,4.504,0,0
0.001636532,0.0023515899999999998,0.00318968408,-0.0019748576,-0.0019106632000000004,4.505,0,0
-0.00084899,0.001982876,0.00392688608,-0.0010455847999999998,-0.0021517006,4.506,0,0
-0.003063802,0.0013222144,0.006417722680000001,-0.0003548868,-0.0020759186,4.507,0,0
-0.006638006,0.00045561039999999993,0.008752840000000001,0.0003955512,-0.002835894,4.508,0,0
-0.008442984,-0.0005328316000000001,0.0075373282,0.0011463812,-0.002805404,4.509,0,0
-0.007896994000000001,-0.0015824556000000002,0.0034609222000000005,0.0016390228000000002,-0.00230329,4.51,0,0
-0.008159526,-0.0023316816,-0.000151609799999999,0.0015070787,-0.002395216,4.511,0,0
-0.007560138,-0.00266729,-0.0049038498,0.0008084766999999998,-0.00223547,4.512,0,0
-0.004086480000000001,-0.002588654,-0.0102890298,0.00036967869999999993,-0.0016087204000000003,4.513,0,0
-0.000823514,-0.0020564152000000003,-0.011916166,-0.00011801490000000005,-0.0009960664,4.514,0,0
0.0013371759999999998,-0.0012041218000000003,-0.011585826,-0.0009330129,-1.655039999999997e-05,4.515,0,0
0.004698784,-0.00023073180000000003,-0.012331746000000001,-0.0012182116,0.0009554916,4.516,0,0
0.007652544000000001,0.00048369219999999994,-0.010999334,-0.0013314176000000003,0.0018642916000000003,4.517,0,0
0.007961604,0.0009681042,-0.0078517736,-0.0013753176000000002,0.0032841860000000006,4.518,0,0
0.0075221540000000005,0.0013266393999999998,-0.0059465592,-0.0008252860000000002,0.004289218,4.519,0,0
0.007284746000000001,0.000918678,-0.0029019792,-0.000249326,0.00435617,4.52,0,0
0.004882496000000001,0.0001768299999999999,0.0007452928000000001,0.0002446080000000001,0.0038375776,4.521,0,0
0.001335416,-0.00021836000000000002,0.0022344988,0.001026556,0.0030051476000000003,4.522,0,0
-0.00080629,-0.0007295520000000001,0.0024788644,0.001366896,0.0013643696000000002,4.523,0,0
-0.0033535180000000006,-0.0011667278,0.0028862040000000003,0.0008688270000000002,-0.0007007764000000001,4.524,0,0
-0.006591234,-0.0009000993999999999,0.003218284,0.0005917536000000001,-0.0022678144,4.525,0,0
-0.007902096,-0.0005928614,0.002835404,0.0006536895999999999,-0.0030885480000000004,4.526,0,0
-0.007412224,-0.00048089840000000003,0.0027296800000000004,0.0005488142,-0.00341229,4.527,0,0
-0.0071146460000000005,-0.00023461986000000002,0.0029888160000000005,0.0005234484,-0.0035866740000000006,4.528,0,0
-0.0054735154,-9.753766e-05,0.0027016220000000003,0.0006951102,-0.0025062580000000004,4.529,0,0
-0.0019289434,-0.00021938006000000003,0.002379644,0.0008382516,-0.0009088420000000001,4.53,0,0
0.0007732246000000003,-0.0007195440600000001,0.002616144,0.0005909712,-0.00011337298000000003,4.531,0,0
0.0028305246000000003,-0.00092440306,0.0025450520000000003,0.00024629240000000003,0.00085652502,4.532,0,0
0.005628474600000001,-0.0005755596,0.0023516080000000003,-0.00016999780000000002,0.0018964250200000001,4.533,0,0
0.00786416,-1.4959999999999952e-05,0.002496548,-0.0006651366000000001,0.00188679302,4.534,0,0
0.007984668,0.0009543040000000001,0.0021486616000000003,-0.0010022718000000002,0.00139823902,4.535,0,0
0.00782062,0.0019599500000000002,0.0013391548000000002,-0.0011678502,0.0015075464,4.536,0,0
0.0073506000000000005,0.00243706,0.0007938582199999999,-0.0011402138,0.0012208968,4.537,0,0
0.004061914000000001,0.0022080242,0.00053178062,-0.0009190048,0.0003158248,4.538,0,0
0.00014819200000000012,0.0014880112,-0.00011303738000000005,-0.00047572479999999996,-0.00042351320000000005,4.539,0,0
-0.002571844,0.00043590919999999996,-0.00053352098,-0.0002853444,-0.0011111852,4.54,0,0
-0.006115392000000001,-0.0006184888,-0.00039089638,-0.00021164140000000002,-0.0018589836000000002,4.541,0,0
-0.009253144000000001,-0.0011595988,-0.00042791680000000003,0.00013906080000000004,-0.0023694840000000003,4.542,0,0
-0.009330134,-0.0012710301999999999,-0.0006226932,0.0005492718000000001,-0.0018285540000000002,4.543,0,0
-0.008466288,-0.0010912808,-0.0001336032,0.0005708558,-0.0011945910000000003,4.544,0,0
-0.007882422,-0.000659389,0.0007029648,0.0005684594,-0.0009855106000000002,4.545,0,0
-0.004739892000000001,-8.784422000000004e-05,0.0008285279999999999,0.0010870392,-3.024859999999996e-05,4.546,0,0
-0.0005263859999999998,9.734738000000001e-05,0.0009925662,0.0011194068000000001,0.0009333714,4.547,0,0
0.0019966180000000004,4.5892779999999974e-05,0.0013736121999999998,0.0006151488000000001,0.000953286,4.548,0,0
0.004693302,0.00017642818,0.0011195832,0.0005509706000000001,0.0011719529999999999,4.549,0,0
0.008031172,0.00022544758,0.0005111434000000002,0.00044518420000000007,0.0016527686,4.55,0,0
0.009481022,0.0005500428,0.00036004247999999996,-0.00016258699999999995,0.0013670536000000002,4.551,0,0
0.008778782,0.0013686852000000002,4.882847999999998e-05,-0.000640109,0.0010667234,4.552,0,0
0.008281788,0.001797673,-0.0006821115200000001,-0.0009627890000000001,0.0011718368000000002,4.553,0,0
0.00645589234,0.0018754972000000003,-0.00106556252,-0.0015012267999999999,0.0006038422000000001,4.554,0,0
0.00235836234,0.0019985700000000003,-0.0018703427200000003,-0.0014531552,-0.00037580579999999995,4.555,0,0
-0.00099977766,0.0014473760000000004,-0.0031601128000000003,-0.0008013080000000001,-0.0006953947999999998,4.556,0,0
-0.00353338566,0.00025341800000000015,-0.0038412060000000002,-0.00023435399999999999,-0.0012938786,4.557,0,0
-0.00662393966,-0.00086243,-0.0036239773999999997,0.00039842380000000013,-0.0025764086,4.558,0,0
-0.008719491999999999,-0.0018727440000000002,-0.0029289954,0.0009230648000000002,-0.0033057299999999998,4.559,0,0
-0.008284742000000001,-0.0028236020000000006,-0.0016105313999999998,0.0010821488,-0.0030073200000000004,4.56,0,0
-0.007495362,-0.003053968,0.0002676166,0.0007456138000000001,-0.0026945600000000004,4.561,0,0
-0.006512086,-0.0025675820000000005,0.0014586826,0.0006197036000000001,-0.0020373920000000007,4.562,0,0
-0.0030303740000000006,-0.002053984,0.0020986000000000004,0.0009071078000000002,-0.0002223599999999999,4.563,0,0
0.001056394,-0.0016919620000000002,0.002961046,0.0003462808000000001,0.0008974020000000002,4.564,0,0
0.00373407,-0.0009711796000000001,0.004160538,-0.0002975632,0.0012383720000000002,4.565,0,0
0.006862590000000001,-0.00042591840000000004,0.005467924000000001,-3.961619999999993e-05,0.002203824,4.566,0,0
0.010008456,-0.0005320530000000001,0.006826965999999999,-0.00011810439999999997,0.002807158,4.567,0,0
0.01031074,-5.8559000000000074e-05,0.00682677,-0.0007398884000000001,0.00207075536,4.568,0,0
0.009027452,0.0008435570000000001,0.0037306880000000002,-0.0005361264,0.00165814016,4.569,0,0
0.00799027,0.0014872746,-8.994800000000028e-05,1.2587999999999955e-06,0.0018574805599999998,4.57,0,0
0.004754804,0.0024131654000000002,-0.003576722,-0.00034308760000000005,0.00069403716,4.571,0,0
-0.00014919599999999988,0.003272754,-0.006970516,-0.000556952,-0.00064096284,4.572,0,0
-0.003400216,0.0034083760000000003,-0.007056426,-0.00045200739999999996,-0.0007804878000000001,4.573,0,0
-0.006362176000000001,0.003187194,-0.0032056259999999996,-0.0005139414000000001,-0.0011393666,4.574,0,0
-0.01002891,0.002168046,0.0010354939999999999,-0.0008173706000000002,-0.002193023,4.575,0,0
-0.011584864,0.0002262439999999999,0.004260982,-0.0009070722000000002,-0.0022534416000000003,4.576,0,0
-0.010725489999999999,-0.0012565560000000003,0.007466444000000001,-0.0002376174000000001,-0.0012207175999999998,4.577,0,0
-0.010012238,-0.0022854900000000003,0.007581196,0.0006660020000000001,-0.0004854639999999998,4.578,0,0
-0.008025374,-0.0033309460000000004,0.002345244,0.0018266220000000002,0.0008074600000000001,4.579,0,0
-0.003606664,-0.0034665140000000004,-0.002122956,0.002817468,0.00267273,4.58,0,0
5.197400000000042e-05,-0.0028495400000000002,-0.00428353,0.0030307020000000006,0.003558082,4.581,0,0
0.0030119120000000003,-0.0022493128,-0.009674142,0.002308409,0.0034608480000000007,4.582,0,0
0.006933304000000001,-0.0017379744000000001,-0.014229884000000002,0.0011902890000000002,0.003332872,4.583,0,0
0.00976374,-0.0012615824,-0.012214656,-0.000240119,0.0023993448000000006,4.584,0,0
0.009858618,-0.0005984804,-0.0097476462,-0.001550429,0.0005604148000000002,4.585,0,0
0.009613562,5.846160000000009e-05,-0.0089203622,-0.001772223,-0.00034238919999999987,4.586,0,0
0.008906716000000002,0.00037677900000000005,-0.0041848722,-0.0016362654000000002,-0.0007246582,4.587,0,0
0.005183842,0.0006348114,0.0020326278000000007,-0.0013486792000000003,-0.0015033382000000002,4.588,0,0
0.0009065440000000002,0.0010366674,0.0051276938,-0.0006283942000000001,-0.0016456070000000003,4.589,0,0
-0.0023114979999999995,0.0007165864000000001,0.006198654000000001,-0.00014631060000000002,-0.0009935468000000002,4.59,0,0
-0.00592846,9.196840000000003e-05,0.007532830000000001,-0.0003610506,-0.0012875628000000002,4.591,0,0
-0.009140386,0.0001227998,0.008488386,-0.00020615080000000003,-0.0021482918000000004,4.592,0,0
-0.009867966,6.175359999999999e-05,0.007444520000000001,6.7745e-05,-0.0023040238,4.593,0,0
-0.009244220000000001,-8.292599999999962e-06,0.005224858,-0.00017152540000000004,-0.0021297436,4.594,0,0
-0.00836731,0.0005345144000000001,0.00322478,-0.000301363,-0.0018476802000000003,4.595,0,0
-0.0052205540000000005,0.0012596644,0.0022011939999999996,-0.000342133,-0.0006747202000000002,4.596,0,0
-0.001221774,0.0012866984,8.063400000000016e-05,-0.0005399514,0.0008695317999999999,4.597,0,0
0.0014889540000000002,0.0012796018,-0.0029084440000000005,-0.0008542592,0.0017531317999999998,4.598,0,0
0.0043703299999999995,0.0014649980000000001,-0.0027446120000000004,-0.0008622715999999999,0.0028164996,4.599,0,0
0.007723794,0.0012693860000000002,-0.0008013200000000003,-0.0009731676,0.003561626,4.6,0,0
0.009032058,0.001220424,-0.0007387920000000003,-0.0013443816000000002,0.0030961724000000005,4.601,0,0
0.008402330000000001,0.001181736,-0.001138942,-0.0015524616,0.0020028184000000005,4.602,0,0
0.008168054000000001,0.001478704,-0.0011670340000000004,-0.0015825756,0.0011786744000000004,4.603,0,0
0.006825422,0.001772232,-0.002128934,-0.0019633958,0.0002401904000000001,4.604,0,0
0.0031961439999999997,0.0017984540000000001,-0.002999003,-0.0019088938,-0.0007917996,4.605,0,0
-9.655400000000043e-05,0.001780852,-0.0030093250000000006,-0.0003923977999999999,-0.001252684,4.606,0,0
-0.0022546040000000003,0.0015437704000000002,-0.0014165510000000003,0.0011611762000000002,-0.001114622,4.607,0,0
-0.005344302,0.0012292170000000001,0.001296243,0.002248814,-0.0010175120000000001,4.608,0,0
-0.0077768640000000005,0.0006589700000000002,0.003140831,0.0033546860000000004,-0.001591236,4.609,0,0
-0.007318718,0.000168214,0.0031780000000000003,0.004118438,-0.0015584204,4.61,0,0
-0.006628726,-0.00045658200000000003,0.001571242,0.0038922140000000006,-0.0010965822,4.611,0,0
-0.0060201759999999995,-0.0010947464,-9.41859999999999e-05,0.0028578680000000004,-0.0010513191999999998,4.612,0,0
-0.0028439340000000002,-0.0015764730000000001,-0.000918324,0.0020428706000000002,-0.0008176104,4.613,0,0
0.0007322140000000001,-0.0016881512,-0.0010687780000000003,0.0016282894000000001,-0.00012535600000000002,4.614,0,0
0.00274381,-0.0015226240000000002,-0.0004999100000000001,0.0010650764,0.0004535564,4.615,0,0
0.005363016000000001,-0.001563512,0.00068738,0.00016587039999999996,0.0008820502,4.616,0,0
0.008017624000000001,-0.001349162,0.0016241054,-0.0005117096,0.0013711212000000002,4.617,0,0
0.008564212000000002,-0.0009504928,0.0019749314000000002,-0.0009720642,0.0014842024000000004,4.618,0,0
0.008046804000000001,-0.00044538760000000004,0.0016142500000000002,-0.001763115,0.001005638,4.619,0,0
0.007723456000000001,-0.00026098939999999996,0.0010368,-0.00258727,9.063999999999925e-06,4.62,0,0
0.005420474000000001,-0.00011748380000000002,0.0012346500000000001,-0.0026074460000000002,-0.0010199100000000002,4.621,0,0
0.0011466140000000002,0.00030108019999999997,0.0012781088,-0.0023097792,-0.0018546280000000003,4.622,0,0
-0.0022746000000000003,0.000322953808,0.0007955124,-0.0024610772000000004,-0.0024316880000000004,4.623,0,0
-0.005342906,-7.648939200000003e-05,0.0007139040999999999,-0.0022056512,-0.00294185,4.624,0,0
-0.008991822,-0.0004997367920000001,0.0005647499,-0.0017290072,-0.0033976800000000006,4.625,0,0
-0.010916360000000002,-0.0006758203920000001,-1.5289999999998968e-07,-0.0010307132,-0.0029999522000000002,4.626,0,0
-0.009897248,-0.000935000392,-1.458209999999997e-05,0.000297732,-0.0018298562,4.627,0,0
-0.008707082,-0.0014677492,9.55631e-05,0.0014024460000000001,-0.0009410302000000001,4.628,0,0
-0.0068408358,-0.0017931420000000002,-0.00039766719999999995,0.002069558,0.0005847978,4.629,0,0
-0.0026043938000000003,-0.0016978100000000001,-0.000552753,0.00250052336,0.0031305678,4.63,0,0
0.0013248821999999997,-0.00163312,-7.183419999999996e-05,0.00226802336,0.004092538,4.631,0,0
0.0041671482,-0.001457165,1.999879999999997e-05,0.0014592993600000001,0.003659358,4.632,0,0
0.007340506199999999,-0.0007141690000000001,-6.390499999999994e-05,0.00083128736,0.0037555920000000003,4.633,0,0
0.009779316000000001,0.000320939,0.00019484500000000005,0.00036594136,0.003246281,4.634,0,0
0.009758662,0.001075791,0.00014473799999999997,7.980399999999989e-05,0.001475535,4.635,0,0
0.009050230000000001,0.001799391,-0.00053326,-0.000559524,0.0007028088,4.636,0,0
0.008108422,0.002526476,-0.001077092,-0.0014828380000000002,0.0002944218,4.637,0,0
0.004559934000000001,0.002723678,-0.00030965699999999997,-0.0019341280000000002,-0.0015906202,4.638,0,0
0.0003183439999999999,0.00247869,0.0007997830000000001,-0.00224011,-0.0027815312000000003,4.639,0,0
-0.0028245,0.0021302440000000003,0.0015571900000000002,-0.002208702,-0.0027240211999999997,4.64,0,0
-0.0064976240000000005,0.001891252,0.002395808,-0.00132349,-0.00287356334,4.641,0,0
-0.010030274,0.0014272326000000003,0.002906968,-0.0001376079999999999,-0.00244853434,4.642,0,0
-0.011008506,0.0005145005999999999,0.0022511059999999997,0.000762752,-0.0006629483400000002,4.643,0,0
-0.010470764,-0.0004353374000000001,-0.0004002999999999999,0.001559832,0.00066481966,4.644,0,0
-0.009885778,-0.0012246814000000002,-0.0033495420000000005,0.0018724678,0.0009991122600000002,4.645,0,0
-0.007057334,-0.0020400874,-0.004672962000000001,0.0015951340000000002,0.0015280546000000002,4.646,0,0
-0.0029059900000000002,-0.00247771,-0.005344276,0.0010366805999999999,0.0018278506000000002,4.647,0,0
0.0003960859999999999,-0.0022525,-0.005463126800000001,0.0004161296,0.0016341822000000002,4.648,0,0
0.003861334,-0.00171924436,-0.0033316168,0.0002382094,0.0018321882000000003,4.649,0,0
0.007781284,-0.0010205991600000003,-0.0004816988000000001,0.0002291682,0.0022079756000000002,4.65,0,0
0.0101166,-0.00042278336000000006,0.0007760292,-0.000212994,0.0016585776,4.651,0,0
0.010179258,-6.660156000000007e-05,0.0011500868,-0.0006646646000000001,0.0012261714000000002,4.652,0,0
0.010065748000000001,0.00018132043999999998,0.0012261112,-0.0007602696,0.0012135608,4.653,0,0
0.008327096,-7.912720000000003e-05,0.0008654872420000001,-0.0010125906,0.00029071280000000016,4.654,0,0
0.003785700000000001,-0.00038982960000000005,0.00042233744200000003,-0.0011769732,-0.0008396912000000001,4.655,0,0
-0.0002867779999999997,-0.00039551540000000007,-6.9036758e-05,-0.0007802988000000001,-0.0013610112000000001,4.656,0,0
-0.0030089599999999998,-0.0009156992000000001,-0.0004985043580000001,-0.0003616054,-0.002218335,4.657,0,0
-0.006497266,-0.0014323652000000002,-0.0004747111580000001,7.186500000000006e-05,-0.0034744199999999998,4.658,0,0
-0.009171214,-0.0015088392000000002,-0.0004084806,0.0007056502000000001,-0.0041160780000000004,4.659,0,0
-0.00881788,-0.0017224480000000001,-0.00024305679999999996,0.0008933846000000001,-0.0039102419999999995,4.66,0,0
-0.008158494,-0.0017887134,0.0004812974000000001,0.0007735622000000002,-0.0035656624,4.661,0,0
-0.007694576,-0.0011556378,0.0013179334,0.0007864086000000001,-0.002860311,4.662,0,0
-0.004799622,-0.0003323997999999998,0.0014701838000000002,0.0006405753400000002,-0.000698953,4.663,0,0
-0.0008510640000000001,0.0005183282,0.0012768694,0.00039131334000000006,0.001576929,4.664,0,0
0.0017593720000000004,0.0015542902,0.00106214422,0.00044802574,0.002728249,4.665,0,0
0.0046851440000000005,0.0021081576,0.00047865522,0.00064080134,0.0037110074000000002,4.666,0,0
0.008211626,0.0023186160000000003,0.00014693182000000002,0.00071881294,0.0041652040000000005,4.667,0,0
0.009727892000000002,0.002355602,0.00019500362,0.0007641488,0.0031625772000000003,4.668,0,0
0.00953613,0.002227008,0.00021428222000000003,0.0006195834000000001,0.0018739490000000004,4.669,0,0
0.009269248000000002,0.0022132220000000004,0.00024601200000000004,0.0002600686,0.0007817750000000002,4.67,0,0
0.007079296400000001,0.0021644660000000003,0.0008309690000000001,-0.00042805899999999995,-0.000922157,4.671,0,0
0.0027431824000000004,0.0021878,0.0016344764000000003,-0.0011400684,-0.0022494470000000003,4.672,0,0
-0.0009248435999999996,0.0018316374000000002,0.0018874814000000002,-0.0014819554000000002,-0.0023999222,4.673,0,0
-0.0045023796,0.0006804874000000002,0.0021105228000000004,-0.0015639361600000002,-0.0022628436,4.674,0,0
-0.0083795116,-0.0004125586,0.0014329822000000002,-0.0010590421600000003,-0.0019208626000000002,4.675,0,0
-0.010287379999999999,-0.0011346326,-0.0007674538,-0.0002349661600000001,-0.0007544006000000001,4.676,0,0
-0.00987852,-0.0018798866,-0.0022527618,0.00044897244,0.0003317318,4.677,0,0
-0.00915271,-0.002054896,-0.0018481098,0.0009684844400000001,0.00041838780000000005,4.678,0,0
-0.007480052000000001,-0.0013796406000000003,-0.0012683060000000003,0.0013568926000000002,0.00041671,4.679,0,0
-0.003665126000000001,-0.0008367118,-0.0004282460000000001,0.0012592954,0.0007010390000000001,4.68,0,0
-0.0002740780000000003,-0.0007835158000000001,0.0006388420000000001,0.0007565032,0.000649081,4.681,0,0
0.0019707379999999997,-0.00043194512000000005,-0.00016837199999999997,0.00045665720000000003,0.0005631176000000001,4.682,0,0
0.005072594,-9.271212000000001e-05,-0.0016207340000000004,-0.00016131280000000007,0.0010658456000000001,4.683,0,0
0.008492216,-0.00016541172000000002,-0.0022291074000000003,-0.0010351128000000002,0.0016132870000000001,4.684,0,0
0.00955597,-7.158771999999999e-05,-0.0028318914000000006,-0.0015792556,0.0012858928000000001,4.685,0,0
0.00931477,8.257608000000004e-05,-0.0027879634000000006,-0.0014561930000000004,0.0005820648,4.686,0,0
0.009012322,-6.598599999999981e-06,-0.0014204952000000002,-0.0010706276000000002,0.00015586580000000004,4.687,0,0
0.005893224,-8.82396e-05,-0.0004901772000000001,-0.0008725038,-0.0006795162000000001,4.688,0,0
0.001246578,4.9100600000000016e-05,-0.0005149408000000001,-0.000301755,-0.0014365338,4.689,0,0
-0.0021198040000000003,-8.777278e-05,-0.00035953280000000003,1.4733800000000018e-05,-0.0013196896000000002,4.69,0,0
-0.0054231520000000005,-0.00030489458,0.0002220362,-0.00046277260000000006,-0.0015953476000000002,4.691,0,0
-0.008868866,-0.00027576578,0.0008938920000000001,-0.0010096186,-0.0023899796,4.692,0,0
-0.010010368,-0.00021828238000000003,0.000898576,-0.0005815484,-0.0020775906,4.693,0,0
-0.009127738,-0.0007579663800000001,0.0008120455999999999,0.0005728528,-0.001037591,4.694,0,0
-0.008491096,-0.0011758518000000002,0.0010127506,0.001567056,-0.000686833,4.695,0,0
-0.0062213986,-0.0010021712000000001,0.0003657956000000001,0.0022851168,0.0002626640000000001,4.696,0,0
-0.0016472465999999998,-0.001420382,-0.0005364264,0.0023994107999999997,0.001798684,4.697,0,0
0.0019248814000000002,-0.0010787014000000002,-0.0009450536,0.0016908887999999998,0.0020292318,4.698,0,0
0.0046911974,0.0008867946,-0.0012088642,-0.00020712320000000004,0.0016687398,4.699,0,0
0.008523837400000001,0.0026663466,-0.0009239152000000002,-0.0023153352,0.0020604157999999997,4.7,0,0
0.010998120000000002,0.003857042,0.00030127280000000005,-0.0031479740000000004,0.0029595048000000002,4.701,0,0
0.010631266000000002,0.005346774,0.0014799028,-0.0029033733599999998,0.0033847868,4.702,0,0
0.010284156000000001,0.00550161,0.002459792,-0.00251440256,0.0035034800000000002,4.703,0,0
0.008956886,0.004015154999999999,0.00412512,-0.00221398456,0.0028527564000000003,4.704,0,0
0.0046997340000000005,0.0024279330000000006,0.005508392,-0.00164150056,0.0010242524000000004,4.705,0,0
0.0011773540000000005,0.0009817150000000002,0.0064346379999999995,-0.00157290456,-0.0008938335999999997,4.706,0,0
-0.00106341,0.000553865,0.007233818,-0.0020591652,-0.0026172156,4.707,0,0
-0.0044817680000000006,0.001176289,0.006583118000000001,-0.0021776324,-0.0038340455999999997,4.708,0,0
-0.008025878,0.001723386,0.003686412000000001,-0.0015732043999999998,-0.00366055652,4.709,0,0
-0.010596366,0.0018528810000000002,2.1386000000000408e-05,-0.0004198063999999996,-0.0023754025199999996,4.71,0,0
-0.013607286,0.001647685,-0.0034421219999999997,0.0005068876000000001,-0.00150475232,4.711,0,0
-0.015510739999999999,-3.290499999999996e-05,-0.007307466,0.0015821436000000005,-0.0007644171199999998,4.712,0,0
-0.013013852,-0.002286351,-0.008929314,0.0033173140000000005,0.00063915488,4.713,0,0
-0.008186995999999998,-0.0045282890000000004,-0.006971912,0.004806378,0.0014205334,4.714,0,0
-0.001966755999999999,-0.007835102,-0.0031947600000000005,0.005773692,0.0016848434,4.715,0,0
0.006963844,-0.009543132,0.00114651,0.006626044000000001,0.0023803872,4.716,0,0
0.014776864,-0.008634523199999999,0.0030671680000000003,0.006594124,0.002300864,4.717,0,0
0.017909116,-0.007326129200000001,0.0021851440000000004,0.004671372,0.0009993360000000002,4.718,0,0
0.0184224,-0.004541435200000001,6.113599999999983e-05,0.001759722,-0.000410676,4.719,0,0
0.017761422,0.00036320480000000006,-0.003416512,-0.0008758960000000001,-0.0015468400000000003,4.72,0,0
0.013442274,0.0033953868,-0.00640357,-0.002764734,-0.002972006,4.721,0,0
0.006820277999999999,0.0037499480000000003,-0.0059739625999999995,-0.0034599118000000002,-0.003917452,4.722,0,0
0.0014576860000000001,0.0034403596000000002,-0.0032609826,-0.0029023176,-0.003573688,4.723,0,0
-0.003510174,0.0024607388000000003,-0.0003364745999999998,-0.0016347754000000001,-0.002676628,4.724,0,0
-0.008798976,0.0010037112,0.0024303594,-0.00016221939999999993,-0.001481228,4.725,0,0
-0.012678308000000001,-0.0008013928000000002,0.0033650513999999997,0.0015937526000000001,0.00024656600000000015,4.726,0,0
-0.013712792000000001,-0.0027050968000000004,0.003506412,0.0031700144,0.0024335420000000003,4.727,0,0
-0.01390906,-0.003876742400000001,0.00380126,0.0043998322,0.003675558,4.728,0,0
-0.012827604,-0.004141679600000001,0.0033020140000000003,0.0057939359999999995,0.003933008,4.729,0,0
-0.008252106,-0.003498214000000001,0.0021825308,0.00638364,0.004164342,4.73,0,0
-0.0034197960000000006,-0.0010096140000000003,0.0007662987999999998,0.005347392000000001,0.004093172000000001,4.731,0,0
0.00026077999999999995,0.002672972,0.00012420279999999996,0.0034741120000000006,0.00347994,4.732,0,0
0.004636380000000001,0.0059872,-0.00031043920000000015,0.0010943160000000001,0.0031212260000000004,4.733,0,0
0.008011006000000001,0.007887962000000002,-0.0019090751999999997,-0.0021219620000000002,0.0030693179999999997,4.734,0,0
0.0077239380000000005,0.007767916000000001,-0.003475474,-0.004849334,0.0018955540000000002,4.735,0,0
0.007000888,0.006866686,-0.003210184,-0.005379054,0.00032536800000000003,4.736,0,0
0.007196794000000001,0.0050254005999999995,-0.0020013820000000003,-0.004994392,-0.0008218480000000001,4.737,0,0
0.00460761,0.0015700306000000002,-0.0010340839999999996,-0.004714584,-0.002510488,4.738,0,0
0.0004407080000000006,-0.0017526094,-0.0001744963760000001,-0.00390789,-0.004009482,4.739,0,0
-0.002799842,-0.0041710694,-3.537637599999974e-05,-0.0036448760000000005,-0.004406216,4.74,0,0
-0.006048922,-0.0062351694,-0.0008375123759999997,-0.005462754,-0.00501649,4.741,0,0
-0.009496484,-0.006878134,-0.002577018376,-0.008499836,-0.005307108,4.742,0,0
-0.010068006,-0.00451995,-0.005266806376,-0.010927902,-0.0041966213999999995,4.743,0,0
-0.007148326000000001,-0.0006292639999999996,-0.006025282,-0.012388834000000001,-0.0028229514,4.744,0,0
-0.004378568,0.00192625,-0.0045395492,-0.013324500000000001,-0.0021084518,4.745,0,0
-0.0012725439999999996,0.002562158,-0.0036265072000000002,-0.01454352,-0.0014990238,4.746,0,0
0.002964156,0.001904262,-0.0008137092000000002,-0.016030720000000002,-0.0012390258,4.747,0,0
0.004900178,-0.0008241120000000001,0.0046688548,-0.01795806,-0.0021740084,4.748,0,0
0.003919178,-0.004625424,0.0079763908,-0.020877500000000004,-0.0028435964,4.749,0,0
0.003096956,-0.0054243136,0.008710882,-0.02400944,-0.002565588,4.75,0,0
0.0030712180000000006,-0.0029332076000000004,0.009590002,-0.02701618,-0.0023851099999999997,4.751,0,0
0.001935882,0.0009878264000000002,0.00822435,-0.02972688,-0.0024916760000000004,4.752,0,0
0.00117848,0.0052873864,0.003359195999999999,-0.027350640000000002,-0.0020505580000000005,4.753,0,0
0.0014940400000000003,0.0086012684,-0.0006717620000000001,-0.014037820000000001,-0.0022501620000000004,4.754,0,0
0.00010865400000000035,0.009877972,-0.002476674,0.0112724,-0.0027548660000000003,4.755,0,0
-0.002015582,0.008681014,-0.0027885794000000004,0.047730060000000005,-0.0007280300000000004,4.756,0,0
-0.0030147254,0.004782448,-0.0022091194,0.08986284,0.0026418880000000002,4.757,0,0
-0.0047090974,-0.0010051120000000003,-0.00039991539999999974,0.12650732,0.0050890300000000005,4.758,0,0
-0.0069221174,-0.005651882,0.0027630606000000005,0.14799565999999997,0.0072548180000000006,4.759,0,0
-0.0061810473999999995,-0.008553538,0.0045489346,0.15111179999999996,0.009713708,4.76,0,0
-0.004735763180000001,-0.009525946,0.006862662,0.1378098,0.01033881,4.761,0,0
-0.00385116978,-0.0067134180000000005,0.00972269,0.11259126,0.009392582,4.762,0,0
0.0009736282200000002,-0.0019420380000000005,0.008464696,0.08117822,0.009324356,4.763,0,0
0.00713398822,0.0005446559999999995,0.0037718380000000004,0.047765079999999994,0.009934586,4.764,0,0
0.01085720822,0.0008550319999999995,-0.0013890639999999998,0.011806039999999997,0.010419586,4.765,0,0
0.013938314,-0.0006400240000000003,-0.009447144,-0.026653560000000003,0.011199166,4.766,0,0
0.0156672,-0.0045837659999999995,-0.018854944,-0.06403862,0.013404974,4.767,0,0
0.012949732,-0.007748842,-0.020304158000000003,-0.09995378000000002,0.015519260000000002,4.768,0,0
0.007993976,-0.009349836,-0.015271218000000001,-0.13323024,0.01571846,4.769,0,0
0.0038128580000000006,-0.007220968,-0.008889714,-0.15793120000000002,0.014299366000000003,4.77,0,0
-0.0010093940000000003,0.0018502120000000004,-0.0002897140000000004,-0.17217040000000003,0.010180212000000001,4.771,0,0
-0.005591536,0.012244792000000001,0.007888046000000001,-0.17801960000000003,0.0023162520000000013,4.772,0,0
-0.008000324,0.019338688000000003,0.010715134000000001,-0.17309580000000002,-0.007814748,4.773,0,0
-0.009773468,0.025417128000000004,0.009557174000000002,-0.15587838,-0.017945868,4.774,0,0
-0.01212529,0.0276519,0.008436868,-0.12859334,-0.027384654,4.775,0,0
-0.012702738,0.022283555999999996,0.005344369000000001,-0.09436205199999999,-0.03441162,4.776,0,0
-0.00966966,0.012377210000000001,0.001791627,-0.05614129200000001,-0.037305300000000007,4.777,0,0
-0.004542823999999999,8.454999999999921e-05,0.002252523,-0.018453711999999997,-0.0365331,4.778,0,0
0.002356256000000001,-0.01170949,0.004615643000000001,0.012083168,-0.032094620000000004,4.779,0,0
0.011380516,-0.01910163,0.0054405550000000006,0.034273428,-0.024282308000000002,4.78,0,0
0.018184296000000003,-0.021463324000000002,0.0054753328000000006,0.05026962,-0.015269422000000001,4.781,0,0
0.020107780000000002,-0.018746124,0.003992594800000001,0.061450359999999996,-0.006750454000000001,4.782,0,0
0.020301,-0.010834746000000001,-0.0014824911999999995,0.06902506,0.0013589460000000002,4.783,0,0
0.02046202,-0.000896165999999999,-0.007523791199999999,0.07580498000000001,0.007680726000000001,4.784,0,0
0.01830058,0.005688294,-0.0103027252,0.08298328,0.011194034000000002,4.785,0,0
0.014409172,0.007232456,-0.010068859,0.08721944000000001,0.013058168000000002,4.786,0,0
0.009784689999999999,0.004585742,-0.006974877,0.08620310000000002,0.013359614000000002,4.787,0,0
8.198999999999967e-05,-0.002111176,-0.002191999,0.07976598,0.010994642,4.788,0,0
-0.01326101,-0.008767256000000001,0.0008496850000000001,0.0690013,0.0067331180000000015,4.789,0,0
-0.023512190000000002,-0.00992307,0.0010890270000000002,0.05530578,0.0031226520000000005,4.79,0,0
-0.030707302,-0.008464434,0.00018562600000000026,0.04247558,0.000996662,4.791,0,0
-0.036631659999999996,-0.007018302000000001,-0.00036245799999999986,0.0336402,0.00037381799999999983,4.792,0,0
-0.036905719999999996,-0.0031715899999999997,-0.0010903356,0.02829458,0.0024233099999999997,4.793,0,0
-0.032486480000000005,-0.0005692019999999998,-0.0013180870119999999,0.02488294,0.006387093999999999,4.794,0,0
-0.03001292,-0.0037670079999999996,0.0007192489880000001,0.020233016,0.00899988,4.795,0,0
-0.027143940000000002,-0.008956208,0.001156584988,0.012958227999999999,0.010332669999999999,4.796,0,0
-0.020569106,-0.012115560000000001,-0.0012670330120000003,0.0033663480000000003,0.011420000000000001,4.797,0,0
-0.013743896,-0.013353592000000001,-0.002242777412,-0.004000972,0.011085938,4.798,0,0
-0.006707536,-0.010245036,-0.0014010080000000002,-0.0032500720000000006,0.010310518000000001,4.799,0,0
0.0030323240000000007,-0.002532296,0.000514338,0.003485651999999999,0.010449718,4.8,0,0
0.011165304000000001,0.006138684000000001,0.003994938,0.011635780000000002,0.009910244,4.801,0,0
0.014579810000000002,0.016262324,0.007231232000000001,0.0196331,0.0070525580000000004,4.802,0,0
0.01807436,0.026016724,0.0073991360000000015,0.02411798,0.0040208760000000005,4.803,0,0
0.02205378,0.028550120000000002,0.0025855540000000003,0.02123092,0.0017852140000000002,4.804,0,0
0.02214586,0.023343620000000002,-0.0016796380000000007,0.013742402000000003,-0.0013109559999999998,4.805,0,0
0.02199042,0.012708500000000003,0.0009995019999999993,0.004925081999999999,-0.0038588380000000003,4.806,0,0
0.02495384,-0.002583760000000001,0.006182007999999999,-0.0037604980000000006,-0.0035248140000000002,4.807,0,0
0.025386580000000002,-0.015581520000000001,0.010737188,-0.011015778,-0.0022824842,4.808,0,0
0.020941702000000003,-0.021472400000000003,0.01539865,-0.019717458,-0.0022312004,4.809,0,0
0.016294640000000003,-0.020430370000000003,0.011532302,-0.03148618,-0.0014647040000000003,4.81,0,0
0.011332602,-0.010371170000000002,-0.0011965580000000012,-0.04472686000000001,-0.0006797,4.811,0,0
0.003301382,0.0037709099999999997,-0.010630018000000001,-0.05729770000000001,-0.001472872,4.812,0,0
-0.003716318,0.012890770000000001,-0.018292417999999998,-0.06847726000000001,-0.0016061896000000003,4.813,0,0
-0.006985468,0.0161133,-0.022857,-0.07323772,-0.0003626453999999999,4.814,0,0
-0.008974251999999999,0.013810838,-0.01531208,-0.06413994,0.00037664220000000023,4.815,0,0
-0.0083616106,0.005102998000000001,-0.0025830600000000007,-0.04417622,0.0010413542,4.816,0,0
-0.0033552506,-0.0036015220000000007,0.003241839999999999,-0.021239840000000003,0.0014018742,4.817,0,0
0.0022406694,-0.006984664000000001,0.0069145505999999995,0.0007401600000000001,-6.886800000000014e-05,4.818,0,0
0.007049057400000001,-0.007931719000000002,0.0096672046,0.017886680000000002,-0.0022984800000000003,4.819,0,0
0.0132180834,-0.006940468600000001,0.0024442846,0.02429798,-0.0037323920000000006,4.82,0,0
0.01813974,-0.0023466546000000003,-0.0081876554,0.020958730000000002,-0.004415124,4.821,0,0
0.01875266,0.0021020174,-0.014343595400000003,0.014137994,-0.004758522000000001,4.822,0,0
0.017260518000000002,0.0032124794000000004,-0.017077346,0.008543023399999999,-0.0044339340000000005,4.823,0,0
0.014836588,0.0035325344000000005,-0.0160396966,0.0051016694,-0.004515538,4.824,0,0
0.009130824,0.005287528,-0.010644532600000001,0.0030044834,-0.005581508000000001,4.825,0,0
-0.0020815359999999993,0.0066714140000000005,-0.0043188766,0.0039499814,-0.006937480000000001,4.826,0,0
-0.015152536,0.006174734,0.0027182034,0.0067567974,-0.006984804000000001,4.827,0,0
-0.025544334,0.0051392600000000005,0.0091445234,0.009049468000000001,-0.005166478000000001,4.828,0,0
-0.033249424,0.0044676938,0.010587318,0.011215561999999998,-0.001705668000000001,4.829,0,0
-0.03465398,0.0023718698,0.007274413999999998,0.013276088000000002,0.00315048,4.83,0,0
-0.027651628,-0.0011757762000000002,0.0017324379999999993,0.014170440000000001,0.007387764000000001,4.831,0,0
-0.016692540000000002,-0.0034367462,-0.002486212000000001,0.014003842,0.010264058,4.832,0,0
-0.005501059999999999,-0.004836022200000001,-0.004257302000000001,0.012617526000000002,0.010454182000000001,4.833,0,0
0.00408772,-0.0066899460000000004,-0.00215314,0.008825718000000003,0.0069891940000000015,4.834,0,0
0.007982952000000001,-0.009392394000000002,0.003760140000000001,0.0027121179999999995,0.0012975740000000001,4.835,0,0
0.006926090000000001,-0.013390108000000001,0.011862540000000001,-0.005059662000000001,-0.0038327660000000005,4.836,0,0
0.006185235400000001,-0.016196750000000003,0.01702477,-0.014244784,-0.007431900000000001,4.837,0,0
0.004548175400000001,-0.015425122000000001,0.014817822000000001,-0.024645168000000002,-0.010128700000000001,4.838,0,0
0.0022167794,-0.010323042000000001,0.008136302,-0.03373178,-0.010453358,4.839,0,0
0.0022084354,7.033799999999705e-05,0.001770902,-0.03952788,-0.008946966,4.84,0,0
0.0017523174000000003,0.011748618,-0.004682958000000001,-0.041950760000000004,-0.007945544,4.841,0,0
-0.002337656,0.018721298,-0.0073209980000000004,-0.03839754,-0.007531734,4.842,0,0
-0.005472816,0.02231112,-0.0016443200000000003,-0.028259862,-0.006073752,4.843,0,0
-0.0068757720000000005,0.022984580000000004,0.00478672,-0.014965402,-0.003758776,4.844,0,0
-0.013704420000000002,0.01874376,0.008725408,5.169799999999846e-05,-0.0018112579999999994,4.845,0,0
-0.021379772000000005,0.014642800000000001,0.01039428,0.017208918,0.0004944600000000001,4.846,0,0
-0.021625272,0.012021255400000003,0.008627496800000002,0.032302638,0.002719112,4.847,0,0
-0.01812643,0.006334675400000001,0.0012346968000000002,0.041256459999999995,0.0032317674,4.848,0,0
-0.012661438,-0.0014076046,-0.0032693712,0.04586008,0.0031106374000000004,4.849,0,0
-4.181800000000249e-05,-0.0073177446,0.0010493408000000013,0.04576292,0.004246259400000001,4.85,0,0
0.015109802000000002,-0.010651274600000002,0.008786888800000002,0.04023968,0.0052927714,4.851,0,0
0.022986102,-0.01398601,0.016414552000000002,0.03305708,0.0059422534,4.852,0,0
0.023869678,-0.01414245,0.015566332000000002,0.02736204,0.007744556,4.853,0,0
0.019703012,-0.007389150000000001,0.0037364800000000004,0.021558,0.008112537999999999,4.854,0,0
0.011054654000000002,-0.0007037500000000004,-0.0136039,0.01509835038,0.0061516764,4.855,0,0
0.00321121,0.0018547199999999998,-0.02896426,0.008264950379999999,0.0049584164,4.856,0,0
0.0010440900000000001,0.004584759999999999,-0.04140036,-0.0015634696200000006,0.0043411644,4.857,0,0
0.0017388120000000002,0.00402566,-0.037643762000000004,-0.014138069620000002,0.0027920944000000003,4.858,0,0
0.0036556780000000007,-0.0035799200000000003,-0.011274982,-0.02725028962,0.0014913004000000002,4.859,0,0
0.007078348000000001,-0.012435120000000001,0.018733478,-0.03858396000000001,0.0014705722000000004,4.86,0,0
0.005753912000000002,-0.02109638,0.040619778,-0.04712514000000001,0.0013146882000000001,4.861,0,0
-0.00035250799999999964,-0.027188180000000003,0.04669877,-0.05124582,0.00019933420000000014,4.862,0,0
-0.003153208,-0.024591694000000004,0.039210832,-0.049845640000000004,-0.0007492198,4.863,0,0
-0.0017080280000000008,-0.015216494000000004,0.022287112000000008,-0.043019419999999996,-0.0016469518,4.864,0,0
0.001456359999999999,-0.005553034000000002,0.0003689120000000025,-0.02875552,-0.0035445960000000006,4.865,0,0
0.00979112,0.0029515939999999997,-0.018996788,-0.008276600000000002,-0.005050242000000001,4.866,0,0
0.02188934,0.01067051,-0.03227078,0.01369664,-0.005032956,4.867,0,0
0.0299067,0.013004684,-0.03859258,0.03385908,-0.00449295448,4.868,0,0
0.029137620000000003,0.008361654000000001,-0.03922622,0.05094092,-0.0033548358800000004,4.869,0,0
0.01778282,0.0028348379999999997,-0.035689580000000005,0.06137838,-0.0013625952799999998,4.87,0,0
-0.0003509000000000012,0.0010107559999999998,-0.030555054000000005,0.06306788,0.00035261471999999995,4.871,0,0
-0.017962020000000002,0.0019367200000000003,-0.018166162,0.05790076000000001,0.00187776472,4.872,0,0
-0.030730420000000005,0.00452974,-0.0033579280000000005,0.04910984000000001,0.0049452432,4.873,0,0
-0.035875000000000004,0.008740250000000001,0.0031890119999999997,0.03783286,0.008615088600000001,4.874,0,0
-0.03257608,0.013730226000000002,0.005585876,0.023305404000000005,0.010575770000000002,4.875,0,0
-0.024369500000000002,0.016812439999999998,0.00832625,0.010132404,0.011794190000000001,4.876,0,0
-0.01657008,0.012792940000000001,0.008294754000000001,0.0023501119999999993,0.012113534,4.877,0,0
-0.012785572000000002,0.0029479399999999996,0.0044945,-0.0027201680000000007,0.008800798,4.878,0,0
-0.010666271600000003,-0.0050022600000000006,0.0012592820000000007,-0.006535770000000001,0.004555730000000001,4.879,0,0
-0.0040564116,-0.010127358,-0.0010361359999999996,-0.008081094,0.0024468446000000003,4.88,0,0
0.0062851684,-0.013031984,-0.003725654,-0.011168574,-0.0005873294000000001,4.881,0,0
0.0125808484,-0.011163307,-0.0046517320000000004,-0.016978382,-0.0036773714000000006,4.882,0,0
0.012890118400000001,-0.007563327000000001,0.001053688,-0.022207562,-0.0033148924,4.883,0,0
0.010529298000000001,-0.006993747000000001,0.013635586,-0.023361980000000004,-0.0020662124000000006,4.884,0,0
0.005848174,-0.008388849,0.03231758,-0.018664168000000005,-0.0028348110000000004,4.885,0,0
-0.00047143699999999914,-0.010187887,0.053797258,-0.010279808000000001,-0.0030260090000000005,4.886,0,0
-0.005177917000000001,-0.012471264000000001,0.06950504,-0.0011676679999999997,-0.0026643890000000005,4.887,0,0
-0.004567553,-0.012488744,0.07058486000000001,0.006384476,-0.004787472000000001,4.888,0,0
-0.0022750896,-0.011077188000000002,0.04961316,0.008824116000000002,-0.0076154840000000005,4.889,0,0
-0.0042436656,-0.010517484,0.011232679999999998,0.0024260839999999994,-0.008652678000000002,4.89,0,0
-0.0081824346,-0.007841012,-0.029549980000000003,-0.007614916,-0.007535812,4.891,0,0
-0.0095334146,-0.002214272,-0.055456660000000005,-0.017721936,-0.0061989739999999995,4.892,0,0
-0.0070468566,0.004029428,-0.06175876400000001,-0.02727376,-0.003576602,4.893,0,0
-0.0026253199999999996,0.009025892,-0.048084344,-0.03560174,0.000931018,4.894,0,0
0.00356518,0.013685748,-0.024221424000000005,-0.04210326,0.004091404,4.895,0,0
0.008488364,0.01644698,-0.013065664,-0.045791479999999996,0.005480256,4.896,0,0
0.008706332,0.01731076,-0.015467084,-0.05044084000000001,0.004863152000000001,4.897,0,0
0.005066044,0.02172098,-0.019987320000000003,-0.0549764,0.0015184200000000004,4.898,0,0
0.0010490920000000002,0.02930108,-0.023035362,-0.05625870000000001,-0.00419602,4.899,0,0
-0.0013795900000000002,0.0362077,-0.023532102000000003,-0.05253718,-0.009127288,4.9,0,0
-0.007854673999999999,0.0423361,-0.010488742000000002,-0.046009959999999996,-0.012620966,4.901,0,0
-0.015337682000000002,0.048241780000000005,0.014248718000000002,-0.033990004,-0.013771102000000002,4.902,0,0
-0.01584248,0.0488774,0.032138958,-0.011399204000000001,-0.011270634000000002,4.903,0,0
-0.011078508,0.0416307,0.03837956000000001,0.015846456000000002,-0.007718430000000002,4.904,0,0
-0.0008602059999999988,0.027651180000000004,0.04032696000000001,0.040808976000000004,-0.0035865000000000003,4.905,0,0
0.020757854000000003,0.005115199999999999,0.03871786,0.062465456,0.00025228999999999985,4.906,0,0
0.044837934,-0.02483572,0.025253102,0.07708304000000002,0.0031850640000000005,4.907,0,0
0.056568280000000006,-0.05504522,0.008147261999999999,0.07482292,0.005189348,4.908,0,0
0.058798180000000005,-0.07803974000000001,-0.004621978000000001,0.058581446,0.006717366,4.909,0,0
0.052540819999999995,-0.0871278,-0.020439658,0.036350766,0.007393468,4.91,0,0
0.036184216000000005,-0.07679344,-0.036924038000000006,0.011725145999999997,0.0062990120000000005,4.911,0,0
0.020050574,-0.052235460000000004,-0.04145032,-0.009298954,0.003843280000000001,4.912,0,0
0.009593592000000001,-0.023299719999999996,-0.029864420000000003,-0.021815114,-0.0002842320000000006,4.913,0,0
-0.0016532879999999997,0.00480006,-0.015588980000000002,-0.024270068000000002,-0.004695154,4.914,0,0
-0.014139048000000001,0.024386119999999997,0.0002981400000000023,-0.019576994000000004,-0.008285886000000001,4.915,0,0
-0.022709904000000003,0.03515982,0.02217186,-0.01234092,-0.010402822000000003,4.916,0,0
-0.029521802,0.041589759999999996,0.0365885,-0.006448562,-0.010114592,4.917,0,0
-0.034556100000000006,0.0368448,0.039539000000000005,-0.003330518,-0.007324176000000001,4.918,0,0
-0.031917956,0.02567162,0.032933660000000003,-0.0037129860000000006,-0.0030671960000000003,4.919,0,0
-0.021685496,0.023448459999999997,0.023419000000000002,-0.006802380000000001,0.0013408719999999997,4.92,0,0
-0.007883016000000003,0.026141320000000003,0.015289393000000004,-0.009940934000000002,0.005731014,4.921,0,0
0.008973044,0.02361042,0.002974173,-0.010661688,0.009812924,4.922,0,0
0.025646983999999998,0.0209749896,-0.010127387000000002,-0.008896014600000002,0.012664908,4.923,0,0
0.03672572,0.0201595496,-0.020003087,-0.005635278600000002,0.013493528000000001,4.924,0,0
0.04323426,0.015014067600000004,-0.029727327000000005,8.408139999999944e-05,0.013155226,4.925,0,0
0.04473802,-0.00018497239999999953,-0.0333731,0.0068871614,0.011865858,4.926,0,0
0.037632505999999996,-0.025004892400000003,-0.0244576,0.0140621374,0.009273442,4.927,0,0
0.023221586000000002,-0.040473602000000004,-0.01826532,0.02266334,0.0061443036000000005,4.928,0,0
0.005589126,-0.039058922,-0.016977640000000002,0.03106758,0.0034272435999999997,4.929,0,0
-0.018485574,-0.03465656,-0.01421836,0.03704312,0.0006552836000000002,4.93,0,0
-0.052026374,-0.02762674,-0.01977512,0.040041,-0.0023479163999999995,4.931,0,0
-0.08708160000000001,-0.011368944999999998,-0.03212988,0.03927254,-0.0042090604,4.932,0,0
-0.11726728,0.0010742549999999997,-0.03674222,0.033494380000000004,-0.005714796,4.933,0,0
-0.13855488000000002,-0.0011183249999999999,-0.028647016000000004,0.024305320000000005,-0.007136094,4.934,0,0
-0.143429,-0.010965125000000001,-0.016845518000000004,0.014286358,-0.006901604,4.935,0,0
-0.12658872,-0.024527545,-0.004748158000000002,0.0042136380000000005,-0.005384343800000001,4.936,0,0
-0.09274499400000001,-0.03531552,0.008664821999999999,-0.004054762,-0.0031366838000000015,4.937,0,0
-0.049398734,-0.03704088,0.018471542,-0.008842078,0.0010076102000000002,4.938,0,0
-0.0020568740000000037,-0.033521472000000004,0.021867058,-0.00846025,0.006437808200000001,4.939,0,0
0.040494326,-0.025095288,0.02340168,0.002200851999999998,0.0114141322,4.94,0,0
0.07299504600000001,-0.010212467999999999,0.02333604,0.022748212000000004,0.014863200000000002,4.941,0,0
0.09612452,0.004622191999999999,0.015226139999999999,0.04143883200000001,0.014743188000000003,4.942,0,0
0.11118306,0.015130832,0.0016304200000000005,0.05053398800000001,0.010029034000000001,4.943,0,0
0.11564440000000001,0.024423743999999997,0.005729740000000002,0.05184478000000001,0.0025820940000000022,4.944,0,0
0.10921912,0.03098372,0.03357302,0.041626090000000004,-0.005210665999999999,4.945,0,0
0.0980836,0.034595799999999996,0.06091854000000001,0.01844353,-0.011624546,4.946,0,0
0.08280066000000001,0.037145399999999995,0.08079483999999999,-0.006669910000000003,-0.015161914,4.947,0,0
0.061692620000000004,0.03732173999999999,0.08676202,-0.02613145,-0.015590860000000002,4.948,0,0
0.0390060062,0.030489112000000002,0.06350013999999998,-0.041516010000000006,-0.01389638,4.949,0,0
0.0188004862,0.015783372000000004,0.011436139999999997,-0.05242866,-0.011484378,4.95,0,0
0.00013150620000000005,-0.00011840799999999867,-0.04167146000000001,-0.05607986,-0.008993826,4.951,0,0
-0.0186949738,-0.009346528,-0.07111302,-0.05425456000000001,-0.006021672,4.952,0,0
-0.0371343938,-0.007938368000000001,-0.07360026,-0.049329100000000015,-0.0019296679999999994,4.953,0,0
-0.05919498000000001,-0.0016690599999999983,-0.058939124,-0.04324654,0.0026767720000000004,4.954,0,0
-0.08228658000000001,0.005956816000000002,-0.043968324,-0.03808454000000001,0.00653683,4.955,0,0
-0.09825988000000001,0.014221983,-0.0208437546,-0.034512940000000006,0.009439858000000002,4.956,0,0
-0.10507230000000001,0.016354263000000004,0.010567345400000002,-0.03222200000000001,0.010639548,4.957,0,0
-0.09978250000000001,0.003519663000000001,0.0346143054,-0.029781600000000005,0.009500706000000001,4.958,0,0
-0.07839317800000001,-0.013828277,0.0393240294,-0.02775744,0.007054127800000001,4.959,0,0
-0.045256358000000003,-0.020660813,0.027105769400000004,-0.02533034,0.004548839,4.96,0,0
-0.012218078,-0.020430712000000004,0.00955742,-0.019051262000000003,0.0022418746000000007,4.961,0,0
0.014570242000000002,-0.02122908,-0.006760219999999997,-0.009088521999999998,0.0005885766,4.962,0,0
0.033886322,-0.025166660000000004,-0.018691280000000005,0.0035018379999999993,0.00011296980000000001,4.963,0,0
0.0457559,-0.0232615,-0.023677798,0.018985138000000002,0.00022605720000000004,4.964,0,0
0.05285638,-0.017113698000000004,-0.010226898000000002,0.032506917999999996,0.000503452,4.965,0,0
0.05807822,-0.013701846000000004,-0.009586598000000002,0.03786992,0.000631988,4.966,0,0
0.06241796000000001,-0.0019603180000000026,-0.03682447800000001,0.035349648000000004,-0.000248588,4.967,0,0
0.06619822,0.027613242000000003,-0.046468168399999996,0.026668188000000002,-0.0016761512000000004,4.968,0,0
0.06924882,0.058862882000000005,-0.0290978104,0.014614254,-0.0019954146000000002,4.969,0,0
0.0705361,0.07630506000000001,-0.007993230399999997,0.00384844,-0.0023804874000000007,4.97,0,0
0.06561954,0.0782515,0.0230647296,-0.0037921400000000003,-0.003694297000000001,4.971,0,0
0.051722462,0.06285294000000001,0.0595233496,-0.00709277,-0.003940243,4.972,0,0
0.032630862,0.035723660000000004,0.06522344000000001,-0.006654258000000001,-0.0033655070000000002,4.973,0,0
0.012383422000000002,0.0029434199999999987,0.0634927,-0.006122046000000001,-0.0034674188,4.974,0,0
-0.0058670380000000015,-0.021320460000000003,0.06564754,-0.006307062,-0.00302701,4.975,0,0
-0.016196462,-0.019042960000000005,0.050397922000000005,-0.006774902000000001,-0.000925742,4.976,0,0
-0.014041798,-0.0010898800000000031,0.057050242,-0.009294760000000001,0.00042238819999999985,4.977,0,0
-0.005828718,0.005208755999999998,0.074801702,-0.013526312000000002,0.00035953419999999996,4.978,0,0
0.002501042,0.0038282759999999985,0.03840766200000001,-0.016888450000000003,-3.2619799999999955e-05,4.979,0,0
0.0064293906,0.0035956359999999984,-0.029887798000000004,-0.01848278,-0.0011670278,4.98,0,0
0.0014162346,-0.016866144000000003,-0.08449606,-0.01744458,-0.0030928858000000004,4.981,0,0
-0.0084660114,-0.05320672400000001,-0.137642,-0.013422771200000001,-0.004723678,4.982,0,0
-0.020163871400000002,-0.07333488,-0.17012266,-0.007911173200000001,-0.004909719999999999,4.983,0,0
-0.0351369314,-0.07452688,-0.150660936,-0.0020407392000000002,-0.00460126,4.984,0,0
-0.04939702,-0.07295056,-0.090706596,0.0042799408,-0.00428246,4.985,0,0
-0.05526582,-0.06472886,-0.024412996,0.014605740800000001,-0.002539204,4.986,0,0
-0.05513788,-0.04643847999999999,0.016641904000000003,0.029766352000000003,0.00025058200000000006,4.987,0,0
-0.053342,-0.026657072,0.032376964,0.045534514000000005,0.001847756,4.988,0,0
-0.05312108,-0.009520472000000002,0.032661984000000005,0.05999998000000001,0.0024649620000000002,4.989,0,0
-0.05719744,0.002580007999999999,0.016616824000000002,0.07196530000000001,0.0030101224,4.99,0,0
-0.06321911999999999,0.011353967999999999,-0.007121795999999999,0.07666012,0.0030770164,4.991,0,0
-0.07020362,0.016359615400000003,-0.022177196000000003,0.07130086000000001,0.0032000924,4.992,0,0
-0.07274016000000001,0.015743881400000003,-0.030252084,0.06035252,0.0040143584,4.993,0,0
-0.06418442,0.009505693400000001,-0.026484588,0.04702920000000001,0.0049687024,4.994,0,0
-0.046335918000000004,-0.0013905666,-0.0034735879999999997,0.030262051999999998,0.005802870000000001,4.995,0,0
-0.023402078,-0.006567260600000001,0.030708631999999996,0.009820671999999999,0.006337434000000001,4.996,0,0
0.0004107420000000004,0.0002889719999999993,0.057634192,-0.009716148,0.005967900000000001,4.997,0,0
0.020587602,0.008132238,0.07497434,-0.025245608000000003,0.005060424000000001,4.998,0,0
0.039533462000000005,0.017889726,0.08048340000000001,-0.040453488,0.0041661020000000005,4.999,0,0
0.058475280000000004,0.038303866000000006,0.06373371400000001,-0.05430456000000001,0.0030238360000000007,5.0,0,0
0.07168922,0.054833160000000006,0.03737167400000001,-0.06388544,0.0004562739999999998,5.001,0,0
0.08044842,0.05471092,0.016354254,-0.0711619,-0.0027200760000000005,5.002,0,0
0.0874356,0.04518254000000001,0.004862474,-0.07568662,-0.00513044,5.003,0,0
0.08751347999999999,0.03055356,-0.0016942060000000015,-0.07496752,-0.007620048000000001,5.004,0,0
0.08054426,0.007999260000000001,-0.003930180000000001,-0.06847578000000001,-0.009206778,5.005,0,0
0.07253402,-0.01566924,-0.014674399999999999,-0.05626276,-0.00848558,5.006,0,0
0.06480564000000001,-0.028603919999999998,-0.03099214,-0.039557098,-0.006983372,5.007,0,0
0.05367628000000001,-0.03002444,-0.035084718,-0.022120298000000004,-0.005688842,5.008,0,0
0.039560614,-0.027241400000000002,-0.024941757999999994,-0.006137658,-0.00319963,5.009,0,0
0.027309408,-0.017154700000000002,0.0017387220000000085,0.006508822,-0.000299896,5.01,0,0
0.014792640000000001,0.006293200000000002,0.04852198200000001,0.013849202000000001,0.0011373779999999999,5.011,0,0
0.0003785999999999989,0.03854666,0.090537082,0.016532380000000003,0.002325812,5.012,0,0
-0.0104232,0.07520202000000001,0.092015262,0.015139394,0.003552262,5.013,0,0
-0.018272714000000002,0.10583898000000001,0.06329862200000001,0.012428974,0.0036747719999999998,5.014,0,0
-0.026917188,0.11475550000000001,0.016342822000000007,0.010929734,0.0029592860000000006,5.015,0,0
-0.03375902,0.10107119400000002,-0.029863757999999997,0.010014834,0.0018879226000000002,5.016,0,0
-0.04060764000000001,0.056999974,-0.045580278,0.009909654,-9.186540000000014e-05,5.017,0,0
-0.05100566000000001,-0.021949826,-0.021833959999999996,0.010327384,-0.0025947334000000002,5.018,0,0
-0.05793554000000001,-0.09959142600000001,0.024693500000000007,0.010314034,-0.0040846274000000005,5.019,0,0
-0.05761188000000001,-0.14913220600000002,0.050791600000000006,0.009760392,-0.0045462586,5.02,0,0
-0.053398520000000005,-0.17035662000000001,0.03514298000000002,0.009962092,-0.0038442972,5.021,0,0
-0.04089342,-0.14904552000000004,-0.011299499999999994,0.012306152,-0.0015220911999999998,5.022,0,0
-0.019185280000000002,-0.09013994,-0.06950589999999998,0.016192808000000003,0.0014480767999999998,5.023,0,0
0.0024111800000000023,-0.028810240000000008,-0.11484905999999999,0.020201118,0.0034629267999999997,5.024,0,0
0.01875552,0.02275436,-0.11956968199999998,0.02192724,0.0042319079999999995,5.025,0,0
0.029600820000000003,0.06141112000000001,-0.091648802,0.022158200000000003,0.005175986,5.026,0,0
0.03146452,0.07014984,-0.057784381999999995,0.0230811,0.006435405999999999,5.027,0,0
0.023741394000000006,0.05753812400000001,-0.039996842000000005,0.02518172,0.006953482,5.028,0,0
0.014430668000000002,0.046471644000000006,-0.04789468200000001,0.030416200000000004,0.007419254000000001,5.029,0,0
0.0044059480000000015,0.034366004000000006,-0.04888892,0.04018258,0.007845108,5.03,0,0
-0.007673792000000001,0.016158688000000004,-0.02577602,0.05032392,0.006236780800000001,5.031,0,0
-0.016132012,-0.002353152,0.007734959999999996,0.05477262,0.0033547188000000003,5.032,0,0
-0.019277266,-0.015150056000000002,0.04259902,0.05229160000000001,0.0014916347999999998,5.033,0,0
-0.020349080000000002,-0.019911316000000002,0.07513654,0.04155224,0.00011741099999999992,5.034,0,0
-0.018870458,-0.019166376,0.09289902,0.0237971,-0.000462589,5.035,0,0
-0.012385396,-0.018604716,0.09267230000000001,0.0026759800000000014,0.0012646222,5.036,0,0
-0.004712176,-0.016321096,0.09895870000000001,-0.01953366,0.0035370622000000006,5.037,0,0
-0.0006992604,-0.006297736000000001,0.10698090000000002,-0.03910922,0.004795852200000001,5.038,0,0
0.0007758476000000003,-0.006048076,0.09788851400000001,-0.0536792,0.005972272,5.039,0,0
0.0031877336000000005,-0.024178016000000004,0.071850794,-0.06384546,0.006280948000000001,5.04,0,0
0.005550631600000001,-0.036525640000000005,0.013965934000000006,-0.07033272,0.0045658946,5.041,0,0
0.007092371600000001,-0.03450902000000001,-0.07102166600000001,-0.07262308,0.0025168146,5.042,0,0
0.008325508,-0.028959100000000005,-0.127754066,-0.07149342,0.0005528365999999999,5.043,0,0
0.006715160000000001,-0.017237360000000004,-0.13523516,-0.06637202,-0.0030746294000000007,5.044,0,0
0.0009712920000000012,-0.0031908014,-0.10429548,-0.05636008000000001,-0.007765943400000001,5.045,0,0
-0.006429767999999999,1.6598600000000685e-05,-0.032479280000000006,-0.04244403,-0.012190326000000001,5.046,0,0
-0.011904654,0.009488538600000002,0.0373328,-0.025724050000000002,-0.016739364,5.047,0,0
-0.012524398000000003,0.0355472986,0.06959818,-0.009134489999999999,-0.020587120000000004,5.048,0,0
-0.006998398000000001,0.0614555386,0.08997664,0.004783570000000001,-0.021432780000000002,5.049,0,0
0.0031488820000000004,0.08941642,0.09628876,0.01596509,-0.019492156,5.05,0,0
0.014622662000000002,0.12494654000000001,0.06300032400000001,0.024281280000000002,-0.016500566,5.051,0,0
0.023656368,0.14762560000000002,0.005697243999999997,0.029863380000000002,-0.012028742000000002,5.052,0,0
0.0286309,0.1253012,-0.058875936,0.03489864,-0.006523676000000001,5.053,0,0
0.02843984,0.07202816000000001,-0.119474436,0.03933086,-0.00218189,5.054,0,0
0.024153478000000003,0.02661214000000001,-0.154185216,0.04130696,0.0014417180000000003,5.055,0,0
0.018071284,-0.019156499999999993,-0.1391232,0.041834380000000004,0.005758208000000001,5.056,0,0
0.008538744000000001,-0.0759687,-0.06440499999999999,0.041528920000000004,0.009416364,5.057,0,0
-0.0014306759999999992,-0.1083055,0.029785199999999998,0.039322060000000006,0.011441658,5.058,0,0
