bandpass 1,bandpass 2,bandpass 3,bandpass 4,bandpass 5,time,onset,mark
0.003751412,0.0014966332,0.002430765,-0.001803698,-0.00110218,4.044,1,1
0.005845592,0.0017092572000000001,0.004046701,-0.002612634,-0.001162106,4.045,0,0
0.00708696,0.0015399842000000002,0.0060813410000000005,-0.002973054,-0.000561972,4.046,0,0
0.006987814000000001,0.002205831,0.005898365,-0.0018946460000000003,0.0004421920000000001,4.047,0,0
0.008087298000000001,0.003264525,0.005419615000000001,-0.0015216040000000002,0.0009508986,4.048,0,0
0.007127618,0.0036000349999999997,0.00453487,-0.0017852340000000001,0.00033642260000000027,4.049,0,0
0.0038418920000000004,0.003788667,0.0014611700000000001,-0.0009627300400000002,-0.00036275739999999993,4.05,0,0
0.0016895779999999997,0.004485478,-0.0016860420000000002,-8.672040000000099e-06,-0.0008922486,4.051,0,0
-0.00021567000000000016,0.004297706,-0.0030423940000000003,8.21599599999998e-05,-0.0015798658,4.052,0,0
-0.0034865580000000003,0.0024152046000000004,-0.00391196,0.00067281596,-0.0021358724,4.053,0,0
-0.005549942,0.0010118386000000001,-0.0037117480000000004,0.00185412196,-0.0020422344,4.054,0,0
-0.004876506000000001,0.0005250164000000001,-0.00167075,0.002040984,-0.0017159484,4.055,0,0
-0.004225846,0.0001184858000000001,0.0004251340000000001,0.0012189759999999999,-0.0022454912,4.056,0,0
-0.0037752534000000003,-0.00043693916,0.00188085,0.00030598600000000017,-0.0025169140000000003,4.057,0,0
-0.0014653214,-0.00135461976,0.002546972,-0.000273764,-0.00119914,4.058,0,0
0.0009890106000000002,-0.00213705176,0.0006624500000000002,-0.00062361314,0.0009182819999999999,4.059,0,0
0.0021005126000000003,-0.00268980356,-0.0029241040000000003,-0.0005011051399999999,0.00228462,4.06,0,0
0.0038438026,-0.00288128616,-0.005310662000000001,-1.6371399999999536e-06,0.0033248059999999996,4.061,0,0
0.00573284,-0.0026698732,-0.0066465944000000015,0.00015889686000000004,0.00396588,4.062,0,0
0.005564516,-0.0018056644,-0.006464186400000001,-0.0001635451399999999,0.0028988079999999997,4.063,0,0
0.00522349,-0.0007072574000000001,-0.0027284284000000008,-0.001222152,0.0011287400000000003,4.064,0,0
0.005617382000000001,-1.565180000000002e-05,0.0023572916,-0.0028313720000000004,-0.00044920199999999995,4.065,0,0
0.003815012,0.0004217014,0.0062989576,-0.004511704,-0.0025330680000000003,4.066,0,0
0.0004980340000000001,0.0007576773999999999,0.008896267999999999,-0.004967728,-0.00381159,4.067,0,0
-0.001391444,0.0012144386000000002,0.009272732,-0.002695496,-0.0027913800000000004,4.068,0,0
-0.0036660959999999998,0.0012766455999999999,0.007087761999999999,0.0010507259999999997,-0.0012882579999999998,4.069,0,0
-0.007087340000000001,0.0007720460000000002,0.003564216000000001,0.003679132,-0.00045154380000000005,4.07,0,0
-0.008400318000000002,-0.00017001400000000007,-0.000497698,0.005192616400000001,0.0002591901999999999,4.071,0,0
-0.007871784,-0.001781206,-0.0038756700000000003,0.0061019064,0.00031215820000000006,4.072,0,0
-0.00815945,-0.003279552,-0.005524412,0.0048559124000000006,-0.0006480310000000002,4.073,0,0
-0.006783958000000001,-0.0033985131999999998,-0.00686272,0.0027578704,-0.0012281790000000002,4.074,0,0
-0.0028867040000000004,-0.0024482071999999996,-0.008411234,0.0014624784000000003,-0.0010193332000000002,4.075,0,0
-0.00042240600000000006,-0.0012708552,-0.007794712,0.00014575799999999996,-0.00037544680000000004,4.076,0,0
0.001376554,0.00033252679999999993,-0.004243199999999999,-0.00180365,0.00042722040000000016,4.077,0,0
0.004395482,0.0018492808,-0.0001518919999999994,-0.003621778,0.00038695760000000004,4.078,0,0
0.006188126,0.0024218900000000003,0.004145148,-0.004220056000000001,-0.00010860219999999997,4.079,0,0
0.005707626,0.002592736,0.0069192659999999994,-0.003967106000000001,-0.0005249782000000001,4.08,0,0
0.005682344000000001,0.002522364,0.005613957999999999,-0.001300852,0.00031037940000000003,4.081,0,0
0.005681092000000001,0.0023781220000000003,0.0023562939999999992,0.003394714,0.0022113622,4.082,0,0
0.003243618,0.002536932,0.0004477159999999999,0.006308898,0.0032324622000000003,4.083,0,0
-0.00011410199999999982,0.0022007610000000003,0.0011785760000000002,0.00661343,0.0032866640000000008,4.084,0,0
-0.002624568,0.0012727170000000002,0.005316038,0.006151670800000001,0.0027421380000000003,4.085,0,0
-0.0054995600000000006,-3.436099999999979e-05,0.011181298000000001,0.003925964800000001,0.0008672720000000001,4.086,0,0
-0.008335476,-0.001384421,0.012557448,3.768000000001215e-07,-0.0020237840000000003,4.087,0,0
-0.008280646,-0.0016441189999999999,0.006601546000000001,-0.0020121832,-0.003111446000000001,4.088,0,0
-0.006848040000000001,-0.0016806928000000004,-0.003561553999999999,-0.0024814572000000003,-0.002811380000000001,4.089,0,0
-0.005958176000000001,-0.0026076328,-0.013114994000000001,-0.0027064940000000003,-0.0025858120000000003,4.09,0,0
-0.0030000700000000005,-0.0022575368,-0.019818094,-0.002571208,-0.0016710720000000002,4.091,0,0
0.00136841,0.00031593520000000033,-0.021903544,-0.002122572,-0.000309368,4.092,0,0
0.0039501860000000005,0.0026926092000000004,-0.016899168,-0.00155778,0.000585054,4.093,0,0
0.006354702,0.0044680480000000005,-0.008961268,-0.000994048,0.001260614,4.094,0,0
0.009192430000000001,0.005999136,-0.0031483224,-0.00040424400000000006,0.002561368,4.095,0,0
0.009494882000000001,0.005871704000000001,0.0018085876000000002,-0.00013369800000000007,0.003294388,4.096,0,0
0.007843396,0.003612704000000001,0.0061913316,-0.000315532,0.0029727692,4.097,0,0
0.006590026,-0.0016864760000000001,0.008839115600000001,-0.000920698,0.0022707574,4.098,0,0
0.004427256199999999,-0.007832178,0.011551095600000002,-0.001429034,0.0009467294,4.099,0,0
0.0011297362,-0.010398161999999999,0.013709930000000002,-0.0015660799999999999,-0.0010731446,4.1,0,0
-0.0007907337999999999,-0.010664894,0.013153892000000002,-0.0012811908,-0.0029002846,4.101,0,0
-0.0020268858000000002,-0.010572755999999999,0.0100010368,-0.0011631827999999999,-0.0041140918,4.102,0,0
-0.0041731398,-0.0079251816,0.0034691968,-0.0009711468,-0.005160028,4.103,0,0
-0.005840964000000001,-0.00360809764,-0.0049561832,-6.95448e-05,-0.0049489254,4.104,0,0
-0.005615974000000001,-0.00101199564,-0.0101997232,0.0007625732000000002,-0.0028137114,4.105,0,0
-0.005514602,0.0009348583600000002,-0.0114973864,0.0011541580000000002,-0.0004591333999999997,4.106,0,0
-0.005816836000000001,0.00295969436,-0.010850703199999999,0.0014463359999999999,0.0009842112,4.107,0,0
-0.003751868000000001,0.004032095960000001,-0.006965581199999999,0.0012980300000000001,0.0017676292000000002,4.108,0,0
-0.001000626,0.004405836,-0.0008904792000000002,0.0007145580000000002,0.0018532816000000002,4.109,0,0
0.0002599139999999999,0.0041299658,0.0027673768000000005,0.00025354999999999996,0.0014064916000000002,4.11,0,0
0.0022770359999999996,0.0032305678,0.0032020620000000003,-8.758240000000003e-05,0.0014206736,4.111,0,0
0.005109878,0.0023133778000000004,0.00378091,-5.546040000000004e-05,0.0020271570000000004,4.112,0,0
0.005614544,0.0021111118,0.005721528,8.512959999999997e-05,0.0023156654000000003,4.113,0,0
0.00489416,0.0025394078,0.007578286000000001,-0.00016414020000000005,0.0020532344000000003,4.114,0,0
0.005146951999999999,0.0030900320000000004,0.009682610000000001,-0.0005721478,0.0015884284,4.115,0,0
0.003441964,0.003441862,0.011254796000000001,-0.000615904,0.00042850300000000016,4.116,0,0
-7.133599999999975e-05,0.0033777319999999996,0.009231216,-0.00019660980000000004,-0.0009332470000000001,4.117,0,0
-0.001960982,0.002871908,0.003631636000000001,0.0004104842,-0.0008111210000000002,4.118,0,0
-0.003624158,0.0021489722,-0.0024835039999999992,0.001012148,-0.00038377220000000007,4.119,0,0
-0.0063581,0.0014409618000000002,-0.007557304000000001,0.0013946795999999998,-0.0008882642,4.12,0,0
-0.007376454000000001,0.0005635858,-0.010987952,0.0018087282,-0.0006722094,4.121,0,0
-0.006151528000000001,-0.0003741642000000001,-0.010768336,0.0015741582,2.7226799999999988e-05,4.122,0,0
-0.005573652,-0.0010849562000000003,-0.00718122,-0.0002760678000000001,-0.0004991036000000001,4.123,0,0
-0.004389552,-0.0023329284000000003,-0.003400196,-0.0025868278000000006,-0.0010488104,4.124,0,0
-0.0010333760000000003,-0.0036082180000000003,-0.0018847700000000002,-0.0053957858000000004,-0.0020104784000000006,4.125,0,0
0.0016508780000000002,-0.004540134,-0.002319446,-0.0073330518,-0.0030895518000000005,4.126,0,0
0.00333546,-0.005584388000000001,-0.0035480140000000004,-0.0043681580000000005,-0.0006465500000000001,4.127,0,0
0.006202356000000001,-0.005512912000000001,-0.005211838000000001,0.0006439759999999992,0.003116172,4.128,0,0
0.008642068000000001,-0.004626430000000001,-0.004848694000000001,0.003358578,0.0049592360000000005,4.129,0,0
0.008316908,-0.0024768200000000007,-0.00180152,0.0060514,0.006754576,4.13,0,0
0.007907826,0.0017381939999999998,0.003797424,0.007911352,0.0076679048,4.131,0,0
0.007627054000000001,0.005124982,0.00982204,0.005040841800000001,0.0048109448,4.132,0,0
0.004066564,0.005931594,0.010069756000000001,0.0006352718000000002,0.0003822748,4.133,0,0
-8.953399999999984e-05,0.0063859758,0.0058998079999999994,-0.0011164742,-0.0021952012,4.134,0,0
-0.0021330559999999995,0.0058902978,0.0028149599999999987,-0.0006568341999999999,-0.0024955938,4.135,0,0
-0.0047651279999999996,0.0032555538000000003,-0.0006436560000000007,0.00020895980000000015,-0.0020477886000000002,4.136,0,0
-0.0077663720000000006,0.0013333618,-0.00405226,0.00011246520000000011,-0.001881983,4.137,0,0
-0.007900044,0.0004831298,-0.0019008420000000005,2.5567200000000062e-05,-0.000981885,4.138,0,0
-0.006688796,-0.00035723400000000006,0.0024110760000000003,-0.0005369248000000001,-0.000521883,4.139,0,0
-0.006688748,-0.00206221,0.003749538,-0.0022994208,-0.0015924924000000002,4.14,0,0
-0.0050697704000000005,-0.0036033880000000003,0.0033899252000000003,-0.0027036368,-0.0014470204,4.141,0,0
-0.0016208184000000001,-0.0036596284000000004,0.0021435271999999997,-0.001359016,-0.00010173600000000006,4.142,0,0
0.0006141175999999997,-0.0034760834000000006,0.0007908451999999999,0.00020387400000000005,0.0004900479999999999,4.143,0,0
0.0028276136,-0.0028213054200000006,-0.0004615108,0.0017517818,0.00147953,4.144,0,0
0.0062349116,-0.0009175794199999999,-0.0016520248,0.0021165898,0.0024716002000000005,4.145,0,0
0.008048086000000001,0.0008021265800000001,-0.0024876560000000004,0.0003516137999999998,0.0014730322,4.146,0,0
0.007329414000000001,0.00115010298,-0.003256114,-0.0016397342000000002,-0.0001823258,4.147,0,0
0.0064069544,0.00131488798,-0.0038373100000000005,-0.0024224262,-0.0005807248,4.148,0,0
0.004603994400000002,0.001610422,-0.0035893150000000005,-0.0023378160000000004,-0.0012234887999999998,4.149,0,0
0.0006828504,0.0017854060000000002,-0.0026717090000000004,-0.001103438,-0.0022546230000000003,4.15,0,0
-0.0026750596,0.0018939080000000001,-0.0017776576,0.000565214,-0.002153915,4.151,0,0
-0.0046080876000000005,0.0016535139999999998,-0.0003921330000000001,0.0014012342000000002,-0.002051629,4.152,0,0
-0.006723668,0.0009798439999999997,0.0010542930000000002,0.0012685942000000001,-0.0032240040000000004,4.153,0,0
-0.008454554,0.0002447619999999999,0.0018688160000000001,0.0007729422000000002,-0.0036664080000000003,4.154,0,0
-0.008032778,-0.0006794780000000001,0.0024918860000000004,0.00044716420000000007,-0.0024008180000000003,4.155,0,0
-0.0071371740000000005,-0.0010904360000000002,0.0031734006,0.00026450819999999996,-0.0015290520000000004,4.156,0,0
-0.007547672,-0.002229688,0.003619946,0.0003202846,-0.0008208840000000002,4.157,0,0
-0.006584834,-0.003896758,0.003162084,0.0003331466,0.0005944854,4.158,0,0
-0.0036147920000000004,-0.002851946,0.002200644,-0.0002719574000000001,0.0014389692,4.159,0,0
-0.001374978,-0.0016158039999999995,0.0006215139999999999,-0.0018619054000000002,0.00013824119999999984,4.16,0,0
0.0003955059999999999,-0.0017050193999999996,-0.000490844,-0.0033825474,-0.0012293708000000003,4.161,0,0
0.00417589,-0.00031446740000000005,-0.0008749634000000001,-0.003937258,-0.0022181268000000002,4.162,0,0
0.005644482,0.0028592885999999995,-0.0003919774,-0.0027342219999999997,-0.0038497982000000003,4.163,0,0
0.005049224,0.0027722446,0.0026025226000000005,-4.2996000000000006e-05,-0.003455198,4.164,0,0
0.0039671408,-0.0008263593999999997,0.005660136600000001,0.001966368,-0.0010724879999999997,4.165,0,0
0.00020169079999999987,-0.003138012,0.005956345800000001,0.0030557306,0.0016150980000000001,4.166,0,0
0.00030809079999999985,-0.003702538,0.002602775200000001,0.0035134336000000005,0.005349768,4.167,0,0
0.0064270868000000005,-0.003928495999999999,-0.0042639828,0.0023735696000000005,0.009780212,4.168,0,0
0.014123602800000001,-0.002843209999999999,-0.0111509828,0.00024430759999999996,0.011996020000000001,4.169,0,0
0.02357452,0.0012781900000000002,-0.014099026800000003,-0.0006472164000000001,0.012577714,4.17,0,0
0.03392954,0.0049274720000000004,-0.013892212400000003,-0.001307943,0.01154247,4.171,0,0
0.03589714,0.00707888,-0.009898438400000003,-0.002283826,0.007300150000000001,4.172,0,0
0.029290040000000003,0.00846981,-0.0006775984000000007,-0.0021491130000000002,0.0019445300000000012,4.173,0,0
0.018099200000000003,0.007762632,0.008633221600000001,-0.0015387250000000001,-0.0032943900000000003,4.174,0,0
0.0009886999999999995,0.0062337144599999995,0.0131694256,-0.0008524330000000003,-0.008579650000000001,4.175,0,0
-0.017190320000000002,0.0042935084600000005,0.014701198,0.0005366149999999997,-0.012906460000000002,4.176,0,0
-0.03247064,0.00114455446,0.015509144,0.0021266590000000004,-0.014875860000000001,4.177,0,0
-0.044219060000000004,-0.00226624554,0.012735162,0.0028485140000000003,-0.01537424,4.178,0,0
-0.0521936,-0.00500729554,0.004220902,0.002865026,-0.0152168,4.179,0,0
-0.05257878,-0.007399238,-0.005157498,0.0022561414000000003,-0.012994254,4.18,0,0
-0.044919020000000004,-0.008209946000000001,-0.010720041999999999,0.0015427140000000002,-0.00885618,4.181,0,0
-0.03315679,-0.0070116150000000006,-0.014158991999999999,0.0010514180000000001,-0.004264194000000001,4.182,0,0
-0.01696677,-0.005059239000000001,-0.014685128,0.0002843215999999999,0.0009953259999999997,4.183,0,0
0.002455109999999999,-0.0024065329999999998,-0.009828138,-0.0004770464000000001,0.006763786,4.184,0,0
0.02021417,4.584159999999993e-05,-0.003074988,-0.0003503598,0.01124624,4.185,0,0
0.03354689,0.0017668356000000002,0.0005688900000000001,-0.00029592,0.013700005999999999,4.186,0,0
0.04341964,0.0033328766000000004,0.0024056503999999998,-0.0012159660000000002,0.01456826,4.187,0,0
0.04721692,0.0028135489800000003,0.0040498064,-0.0016373975999999998,0.01345295,4.188,0,0
0.04267418,0.0013047769800000005,0.0031558144000000004,-0.0013521252,0.0102267782,4.189,0,0
0.033439272,0.0019737903800000002,0.0005844484000000001,-0.0012728648,0.0064689301999999995,4.19,0,0
0.020464192,0.00207473438,-0.0016681696000000004,-0.0012707067999999998,0.0024419921999999997,4.191,0,0
0.0037501519999999997,0.0003761363800000001,-0.003320688,-0.0005681288,-0.0023408078000000006,4.192,0,0
-0.012282148,-6.131799999999988e-05,-0.0046196006,7.566360000000001e-05,-0.0065709578,4.193,0,0
-0.024372727999999996,-0.00026576399999999993,-0.004484600599999999,8.043820000000002e-05,-0.009828746,4.194,0,0
-0.033884779999999996,-0.002070688,-0.0018057886,0.0001432868,-0.012351258,4.195,0,0
-0.039609280000000004,-0.0036529540000000004,0.0022164214000000007,0.0007265784000000001,-0.012541232,4.196,0,0
-0.03858866,-0.0046705819999999995,0.005097355400000001,0.0016598664000000002,-0.009237134,4.197,0,0
-0.03263576,-0.0053740820000000005,0.00595498,0.0016705582000000002,-0.005143492,4.198,0,0
-0.023095028,-0.004975906,0.005522822,0.0007527032000000003,-0.00152259,4.199,0,0
-0.009289788000000002,-0.0039636407999999995,0.0031341500000000005,8.429620000000027e-05,0.00334121,4.2,0,0
0.006513032,-0.0024618288000000004,-0.00047703999999999997,-5.755799999999922e-06,0.007967182,4.201,0,0
0.020244092,0.00013679319999999992,-0.0039098860000000004,-0.00023173180000000005,0.010427144000000001,4.202,0,0
0.030977192,0.0030428792,-0.006547696,-8.015400000000003e-05,0.012214222000000002,4.203,0,0
0.038476500000000004,0.005326101200000001,-0.0074723160000000005,0.001343692,0.01408148,4.204,0,0
0.04010082,0.007851612000000001,-0.005213026000000001,0.002167028,0.013071412000000001,4.205,0,0
0.03521378,0.00987146,-0.00021176600000000082,0.000723736,0.008682290000000002,4.206,0,0
0.0266030728,0.009666966,0.004281874,-0.00151316,0.00338469,4.207,0,0
0.015067072800000001,0.008325054,0.007503348,-0.002798724,-0.0017992899999999996,4.208,0,0
0.0006937527999999991,0.0063875498,0.009464274000000002,-0.004251609999999999,-0.00718175,4.209,0,0
-0.012530147200000001,0.0026135177999999995,0.009284960000000002,-0.004974674,-0.011398822000000001,4.21,0,0
-0.022213687200000002,-0.0015013402,0.00754393,-0.0019681219999999997,-0.011985116,4.211,0,0
-0.02992128,-0.0040280182000000005,0.0055671900000000005,0.0022075280000000007,-0.010613894,4.212,0,0
-0.034045320000000004,-0.0058732962,0.0033391280000000002,0.004588120000000001,-0.008633072,4.213,0,0
-0.03170056,-0.007214582,0.00098717,0.006636032000000001,-0.004742140000000001,4.214,0,0
-0.025619484,-0.007599008000000001,-0.0015751740000000006,0.007144114800000001,-0.000596196,4.215,0,0
-0.01731101,-0.007144742,-0.004237124000000001,0.0042957488000000005,0.0019137380000000003,4.216,0,0
-0.005111910000000002,-0.0059712872000000005,-0.004877884000000001,0.0011925748,0.004246748000000001,4.217,0,0
0.007737829999999999,-0.004033927200000001,-0.0035027420000000014,-0.0009798872,0.006167418,4.218,0,0
0.01710665,-0.0016879692000000006,-0.0007811300000000005,-0.0035219612000000006,0.006516092,4.219,0,0
0.024434294000000002,0.0008249908000000001,0.0021570319999999997,-0.0054577340000000005,0.006370764,4.22,0,0
0.029572340000000003,0.0033160948,0.00543343,-0.006502174000000001,0.005636762,4.221,0,0
0.028955260000000003,0.004881148,0.010255130000000001,-0.00638942,0.00414836,4.222,0,0
0.023979950000000003,0.0057499100000000004,0.013468776000000002,-0.004698436000000001,0.002726908,4.223,0,0
0.017238314000000005,0.006527054,0.012504442000000003,-0.002439766,0.0006754520000000001,4.224,0,0
0.007270433999999999,0.006585476000000001,0.007885284000000001,-0.00010925800000000004,-0.002275384,4.225,0,0
-0.005026946000000001,0.005245108800000001,-0.0003780739999999991,0.0018748220000000002,-0.005010540000000001,4.226,0,0
-0.014989566,0.0034370548,-0.011341453999999999,0.002607026,-0.007604530000000001,4.227,0,0
-0.021566656,0.0011701428000000002,-0.019777494,0.0022378800000000003,-0.010016510000000001,4.228,0,0
-0.0263443,-0.0018781612,-0.02257268,0.0017056838000000002,-0.010414922,4.229,0,0
-0.027041120000000002,-0.004363089200000001,-0.020391866,0.0009506678000000001,-0.008460554,4.23,0,0
-0.02271317,-0.0059765,-0.014334125999999999,-2.1102199999999908e-05,-0.0059727546,4.231,0,0
-0.016902946000000002,-0.006938208,-0.008208572,-0.0004517192000000001,-0.0034441826000000003,4.232,0,0
-0.009551704000000001,-0.00691336,-0.004312296,-0.00033387520000000004,-0.00021735060000000026,4.233,0,0
0.0006981359999999994,-0.005908028,-0.0022941454,-0.00034565280000000006,0.0028658614,4.234,0,0
0.010256016,-0.0044057288,-0.0014076014600000002,-0.0005438368,0.0047642454,4.235,0,0
0.017288686,-0.0022973448,-0.0009800994600000002,-0.0007228488000000001,0.006341478,4.236,0,0
0.023202981999999997,-0.00010581280000000021,-0.0007750134600000001,-0.0012478738,0.008089952,4.237,0,0
0.02622576,0.0014830511999999998,-0.00051585746,-0.001900991,0.00840977,4.238,0,0
0.024138260000000005,0.0029455692,-4.8036059999999976e-05,-0.0020014804,0.00630273,4.239,0,0
0.019102670000000002,0.004322561999999999,0.002026586,-0.0009752584000000001,0.00411176,4.24,0,0
0.012521772,0.0048031459999999995,0.007114064,0.0006779916000000001,0.0025148201999999997,4.241,0,0
0.0033815519999999995,0.004934018,0.014176844000000001,0.0015697616,-0.0004236378,4.242,0,0
-0.006362368,0.005272848,0.023085071999999998,0.0014469608000000002,-0.0035777858000000003,4.243,0,0
-0.013975028,0.0036188300000000004,0.02973558,0.0009597500000000002,-0.005111199800000001,4.244,0,0
-0.019551138000000003,0.00028960200000000035,0.02558274,0.00035092220000000016,-0.0062182018,4.245,0,0
-0.023389720000000003,-0.0024485339999999996,0.01381642,0.0004568522000000001,-0.006753104,4.246,0,0
-0.02316276,-0.004661724,0.0026547199999999993,0.0018291822,-0.004858318,4.247,0,0
-0.019184706000000003,-0.006547006,-0.00817884,0.0031084121999999997,-0.0020385959999999997,4.248,0,0
-0.014116482,-0.006768496000000001,-0.016597992000000002,0.0035998128000000002,0.0002516019999999999,4.249,0,0
-0.006872321999999998,-0.005443358000000001,-0.016593872,0.003423848600000001,0.00255314,4.25,0,0
0.0022472580000000007,-0.004023192,-0.012314292000000001,0.0027809588,0.004647534,4.251,0,0
0.009915618000000001,-0.002286126,-0.010078616000000002,0.0017310768,0.005072364,4.252,0,0
0.015492544000000004,0.00048144400000000014,-0.009823756000000001,0.0004420048,0.0042307972,4.253,0,0
0.020316380000000002,0.00472598,-0.010566324,-0.00027290380000000007,0.0036133480000000006,4.254,0,0
0.021961420000000002,0.008781302000000001,-0.00991245,-0.0005259298000000001,0.002252332,4.255,0,0
0.019114212,0.01190951,-0.0076622812,-0.0014110160000000002,-0.0003083700000000001,4.256,0,0
0.014896552,0.013748018,-0.0047921512,-0.0022163298000000002,-0.0021537360000000003,4.257,0,0
0.009058204,0.012417174,-0.0017022992000000003,-0.0019277766,-0.0030505252,4.258,0,0
0.00045842399999999894,0.008219362,0.0012612927999999999,-0.0016968526000000002,-0.004303304,4.259,0,0
-0.007847756000000001,0.0018241219999999992,0.0036698688,-0.0016633466000000002,-0.004212006,4.26,0,0
-0.013396407999999999,-0.004666178000000001,0.0046621219999999994,-0.0019114606,-0.003840172,4.261,0,0
-0.017813468,-0.008951680000000002,0.005644996,-0.0034764827999999998,-0.005519969999999999,4.262,0,0
-0.02038624,-0.011032858000000001,0.007187864,-0.00352322942,-0.005064708,4.263,0,0
-0.018238252,-0.010858756,0.008603452,-0.0006554114200000003,-0.0008047739999999999,4.264,0,0
-0.013770181199999999,-0.0079077654,0.009859102,0.00121698658,0.0023936660000000005,4.265,0,0
-0.0091683672,-0.0042597882,0.010115268,0.00218930538,0.004831808000000001,4.266,0,0
-0.0029977352,-0.0026374462000000004,0.009353862,0.00371198938,0.009280428,4.267,0,0
0.0040035248,-0.0016250502,0.008017708,0.0031007048,0.011319618,4.268,0,0
0.0094535568,-0.0001768061999999999,0.004397672,1.7846799999999912e-05,0.00920744,4.269,0,0
0.013704965999999999,0.0010753412000000001,-0.0004885680000000004,-0.0016807932,0.0076188,4.27,0,0
0.017241712,0.0020473780000000003,-0.0034828940000000003,-0.001394514,0.007301404,4.271,0,0
0.01790878,0.003398166,-0.00627894,-0.0008747759999999999,0.005517574,4.272,0,0
0.015452556000000001,0.004942706000000001,-0.009714046,-8.791459999999999e-05,0.0033179240000000003,4.273,0,0
0.011899926,0.005192780000000001,-0.009728456,0.0004645886,0.0019428279999999997,4.274,0,0
0.006703276,0.004451120000000001,-0.0069161376,0.0006122830000000001,-0.00042694400000000006,4.275,0,0
-0.0003218439999999995,0.0033841434,-0.0057564676000000006,0.000568763,-0.0032805280000000004,4.276,0,0
-0.005843184,0.0019836214000000002,-0.004825865600000001,0.0006011930000000001,-0.004750408,4.277,0,0
-0.01000752,-0.00016351060000000016,-0.0018743196,0.0006755496000000001,-0.005221422,4.278,0,0
-0.014420329999999999,-0.0022755986000000004,0.0005460324,0.00045478839999999994,-0.005743720000000001,4.279,0,0
-0.01588416,-0.0029005106,0.00142312,0.000330618,-0.005254192000000001,4.28,0,0
-0.013715862,-0.0030597140000000007,0.0037903980000000004,0.00020099820000000007,-0.0039515792,4.281,0,0
-0.011273950000000001,-0.0030874040000000006,0.007617308,-0.0005757578,-0.0035671512000000002,4.282,0,0
-0.007678822000000001,-0.0020612078,0.010057922,-0.0009185204000000001,-0.002746352,4.283,0,0
-0.0017870579999999998,-0.0009683323999999999,0.010155787999999999,0.0002537336,-0.0002406420000000001,4.284,0,0
0.003089642,-0.00071584612,0.007059981999999999,0.0008722516000000001,0.001637042,4.285,0,0
0.006209224,-0.0005432089199999999,0.0009908320000000005,0.00046035540000000005,0.0021814691999999998,4.286,0,0
0.009520132,-0.00039334491999999996,-0.005897968,0.0014479914000000002,0.0036248312,4.287,0,0
0.012102304000000001,-0.00021849611999999994,-0.010517278,0.002207676,0.004291248,4.288,0,0
0.011673384,0.00044420448000000016,-0.011498172,0.001000414,0.002446894,4.289,0,0
0.009739118000000001,0.0010082862000000002,-0.008590777999999999,3.249799999999984e-05,0.0002467979999999997,4.29,0,0
0.0073684924,0.0012873656000000002,-0.0032872939999999996,-0.00048636200000000006,-0.00157303,4.291,0,0
0.0025995144,0.0015246832,0.0005859118,-0.0017381060000000003,-0.00415224,4.292,0,0
-0.0028800256000000002,0.0012027860000000002,0.0015001118000000004,-0.0022884710000000007,-0.006045872,4.293,0,0
-0.006131953600000001,0.00023098999999999993,5.721980000000012e-05,-0.0010651970000000004,-0.0061954259999999995,4.294,0,0
-0.0084128376,-0.00040463120000000004,-0.0018990462000000002,0.00017186700000000003,-0.0060747399999999995,4.295,0,0
-0.010521112,-0.00045759500000000004,-0.0031182882,0.0008290898,-0.0058160220000000006,4.296,0,0
-0.009605032,-0.0004075126,-0.002607308,0.0014967846,-0.004642438,4.297,0,0
-0.0069051746,-0.0004747144,0.00014210199999999985,0.0015024016,-0.0031743809999999996,4.298,0,0
-0.005794170599999999,-0.0006307643999999999,0.0029699960000000004,0.0007968152,-0.0020070729999999994,4.299,0,0
-0.0036636686000000008,-0.0007289668,0.00443674,0.0008027392000000001,5.223100000000013e-05,4.3,0,0
0.0004668633999999998,-0.0006762652000000001,0.005291574,0.0011817124,0.001942497,4.301,0,0
0.0028485413999999997,-0.00048221000000000006,0.004932786,0.0009718096000000001,0.0027461910000000003,4.302,0,0
0.004105006,-0.00045447200000000004,0.002310248,0.0008602898200000002,0.003307034,4.303,0,0
0.007035966,-0.0004892060000000001,0.00021400200000000008,0.00061110962,0.003646896,4.304,0,0
0.008669896,-0.0004230406,0.0001088319999999999,-0.0002715543800000001,0.003163984,4.305,0,0
0.007251818,-0.000783349,0.000500908,-0.00098277438,0.0021452840000000003,4.306,0,0
0.0056962598,-0.0013627882,0.00169266,-0.00127117638,0.001235182,4.307,0,0
0.0036189377999999994,-0.0008764802000000001,0.00391615,-0.0023608226000000005,-0.00040223000000000017,4.308,0,0
-0.0001611922000000004,-1.0380200000000006e-05,0.005380202000000001,-0.004146374,-0.0028090280000000003,4.309,0,0
-0.0036324902000000004,0.000122255,0.004256778000000001,-0.00496226,-0.004675364,4.31,0,0
-0.0055293442,0.0006743790000000001,0.0014722980000000001,-0.0045985586,-0.004900596,4.311,0,0
-0.006760574000000001,0.0015030190000000002,-0.001669428,-0.0035311106,-0.004189791000000001,4.312,0,0
-0.007447744000000001,0.0013383134000000002,-0.004544572,-0.0014629805999999996,-0.002537555000000001,4.313,0,0
-0.00635809,0.0010263576,-0.005737008000000001,0.0016620374,0.00042858099999999993,4.314,0,0
-0.004619190400000001,0.0008776114000000002,-0.004449960000000001,0.0043119254,0.003036413,4.315,0,0
-0.0033389410000000007,0.00028250740000000007,-0.0019285400000000003,0.004762224,0.004073169,4.316,0,0
-0.000832167,0.0001948014,0.000244988,0.0037920060000000005,0.004478006,4.317,0,0
0.0023246990000000004,0.0001430386,0.001508616,0.0027898540000000005,0.004427868000000001,4.318,0,0
0.0038845170000000005,-0.0006287476,0.0014928539999999998,0.0016211110000000002,0.0034691160000000004,4.319,0,0
0.0050866034000000004,-0.0009520843999999999,3.8251999999999904e-05,0.0001445528,0.002597858,4.32,0,0
0.007418474000000001,-0.0009133244,-0.001679368,-0.0005533032000000001,0.0022025582000000004,4.321,0,0
0.007998016,-0.0010973369999999999,-0.0013392539999999998,-0.00047340720000000003,0.0014882522000000003,4.322,0,0
0.006531958000000001,-0.0007427405999999998,0.0007309900000000004,-0.0005476542,0.0005870982000000002,4.323,0,0
0.005642085400000002,0.00019669740000000005,0.003659182000000001,-0.0008444726,0.00018736820000000005,4.324,0,0
0.0036659573999999998,0.0011013894,0.006690998,-0.0015130744,-0.0007576858000000002,4.325,0,0
-0.00030379859999999986,0.0011048574,0.006793212000000001,-0.0015753803999999998,-0.0016123900000000002,4.326,0,0
-0.0035070305999999997,-0.00010832799999999998,0.0023814659999999996,-0.0013429348,-0.001804398,4.327,0,0
-0.0051383146,-0.001327912,-0.003774754,-0.0015784978000000002,-0.0025599100000000003,4.328,0,0
-0.006801374,-0.002076054,-0.008948474000000001,-0.0006992244,-0.0027068504000000004,4.329,0,0
-0.007167154,-0.002566734,-0.012062646000000002,0.0011317976000000001,-0.0015177544000000002,4.33,0,0
-0.005552194000000001,-0.0021530462,-0.011619272000000003,0.0016946232000000002,-0.0006704412000000001,4.331,0,0
-0.004496310000000001,-0.0007592342,-0.007805142600000001,0.0010517416,-0.00022505520000000014,4.332,0,0
-0.0033895720000000004,0.0008184898,-0.0037022526000000003,0.00016303360000000013,0.000610962,4.333,0,0
-0.000728998,0.0028617538,-0.0018168026000000004,-0.0025765884,-4.7535999999999065e-06,4.334,0,0
0.0015981880000000004,0.0052426138,-0.0012043746,-0.0049469744,-0.0010960616,4.335,0,0
0.0026833380000000004,0.007179338,-0.0012566646,-0.003667834000000001,-0.00011981879999999989,4.336,0,0
0.004492686000000001,0.00801508,-0.0009185520000000001,-0.0013711700000000003,0.0014228552000000003,4.337,0,0
0.006601642000000001,0.007779020000000001,0.001346838,0.0003466659999999998,0.0023301960000000005,4.338,0,0
0.0062626,0.005786082,0.006063068,0.002934068,0.0031879226000000004,4.339,0,0
0.00464061,0.0015400999999999998,0.010398792,0.00438268,0.0034488986000000004,4.34,0,0
0.003428258,-0.0036094400000000002,0.010785476,0.0026243180000000005,0.0020228846,4.341,0,0
0.0008950140000000004,-0.008119226,0.008031594,0.0008272620000000003,3.9842599999999936e-05,4.342,0,0
-0.0023246860000000003,-0.010134522,0.003200614,3.9296000000000025e-05,-0.0010825914,4.343,0,0
-0.00370789,-0.009538370200000002,-0.002998806,-0.0005164459999999999,-0.0009013540000000002,4.344,0,0
-0.004117404,-0.007037844200000001,-0.007964292,2.5656000000000095e-05,-0.0001338400000000001,4.345,0,0
-0.004840397999999999,-0.0033302342,-0.007536105,0.0010188180000000003,0.0003905419999999999,4.346,0,0
-0.0039928360000000005,-6.489540000000016e-05,-0.0038294949999999996,0.0014452278000000002,0.0011650760000000001,4.347,0,0
-0.002497077,0.0011336386000000004,0.0012623250000000001,0.0015586566000000003,0.0011677600000000001,4.348,0,0
-0.002530665,0.0010123308000000001,0.009086885000000001,0.0013517586000000002,-0.000170812,4.349,0,0
-0.0016983964000000002,0.0006017848,0.015875631,0.0006001338,-0.001080654,4.35,0,0
0.00044140560000000006,0.00021349679999999998,0.01874355,-6.995468000000002e-05,-0.0012754892,4.351,0,0
0.0009817436,0.000759628,0.016158110000000003,-0.0004952044800000001,-0.0018806311999999999,4.352,0,0
0.0008089324000000001,0.001135035,0.00654753,-0.0006536132800000001,-0.0020021892,4.353,0,0
0.0023835124,0.0007736570000000001,-0.00724621,-0.0008371552800000002,-0.0012045462,4.354,0,0
0.0034161038,0.000547419,-0.017645390000000004,-0.00118178648,-0.0006319722,4.355,0,0
0.0025035086000000004,0.000460635,-0.021958466000000003,-0.0012186450000000002,-0.0007077868000000001,4.356,0,0
0.0027665166000000003,0.00013411260000000002,-0.020283364,-0.001417637,-0.0009750468,4.357,0,0
0.0034207668000000007,0.0005582396000000001,-0.012040034000000002,-0.001355157,-0.0006512072000000001,4.358,0,0
0.0016523428,0.0017147536,-0.0026095220000000004,-0.00046497300000000004,-0.0002470122000000001,4.359,0,0
-7.567199999999896e-06,0.0021453196000000003,0.0030885160000000004,0.00018486500000000004,9.249379999999986e-05,4.36,0,0
4.889200000000009e-05,0.0022887396,0.0045327250000000005,4.624140000000001e-05,0.0007364536,4.361,0,0
-0.0006146217999999999,0.002342218,0.003430533000000001,-2.3698600000000044e-05,0.001182356,4.362,0,0
-0.0016901337999999998,0.00183129572,0.0020559932,0.0002684172,0.0015050010000000002,4.363,0,0
-0.0009087218,0.00099254432,0.0015925712000000002,0.0004820832000000001,0.0020101050000000003,4.364,0,0
-0.0003354621999999999,0.0004439963200000001,0.0023884232,0.00041828320000000016,0.001695879,4.365,0,0
-0.0013043942,-0.00019724167999999998,0.0039028002,0.00035803980000000016,0.0005804709999999999,4.366,0,0
-0.0013768864,-0.00125158568,0.0044725208,0.0011737937999999999,0.0005986878000000003,4.367,0,0
-0.0008495034000000001,-0.0021853414,0.0036996145999999997,0.0016517720000000001,0.0008023272000000001,4.368,0,0
-0.0015590273999999999,-0.002977738,0.0026155042,0.00018438799999999996,-0.0004214367999999999,4.369,0,0
-0.002181071,-0.0034696460000000007,0.0012269782000000004,-0.0017303660000000001,-0.0016489507999999998,4.37,0,0
-0.0008173670000000002,-0.0029267660000000003,0.0006327862000000003,-0.0014861976,-0.0010106788,4.371,0,0
0.000381405,-0.00047504999999999965,0.0028636456,-4.641960000000022e-05,0.0002891540000000001,4.372,0,0
0.0001751356,0.002086974,0.0067402016000000006,0.0008839244,0.0008566380000000005,4.373,0,0
0.0008857220000000001,0.0028047362,0.006941464200000001,0.0024398504,0.0020268,4.374,0,0
0.0015935312,0.0028337302,0.002165640200000001,0.0041868984,0.0031198338,4.375,0,0
0.0004751391999999999,0.00260488084,-0.0028841177999999997,0.004164360000000001,0.0026290018,4.376,0,0
-5.894080000000006e-05,0.00109988124,-0.0069057738,0.0018910020000000001,0.0009662678000000001,4.377,0,0
0.0008511295999999999,-0.00036674936000000006,-0.0107787218,-0.0003377219999999998,-0.0004615242000000001,4.378,0,0
0.0008445544399999999,-0.00019605056000000006,-0.010955856,-0.0009294484000000001,-0.0013677662,4.379,0,0
0.00071225304,0.00042555964000000004,-0.0064082996,-0.0013119614,-0.002055478,4.38,0,0
0.00174834904,0.000664271,-0.0027343295999999995,-0.0022736174000000005,-0.00227391,4.381,0,0
0.0013004074400000001,0.0004959923999999999,-0.0020269776000000003,-0.0030700594,-0.002677166,4.382,0,0
-0.00021240056,-2.7933000000000005e-05,-0.0025783856,-0.0035880994,-0.0031070919999999997,4.383,0,0
6.073619999999994e-05,-0.0005367740000000001,-0.0031791736000000006,-0.0037175378,-0.0027220782,4.384,0,0
0.0003666804,-0.0011106082,-0.002756494,-0.0031579688000000004,-0.0021207192,4.385,0,0
-0.0005423016,-0.0014861974,-0.0012215200000000005,-0.0020378320000000007,-0.0021998132,4.386,0,0
-0.00018261799999999995,-0.0009757112,0.002084184,-6.089399999999992e-05,-0.0016296672,4.387,0,0
0.001340698,-0.0007570115999999999,0.006906740000000001,0.0016539060000000001,4.551680000000006e-05,4.388,0,0
0.0007801400000000001,-0.0008531256,0.0109199,0.0020306008,0.001375621,4.389,0,0
-0.00036259799999999995,-0.0001014656,0.012426024,0.0018464648000000002,0.00232436,4.39,0,0
0.00018797180000000002,0.00023257560000000004,0.011749938,0.0007708640000000001,0.002970526,4.391,0,0
-1.2337200000000028e-05,-0.00015468419999999994,0.0096655772,0.0001772408,0.003507154,4.392,0,0
-0.0008070106,0.00014114780000000005,0.00614761724,0.0013884308,0.004046790000000001,4.393,0,0
0.0002783334000000001,0.000779988,0.00194477124,0.0013693448,0.003529982,4.394,0,0
0.0018170174000000003,0.000798216,-0.0017890167600000005,0.0003647168,0.0021444100000000002,4.395,0,0
0.0014940128000000001,0.001022136,-0.00430958476,0.0009161788000000002,0.0012936580000000005,4.396,0,0
0.0014109484000000001,0.0011852258,-0.00602155396,0.0011367860000000003,0.0010259380000000003,4.397,0,0
0.0018864358000000002,0.0009877684000000001,-0.00720476,-0.00044313119999999994,-0.0001303967999999998,4.398,0,0
0.0005230518,0.0008798888000000001,-0.00769121,-0.0015739332,-0.0019956308,4.399,0,0
-0.0007683262,0.0004622792000000001,-0.007639518,-0.0011629032,-0.0020444108,4.4,0,0
-0.00042476739999999997,-0.0002486428,-0.005816406400000001,-0.00041092319999999996,-0.0006262768,4.401,0,0
-0.001011248,-0.0007897748000000001,-0.0028531124000000007,-0.00018346319999999988,-0.0005223446,4.402,0,0
-0.002225436,-0.001020553,0.00024177360000000002,-9.242379999999995e-05,-0.0009546178000000001,4.403,0,0
-0.0016573476000000002,-0.0012478196,0.0039198896,0.0001222682,-0.00016319960000000004,4.404,0,0
-0.0013250156000000001,-0.0012700440000000001,0.0069521536,-0.0001315658,-0.00012568760000000007,4.405,0,0
-0.0020823296,-0.001244094,0.006590586,-0.0006812766000000001,-0.0015927716,4.406,0,0
-0.0012826436000000002,-0.001190948,0.0029259019999999993,-0.0009528126,-0.0019189658,4.407,0,0
0.00012004240000000014,-0.0010443928,-0.00098816,-0.0010243452,-0.0014339658,4.408,0,0
-3.444299999999986e-05,-0.0007546635999999999,-0.004280352,-0.0011833872000000002,-0.001882332,4.409,0,0
0.0004110810000000001,6.57444000000001e-05,-0.006293149999999999,-0.0006458876,-0.0015216300000000002,4.41,0,0
0.0018204510000000003,0.0009406724000000001,-0.0058823834,-4.6528799999999947e-05,0.0002061299999999999,4.411,0,0
0.0019165410000000003,0.0014763104000000003,-0.0034023333999999997,0.00034563720000000005,0.00130815,4.412,0,0
0.0013582026,0.0018885912000000003,-0.0009437973999999998,0.0020575436000000004,0.002104712,4.413,0,0
0.0018072716,0.0018543268000000002,0.0005329466000000001,0.0039695156,0.00329489,4.414,0,0
0.0015521518,0.0011439472,0.0014053286000000002,0.00430646,0.0031769990000000002,4.415,0,0
-0.0006566501999999999,0.00043905280000000005,0.0015261412000000002,0.003666766,0.0015307469999999998,4.416,0,0
-0.0021776141999999997,-3.0869199999999925e-05,0.0013187582000000002,0.0017635980000000001,-0.0007858429999999998,4.417,0,0
-0.0027631938,-0.00042995159999999996,0.0011802302,-0.001578658,-0.003297563,4.418,0,0
-0.004027629800000001,-0.0008245124,0.0009926982,-0.0032820640000000003,-0.004408911,4.419,0,0
-0.004953816,-0.0012411668,0.00033105019999999996,-0.003278698,-0.0040852592,4.42,0,0
-0.0034300702000000004,-0.0016119044,-0.000656387,-0.0030607551400000004,-0.0028545252,4.421,0,0
-0.0017949302,-0.0017364664,-0.00136403,-0.00147953914,-0.0009667091999999999,4.422,0,0
-0.0017588182000000002,-0.0015660984,-0.0018056829999999998,-0.00012268714,4.7502799999999995e-05,4.423,0,0
-0.0004521002000000001,-0.0010927432,-0.0019593146,-0.0005475431400000001,-0.00023235119999999996,4.424,0,0
0.0010116297999999998,-0.00021191720000000012,-0.0009304585999999999,-3.932314000000005e-05,-0.00018846399999999995,4.425,0,0
0.0007840442,0.0005133728000000001,0.0008239093999999999,0.0015165340000000002,0.00032490000000000004,4.426,0,0
0.0013135821999999998,0.0008622120000000001,0.0033414274000000002,0.0015502620000000004,0.0006728360000000001,4.427,0,0
0.0029723942,0.0013850544000000003,0.006645234400000001,0.0012466400000000002,0.002174766,4.428,0,0
0.0029638382,0.0021243752,0.009643246000000001,0.0011540179999999997,0.0034723460000000003,4.429,0,0
0.0023376726,0.0019284946,0.010538370000000002,-0.0012199799999999998,0.0022748939999999995,4.43,0,0
0.0026182244,0.0010548165999999999,0.007000126000000001,-0.00391162,0.00044501399999999976,4.431,0,0
0.0013349944,0.0005538454,0.00041460399999999984,-0.003808596,-0.0004571064000000003,4.432,0,0
-0.0012848696,-0.0004435906000000001,-0.006273296000000001,-0.0023227599999999997,-0.0014788091060000004,4.433,0,0
-0.0022880616000000003,-0.0018853225999999998,-0.011411216000000002,-0.00017131399999999967,-0.0018232155060000004,4.434,0,0
-0.0025151260000000003,-0.002508298,-0.01320046,0.002727462000000001,-0.0005806855060000002,4.435,0,0
-0.003854336,-0.002141734,-0.009677222000000003,0.0046110000000000005,0.000228325894,4.436,0,0
-0.003988094,-0.0017149956,-0.0038553619999999993,0.0038679780000000006,0.0003124842940000001,4.437,0,0
-0.001946962,-0.00118677,0.0007178780000000004,0.0023677660000000003,0.0011601290000000002,4.438,0,0
-0.00097215,-0.0003183540000000001,0.003949438,0.0013865880000000002,0.0019202914,4.439,0,0
-0.00048775679999999984,0.00022030439999999997,0.004899518,-0.00027204400000000004,0.0018035872000000002,4.44,0,0
0.0018830512000000002,0.00046387382000000004,0.005348922000000001,-0.001727768,0.0014940778000000002,4.441,0,0
0.0034624852000000005,0.0009275134200000001,0.006063164,-0.0013972494,0.0009086618000000002,4.442,0,0
0.0033900372,0.0011806878200000001,0.004566838,8.004459999999991e-05,0.00032605180000000006,4.443,0,0
0.0044005052,0.0010681038200000001,0.0013594379999999997,0.0009550466000000001,0.00025665979999999996,4.444,0,0
0.005615704,0.0015108554200000002,-0.0015791420000000004,0.0015230285999999998,0.0002596656000000001,4.445,0,0
0.004613562000000001,0.0015150362400000003,-0.004850964000000001,0.0019869686,0.00046993760000000007,4.446,0,0
0.0036344456000000002,0.0006630302400000001,-0.007763386000000001,0.0018184614,0.0009679898000000001,4.447,0,0
0.003611405600000001,0.00016470864,-0.00606716,0.0007408736000000004,-2.2581999999999507e-06,4.448,0,0
0.0012798796000000002,-0.00024204736000000006,0.0006673,-0.0005512624,-0.0019533642,4.449,0,0
-0.0014740303999999998,-0.0007798353600000001,0.008366000000000002,-0.0009657584000000001,-0.0024805518000000004,4.45,0,0
-0.0020697923999999997,-0.0006361870000000001,0.013927260000000002,-0.0011294204,-0.0023811503999999995,4.451,0,0
-0.0033410280000000002,-3.590060000000002e-05,0.016262780000000004,-0.0013984898000000002,-0.0024764805999999994,4.452,0,0
-0.0054114620000000006,6.804879999999998e-05,0.013345304000000002,-0.0015343000000000002,-0.0016366372,4.453,0,0
-0.004825518000000001,-0.0003874452,0.003558724,-0.0013172993600000002,-0.00033069920000000007,4.454,0,0
-0.0031348820000000003,-0.0012960132,-0.008756976,-0.00148088736,-0.00020049119999999998,4.455,0,0
-0.00310986,-0.0021865258,-0.017415536000000002,-0.00234901136,-0.0015107646000000001,4.456,0,0
-0.001663066,-0.0026527882000000006,-0.020428322000000006,-0.00276561736,-0.0019598966000000002,4.457,0,0
0.0011014980000000002,-0.0027221934000000005,-0.017669502,-0.0019380713600000003,-0.00043207999999999983,4.458,0,0
0.0016800156000000002,-0.0026954614000000003,-0.009937562000000002,-0.0013696760000000002,0.000654998,4.459,0,0
0.0016244356000000002,-0.0024243954000000003,-0.0025620180000000005,-0.0012408980000000003,0.0014831220000000001,4.46,0,0
0.0028776776000000006,-0.0009777834,0.000860668,0.0006878660000000001,0.0038793640000000006,4.461,0,0
0.0032182756000000002,0.0007136645999999998,0.002196271999999999,0.0018297460000000002,0.0046633704,4.462,0,0
0.0021537098000000005,0.0016920899999999998,0.001433272,-3.009400000000004e-05,0.0016452684000000002,4.463,0,0
0.0023229082000000003,0.0029952,-0.0008013980000000003,-0.0015088800000000002,-0.0007075855999999999,4.464,0,0
0.0023005282,0.003940612,-0.00043039400000000007,-0.0014223472000000003,-0.0018777856,4.465,0,0
0.00019299820000000007,0.0032012936,0.0019338420000000003,-0.0014073572000000002,-0.0033916856000000004,4.466,0,0
-0.0015197058,0.0018379332,0.002835588,-0.00041659720000000017,-0.002876496,4.467,0,0
-0.00205301,0.0007385272,0.0032799200000000004,0.0018584688000000001,-0.0010441840000000005,4.468,0,0
-0.003492524,0.0001144668,0.0037561720000000003,0.0035617808000000003,0.0001705317999999999,4.469,0,0
-0.0048488260000000005,0.0010178108000000001,0.003576906,0.004135242,0.000734188,4.47,0,0
-0.0038211774,0.0035520772000000003,0.003563624,0.0036595900000000003,0.00087575,4.471,0,0
-0.0025955094,0.0060549416000000005,0.0029652504,0.0023889864,-1.9090000000000036e-05,4.472,0,0
-0.0022929718,0.0079525496,0.0014454764000000004,0.0012685562000000002,-0.0008231860000000001,4.473,0,0
-0.0006097077999999999,0.008571816000000001,0.0007197964000000001,0.0008405142000000002,-0.0002459077999999999,4.474,0,0
0.0015735522000000003,0.006456750000000001,0.0006745544000000001,0.0006052866,0.000569728,4.475,0,0
0.0023436996,0.0027691199999999995,0.0003284304,0.00039744060000000003,0.001051008,4.476,0,0
0.0029554776,-0.00195564,0.000606633,0.0003586382,0.0013849578,4.477,0,0
0.0039687839999999995,-0.007176976,0.001678377,0.00023661040000000003,0.0014692137999999999,4.478,0,0
0.003766748,-0.009905442,0.002303101,-0.0005088936,0.0006308703999999999,4.479,0,0
0.00305569,-0.009848228,0.0017285874,-0.0009123340000000001,0.00016279239999999998,4.48,0,0
0.003121066,-0.009171733999999999,0.0007544994000000002,-0.0011043140000000001,0.0005197164,4.481,0,0
0.0021603848,-0.00727591,0.00045975140000000013,-0.0017356900000000002,0.0001677966,4.482,0,0
0.0001748088000000001,-0.004103468,-8.120619999999997e-05,-0.00147837,0.0004081666,4.483,0,0
-0.0010184291999999998,-0.00241725,-0.0008281488000000001,-0.00079783,0.001320454,4.484,0,0
-0.0022297392,-0.0018199300000000002,-0.00016524720000000005,-0.0008086780000000001,0.000772994,4.485,0,0
-0.004485301200000001,-0.0011523348000000001,0.0010623287999999998,-0.0016642920000000004,-0.0006031380000000001,4.486,0,0
-0.006056704,-0.0010151878000000001,0.0010114278,-0.003082856,-0.001236824,4.487,0,0
-0.005846322,-0.0009742698000000001,0.0005341853999999997,-0.005005578,-0.002441314,4.488,0,0
-0.0055408820000000004,-0.0003238338000000001,0.0001954199999999998,-0.006292482,-0.00451203,4.489,0,0
-0.0048308342,0.0006128722,0.0004204040000000001,-0.005146108000000001,-0.0042844206,4.49,0,0
-0.0020647281999999997,0.0013511869999999998,0.0028107600000000003,-0.0018316740000000006,-0.0018065946000000005,4.491,0,0
0.0010903938,0.0029353440000000003,0.006733576,0.0019410979999999992,0.0002856034000000003,4.492,0,0
0.0031430958,0.00508863,0.00998743,0.004930944,0.0022966334000000003,4.493,0,0
0.0055233618,0.00619336,0.009635942,0.006699956,0.0046828254,4.494,0,0
0.007541236000000001,0.0068550980000000004,0.00532065,0.006067781999999999,0.0054022820000000004,4.495,0,0
0.007218022,0.0071207200000000005,-0.0001729499999999994,0.003555466,0.0035827100000000002,4.496,0,0
0.00623222,0.006296866,-0.00645339,0.001492472,0.002115536,4.497,0,0
0.005427222,0.004733510000000001,-0.012901290000000001,0.00018886800000000002,0.001562764,4.498,0,0
0.002875204000000001,0.0029638900000000003,-0.015319300000000001,-0.0007926508,9.489599999999997e-05,4.499,0,0
-8.182000000000003e-05,0.00112641,-0.014042960000000002,-0.0005877388000000001,-0.0006628180000000001,4.5,0,0
-0.0014451980000000002,-0.00092186,-0.012652682000000002,0.00030060919999999993,-0.0004833344,4.501,0,0
-0.0031773260000000003,-0.002542224,-0.0099988678,0.0006132281999999999,-0.0013511044,4.502,0,0
-0.005435298000000001,-0.0038398080000000005,-0.0047354238,0.0009193477999999999,-0.0026067684,4.503,0,0
-0.00574397,-0.004002096000000001,0.0009465561999999999,0.0011708772000000001,-0.0029883544,4.504,0,0
-0.005410548000000001,-0.00273067,0.0062537762,0.0001716411999999998,-0.0036313544,4.505,0,0
-0.006075008,-0.0017687412,0.010389978200000002,-0.0012596628000000002,-0.0037976320000000004,4.506,0,0
-0.00511807,-0.0015725692,0.008914376000000002,-0.0017008738000000002,-0.0021318020000000003,4.507,0,0
-0.0025598880000000006,-0.0013335871999999999,0.0028977920000000023,-0.0020860434000000002,-0.0006951080000000002,4.508,0,0
-0.0007197560000000001,-0.0008918268000000001,-0.0019956079999999985,-0.0020376274000000003,0.0005081860000000001,4.509,0,0
0.00156113,-0.0013051868000000001,-0.00465106,-0.0009393914,0.00217606,4.51,0,0
0.00475246,-0.0012116905999999998,-0.0056065,-0.0002288216000000002,0.002970318,4.511,0,0
0.006483302,9.546940000000002e-05,-0.0022449880000000007,-4.707600000000104e-06,0.0025370846000000004,4.512,0,0
0.0065746139999999995,0.0009533622000000001,0.003983654,0.00030368239999999997,0.0022023064,4.513,0,0
0.00668182,0.0008917748000000002,0.0075724139999999995,0.00030498699999999994,0.0024360904,4.514,0,0
0.005664280000000001,0.00021342480000000015,0.007266195999999999,0.00016747100000000004,0.0020963104000000002,4.515,0,0
0.00284531,-0.00040078819999999997,0.004334672,0.0006697672000000001,0.0014610798,4.516,0,0
0.000650322,-0.0011915162,0.0016549399999999997,0.0008635714000000001,0.0012040978,4.517,0,0
-0.0007661100000000002,-0.001904961,0.0003100900000000001,0.0006407414,0.000761232,4.518,0,0
-0.0034965900000000004,-0.002144576,-0.00044562400000000004,0.0005669672,-0.000425844,4.519,0,0
-0.005791818000000001,-0.00234197,-0.00125114,-4.72584e-05,-0.0017166080000000001,4.52,0,0
-0.005510508000000001,-0.002549384,-0.0019382380000000003,-0.0007604364000000001,-0.0021551774000000004,4.521,0,0
-0.0050658840000000005,-0.002623832,-0.0012830906000000002,-0.0013662826000000001,-0.0024897820000000003,4.522,0,0
-0.005059244,-0.0024446480000000002,-4.984860000000011e-05,-0.0022715426,-0.003176288,4.523,0,0
-0.002614688,-0.0027068160000000003,0.0012568094000000001,-0.0018763036000000004,-0.002518998,4.524,0,0
0.000469792,-0.002907118,0.0033275214,1.2588000000000226e-05,-0.000638848,4.525,0,0
0.001621652,-0.0022748506,0.0055188374000000005,0.0014023940000000002,0.000327782,4.526,0,0
0.003328894,-0.0015511086000000002,0.005898248,0.0029351000000000004,0.001388736,4.527,0,0
0.005710166000000001,-0.0008683086000000002,0.00353566,0.004704042,0.0032728300000000004,4.528,0,0
0.0059635420000000005,0.0003731853999999999,-0.0008926239999999998,0.0044175626,0.0032339176,4.529,0,0
0.004893512,0.0023286494000000005,-0.00532553,0.0022464665999999997,0.0017845516000000003,4.53,0,0
0.004444064,0.004024718,-0.007272886000000001,0.0005815646,0.001252319,4.531,0,0
0.0026161240000000005,0.005185942000000001,-0.007460416800000001,-0.00019157099999999995,0.0006211826000000001,4.532,0,0
-0.0006433820000000003,0.006011790000000001,-0.007299276800000001,-0.0004313310000000001,-8.03654e-05,4.533,0,0
-0.0025094500000000003,0.006043306,-0.0052162188,-0.00039731840000000005,-0.00021786899999999996,4.534,0,0
-0.0038681140000000006,0.005020192,-0.0017803108000000005,-4.9087800000000015e-05,-0.000659855,4.535,0,0
-0.006128546,0.003051946,0.00025711320000000007,0.0006383606,-0.0011533864,4.536,0,0
-0.007128472000000001,0.0009368800000000001,0.000670558,0.00038252720000000003,-0.0013975920000000002,4.537,0,0
-0.006213932000000001,-0.001041344,0.0014837938,-0.0006189008000000001,-0.0017503280000000002,4.538,0,0
-0.005967440000000001,-0.002810664,0.0022217898000000003,-0.001110608,-0.0016350016000000003,4.539,0,0
-0.005344228,-0.003865384,0.0008489798000000002,-0.0017301226000000002,-0.0012333736,4.54,0,0
-0.0025629100000000003,-0.004067938,-0.0011093642,-0.0034398450000000004,-0.0014262056,4.541,0,0
-0.0003047859999999998,-0.0037773999999999998,-0.0012590982,-0.004143578,-0.0014944875999999998,4.542,0,0
0.0006069560000000001,-0.0031550519999999998,1.539000000000011e-05,-0.004249498,-0.0018328876000000003,4.543,0,0
0.0026823140000000007,-0.002085922,0.0014852320000000002,-0.004386234,-0.0017779760000000001,4.544,0,0
0.005041202,-0.0008672020000000001,0.0037630000000000007,-0.0020391380000000002,0.0005610260000000001,4.545,0,0
0.0052418759999999995,0.000295056,0.0054356940000000005,0.0010938520000000002,0.002944754,4.546,0,0
0.005412092,0.0011037500000000001,0.004408836,0.0020168852000000004,0.0037211600000000003,4.547,0,0
0.0061326340000000005,0.0015940164,0.001991306,0.0018579912000000003,0.004340009600000001,4.548,0,0
0.00440691,0.0019548364,0.0005666320000000001,0.0011372172000000005,0.0033658136000000003,4.549,0,0
0.0017425160000000004,0.0017145294000000001,0.001159866,-0.0022106728,-0.0010348664000000007,4.55,0,0
0.00020888199999999954,0.0009870574,0.003545474,-0.0047300748,-0.0042462464000000005,4.551,0,0
-0.0019818380000000005,0.0004726832000000001,0.007858522,-0.00276945,-0.0036684464000000007,4.552,0,0
-0.00448147,4.552480000000002e-05,0.012241562000000001,0.0005456999999999997,-0.0024944240000000003,4.553,0,0
-0.004798192,-0.0004996892000000001,0.012983134000000002,0.00320432,-0.0010362340000000005,4.554,0,0
-0.004058845000000001,-0.0007540402000000002,0.007338234000000001,0.005808802,0.0013635648,4.555,0,0
-0.003894151,-0.0004436782000000001,-0.003456766,0.0068186864,0.0024872528,4.556,0,0
-0.0023930830000000007,5.50119999999999e-05,-0.014100526,0.0053099744,0.0018163988,4.557,0,0
0.00035353100000000003,0.00101039,-0.019706346,0.0034506683999999998,0.0014191348000000001,4.558,0,0
0.001741649,0.003207222,-0.019494650000000002,0.0017520044,0.0009856788,4.559,0,0
0.002487116,0.006142404000000001,-0.013495070000000001,0.00047342840000000005,0.0008036768,4.56,0,0
0.004572878,0.008443776,-0.001981349999999999,0.00027940379999999996,0.00140487,4.561,0,0
0.006057334,0.009508652000000001,0.00665644,-0.0006675142,0.0006703780000000001,4.562,0,0
0.005680308,0.009142014,0.0061239,-0.0019733602,-0.000890502,4.563,0,0
0.005768208,0.006339626000000001,0.001668709999999999,-0.0020613942000000003,-0.0011812568,4.564,0,0
0.005627188000000001,0.001904878,-0.0016847240000000007,-0.0017984448,-0.0011266815999999998,4.565,0,0
0.002687172,-0.003499902,-0.005111929800000001,-0.0015030084,-0.0017027248,4.566,0,0
-0.0011388160000000002,-0.009442072000000001,-0.0069285760000000005,-0.0015087944,-0.0017804508,4.567,0,0
-0.003629052,-0.012666332,-0.0037485540000000003,-0.0017356224000000002,-0.0018102768000000003,4.568,0,0
-0.006297634,-0.012305248000000001,0.00014059199999999993,-0.0015492826000000001,-0.00241249,4.569,0,0
-0.008851826,-0.011070678,0.0011233576,-0.0011799140000000002,-0.002294618,4.57,0,0
-0.00881375,-0.008717896,0.00120293,-0.0008015122,-0.0008087979999999997,4.571,0,0
-0.0074262519999999995,-0.0042985701,0.0022468322,0.00039509979999999994,0.0008214800000000003,4.572,0,0
-0.006503650000000001,-0.0011857041000000001,0.0034955382000000004,0.0015946438,0.0018792640000000003,4.573,0,0
-0.004155466,-0.0003769481,0.0042939462,0.000755718,0.0025886002,4.574,0,0
-0.0007274820000000002,0.00026076790000000006,0.005221454600000001,-0.0010215099999999998,0.0019960741999999997,4.575,0,0
0.001305268,0.0008189179,0.00441848,-0.00259867,-0.00011220579999999961,4.576,0,0
0.003357,0.0008244746200000001,0.0014598739999999995,-0.0037960700000000003,-0.0014890177999999999,4.577,0,0
0.006308860000000001,0.0010819726200000002,-0.0013674560000000002,-0.00363745,-0.0011725058,4.578,0,0
0.007640442000000001,0.0017680366199999999,-0.0030914340000000005,-0.0017221979999999999,-0.0002390439999999999,4.579,0,0
0.007532438000000001,0.00215840262,-0.0036013240000000004,0.00038024200000000004,0.001547586,4.58,0,0
0.00796019,0.00284797462,-0.002434138,0.000988184,0.002927192,4.581,0,0
0.007048136,0.00394759,2.9910000000000017e-05,0.0006753219999999999,0.002033664,4.582,0,0
0.0038618359999999996,0.00430811,0.001699564,8.853319999999995e-05,0.00019401999999999983,4.583,0,0
0.0010916300000000006,0.003854576,0.002116612,-0.0004932948,-0.001395406,4.584,0,0
-0.001173632,0.003500102,0.00222127,-2.8604800000000055e-05,-0.0028476402,4.585,0,0
-0.004155352,0.0027788496,0.0022863860000000005,0.0017234932,-0.0032293266,4.586,0,0
-0.006205098000000001,0.0014181456,0.0021545840000000006,0.0035647752,-0.0018569105999999998,4.587,0,0
-0.006012966000000001,0.00020087760000000012,0.0017190924000000001,0.004833934,4.548340000000005e-05,4.588,0,0
-0.005872716,-0.0009791644000000002,0.0014521934,0.004883265999999999,0.0011097054,4.589,0,0
-0.0058943680000000005,-0.0018446144000000002,0.0009357480000000001,0.0034342020000000003,0.0013037729200000001,4.59,0,0
-0.003782072,-0.0022358100000000004,0.001184938,0.0016470920000000002,0.0016207513200000002,4.591,0,0
-0.0015561839999999995,-0.0023632180000000003,0.0031867320000000003,-0.00018186800000000007,0.0015513271199999999,4.592,0,0
-0.0004093479999999999,-0.0020440012000000002,0.0050787656,-0.002022162,0.0007416005200000001,4.593,0,0
0.0019746500000000005,-0.0012782728,0.0060784286000000005,-0.0026793800000000003,0.0008972425200000001,4.594,0,0
0.004934024,-0.0003179687999999999,0.006321836,-0.0017060080000000002,0.0019064212000000002,4.595,0,0
0.005818478,0.0005779672,0.0053550268,-0.00043314000000000015,0.0023719852,4.596,0,0
0.00600552,0.0013712052000000002,0.0028825468000000004,7.788599999999983e-05,0.0023972568000000002,4.597,0,0
0.006314124000000001,0.0017521184000000001,-0.0006711591999999997,0.00020777799999999993,0.0021492074000000003,4.598,0,0
0.0039734,0.0018128378000000001,-0.0045045272,-4.194800000000015e-05,0.0004679494,4.599,0,0
-6.379999999999841e-06,0.0015788474000000001,-0.0073317772,-0.0011874940000000003,-0.0017857766000000002,4.6,0,0
-0.00261167,0.001018821,-0.008394656,-0.0022444260000000003,-0.0033377426000000005,4.601,0,0
-0.004985924,0.00023699099999999993,-0.0083593046,-0.0022540400000000006,-0.004600222000000001,4.602,0,0
-0.007487738,-0.000726307,-0.006919293200000001,-0.001242842,-0.004530544,4.603,0,0
-0.007246376,-0.0013538868000000002,-0.0043657252,0.00012358599999999996,-0.0028689,4.604,0,0
-0.004976404,-0.0016592248000000002,-0.0023728952,0.001158794,-0.0012672340000000001,4.605,0,0
-0.0037423002000000006,-0.0019136484000000001,-0.0015815512000000001,0.002139208,7.123999999999954e-06,4.606,0,0
-0.0023085982000000003,-0.0021268644,-0.0016100026,0.002721086,0.001670454,4.607,0,0
0.0006146138,-0.0020985244,-0.0013581612000000002,0.0024324858,0.0026949520000000005,4.608,0,0
0.0022406718000000003,-0.0020449384,-0.0005713692000000002,0.0018922998000000003,0.00261519,4.609,0,0
0.0028996078000000005,-0.0019096490000000002,0.00031481079999999995,0.0019299778000000003,0.0024206493999999997,4.61,0,0
0.005038242,-0.0013128830000000004,0.0011845568,0.0016234838,0.0022169614,4.611,0,0
0.007016076,-0.00014470300000000004,0.0019006727999999998,0.0010225718000000002,0.0014330754,4.612,0,0
0.006813938,0.001423149,0.0026106999999999997,0.00015160800000000002,2.0837400000000032e-05,4.613,0,0
0.006327256,0.002502959,0.003046964,-0.0014420320000000002,-0.0007903486,4.614,0,0
0.005689934,0.0029882800000000003,0.003722896,-0.002694688,-0.0010513972,4.615,0,0
0.002549882,0.0032819100000000003,0.004433476,-0.0038110180000000002,-0.0021174112,4.616,0,0
-0.0007123240000000003,0.0031733420000000004,0.0036990000000000005,-0.00381064,-0.0026731352,4.617,0,0
-0.0027161300000000006,0.002046601,0.0019203320000000003,-0.002705878,-0.0022037112,4.618,0,0
-0.005114998000000001,0.00037912099999999984,0.0004328920000000006,-0.0016602797999999998,-0.0026555092000000004,4.619,0,0
-0.006651758000000001,-0.001498603,-0.0015984499999999995,-0.0006205897999999999,-0.0029483140000000005,4.62,0,0
-0.0056603112,-0.003857181,-0.004111124,0.0005282442,-0.0010785320000000003,4.621,0,0
-0.0043989704000000004,-0.005825577,-0.003933078,0.0009735432,0.0007790340000000001,4.622,0,0
-0.0038709243999999997,-0.006539863999999999,-0.00169579,-4.1336799999999946e-05,0.00100021766,4.623,0,0
-0.0018480104000000003,-0.0050019059999999995,0.000905706,-0.001680193,0.0011982936600000002,4.624,0,0
0.00036678160000000015,-0.0003920680000000006,0.0038173319999999997,-0.003376849,0.0007877356600000006,4.625,0,0
0.0012601488000000003,0.005716492,0.006069158,-0.003337041,0.0001989196600000001,4.626,0,0
0.0025697280000000003,0.009885698,0.004714243999999999,-0.001622596,0.0011560516600000004,4.627,0,0
0.004703192,0.011608702,-0.0026204840000000006,0.0004166860000000003,0.002630790000000001,4.628,0,0
0.005895002,0.011574572000000002,-0.010101704000000003,0.002905152,0.003908124000000001,4.629,0,0
0.005603964,0.008601676,-0.012398472,0.0050648559999999995,0.004918808000000001,4.63,0,0
0.004848873599999999,0.0031943460000000007,-0.01121305,0.005470188,0.004625438600000001,4.631,0,0
0.0028250796,-0.0020319139999999992,-0.0047295420000000015,0.004114354000000001,0.0023127366000000003,4.632,0,0
-0.0008366963999999998,-0.00515883,0.007048318000000001,0.0030698360000000003,-0.00022814540000000005,4.633,0,0
-0.0038337104,-0.006843446,0.014158402,0.0025410424,-0.0014591094,4.634,0,0
-0.0057996124,-0.007610308,0.011570184,0.0015230363999999999,-0.0021481214000000004,4.635,0,0
-0.007749332000000001,-0.006954956,0.004155004,0.0002724444000000001,-0.0030366800000000004,4.636,0,0
-0.008353998000000001,-0.004833164,-0.004473876000000002,-0.0004571706,-0.0031677840000000003,4.637,0,0
-0.0064523162000000005,-0.0026349218,-0.010672676000000002,-0.0011739726,-0.0025107260000000005,4.638,0,0
-0.004692857200000001,-0.0012439518,-0.010464398000000001,-0.0015785890000000003,-0.00233127,4.639,0,0
-0.0036502572,-0.00016470380000000004,-0.005183498000000002,-0.00045928700000000017,-0.001200132,4.64,0,0
-0.0008631772000000005,-0.0004691678000000001,0.003263382,0.00038826500000000016,0.000956342,4.641,0,0
0.0015221308,-0.0021166598,0.007697196000000001,0.000113518,0.002005126,4.642,0,0
0.002222139,-0.0032764700000000005,0.0033391359999999995,-0.0006129899999999999,0.002145562,4.643,0,0
0.003999356,-0.0035508976000000005,-0.00022271000000000096,-0.002021162,0.0024986348,4.644,0,0
0.006736238,-0.0036859176000000006,0.00218823,-0.0036101540000000004,0.0020015852000000002,4.645,0,0
0.007974492,-0.0020519096000000004,0.006178450000000001,-0.004319064,9.054720000000003e-05,4.646,0,0
0.008671,0.0021622904,0.012218836000000002,-0.004283512,-0.0009106428,4.647,0,0
0.009539752,0.006197838400000001,0.021379556000000004,-0.003381832,-0.0009150368,4.648,0,0
0.0076836652,0.008334936000000001,0.023991252000000005,-0.0013315640000000004,-0.0017189236,4.649,0,0
0.0041045372,0.008703562,0.016020412000000005,0.00011175400000000004,-0.0025283140000000003,4.65,0,0
0.0012840952000000004,0.006619188000000001,0.0033760720000000017,0.001344238,-0.0014962199999999997,4.651,0,0
-0.0021113948000000002,0.0029609900000000006,-0.009452948000000001,0.003119122,-0.00011856399999999982,4.652,0,0
-0.0062997568,-0.00023904999999999982,-0.018602428000000004,0.0039096520000000004,0.0002585846000000001,4.653,0,0
-0.008613028,-0.0033240179999999998,-0.022510640000000002,0.0035311060000000004,0.0009182944000000001,4.654,0,0
-0.00897307,-0.005284634,-0.021132506,0.002870304,0.0013255844,4.655,0,0
-0.009737912,-0.005020334,-0.016923,0.002232784,0.0005314243999999999,4.656,0,0
-0.008878114,-0.004390878,-0.011949152,0.0017311940000000001,8.377440000000003e-05,4.657,0,0
-0.005464066,-0.004582796,-0.007519822000000001,0.0017813040000000003,0.0007921417999999998,4.658,0,0
-0.0025789199999999997,-0.004139836,-0.005636378000000002,0.0016239436,0.001218308,4.659,0,0
-0.0001394059999999999,-0.0030961944,-0.005118742000000001,0.0010257956000000001,0.0014982641999999999,4.66,0,0
0.003362856,-0.0018098683999999998,-0.004043496000000001,0.00013830959999999997,0.0018250528,4.661,0,0
0.006091402,-1.2648399999999897e-05,-0.0018985880000000003,-0.0013265564000000001,0.0010599793999999999,4.662,0,0
0.006277302,0.0013241836000000002,-8.156000000000027e-05,-0.0025393764,-0.0007493546,4.663,0,0
0.006358296,0.0023690736000000004,0.0015311959999999999,-0.003091714,-0.0018859526,4.664,0,0
0.00627323,0.0033741680000000003,0.004079416000000001,-0.0033200360000000006,-0.0025541748,4.665,0,0
0.003561324,0.0038263340000000002,0.006308064,-0.0032273580000000005,-0.0037770774000000003,4.666,0,0
0.0005695439999999995,0.003521614,0.007235428,-0.0024954852000000005,-0.00426289,4.667,0,0
-0.0007673640000000002,0.003038196,0.006945846,-0.0021309272,-0.00414357,4.668,0,0
-0.0029208520000000007,0.0025147202,0.006718558000000001,-0.0023946352,-0.004387196,4.669,0,0
-0.005495610000000001,0.0014353981999999997,0.008052388,-0.001493206,-0.0039189026,4.67,0,0
-0.005169666,-0.0003172238,0.010207928000000002,-0.00072433,-0.0029573466000000002,4.671,0,0
-0.0036907360000000005,-0.0018593698,0.010475168000000002,-0.0010312306,-0.0025591126000000003,4.672,0,0
-0.0033470118,-0.0025574998,0.009369112,0.0008538054,-0.0005066726000000001,4.673,0,0
-0.0014510418,-0.002858968,0.005861440000000001,0.0038437714000000003,0.0026023734000000004,4.674,0,0
0.0016962122,-0.0032290540000000003,-0.0026685600000000004,0.0040209722,0.0037442760000000004,4.675,0,0
0.0033098462,-0.0022163812,-0.01053166,0.0033315682,0.004297350000000001,4.676,0,0
0.0044091422000000005,0.0007343067999999997,-0.012425710000000001,0.0034393078000000002,0.005831772000000001,4.677,0,0
0.004553133488000001,0.0029715528,-0.010025570000000001,0.0012476518000000003,0.006061878,4.678,0,0
0.0015182314879999994,0.0035855608,-0.005444436000000002,-0.0026349082,0.0041819384,4.679,0,0
-0.0030280825119999998,0.004145516600000001,0.0003471920000000002,-0.005103788200000001,0.0027901624,4.68,0,0
-0.0054598185120000005,0.0044099458000000005,0.0043224280000000006,-0.0062941462000000005,0.0016707483999999998,4.681,0,0
-0.006721124112,0.0020913698,0.0038873607999999997,-0.005745292000000001,9.137039999999993e-05,4.682,0,0
-0.0071577176,-0.0008951522,0.0006816927999999999,-0.002366112,0.00014958639999999987,4.683,0,0
-0.0034265576000000004,-0.0012509616,-0.0012755752000000002,0.002205908,0.001311844,4.684,0,0
0.0020564424000000005,-0.00034659739999999984,-0.0015363252000000001,0.005328900000000001,0.0013962839999999996,4.685,0,0
0.0040930844000000004,-0.00016310339999999987,-0.0024707992,0.007138646000000001,0.0012649279999999998,4.686,0,0
0.004132217200000001,6.624140000000011e-05,-0.00095546,0.007309816,0.0010267599999999998,4.687,0,0
0.005241205200000001,0.0009652294000000001,0.0044937480000000005,0.004757024,-0.0005555836000000003,4.688,0,0
0.004491075200000001,0.0010183808000000002,0.010664842,0.0017429960000000001,-0.0023876036,4.689,0,0
0.00210615586,-0.00048224720000000006,0.016730004,-0.0001288359999999998,-0.0030165816,4.69,0,0
0.00202329786,-0.0023597912,0.017605712,-0.001191678,-0.0023989516,4.691,0,0
0.0028541426600000004,-0.0032994820000000003,0.010140549999999998,-0.00144825,-0.0013899236000000001,4.692,0,0
0.0027899346600000004,-0.0037142740000000005,0.0007166500000000001,-0.0010602040000000004,-0.0006234220000000002,4.693,0,0
0.0038584286600000005,-0.003972896,-0.00823627,-0.00030112200000000013,0.0006471520000000001,4.694,0,0
0.005936088000000001,-0.0030754120000000005,-0.01668079,0.0008121739999999999,0.0021222640000000004,4.695,0,0
0.006270918,-0.0011822900000000003,-0.018066704000000003,0.001198216,0.002208776,4.696,0,0
0.005731922,0.00066009,-0.013452390000000002,0.00019038400000000004,0.0011076819999999996,4.697,0,0
0.005479492000000001,0.001924654,-0.010668928000000001,-0.0015627100000000001,-0.00043307000000000024,4.698,0,0
0.003423902,0.002685112,-0.008508296,-0.0037525520000000006,-0.002538212,4.699,0,0
-0.000106084,0.003106846,-0.006019248,-0.0052444300000000004,-0.004265168000000001,4.7,0,0
-0.002645118,0.002895438,-0.0046584619999999995,-0.0055578120000000005,-0.004672906000000001,4.701,0,0
-0.005276946,0.0022197374,-0.0014448,-0.004706924,-0.004171444800000001,4.702,0,0
-0.008558678,0.0019810894000000003,0.004330258,-0.0024139880000000006,-0.0029342748000000004,4.703,0,0
-0.010302672000000002,0.0015046854,0.009642606,0.0003528399999999999,-0.0013331388000000003,4.704,0,0
-0.010251378,0.0004424354,0.013052998000000001,0.002017192,-0.0004521188,4.705,0,0
-0.010028672000000002,-0.0001724306,0.014028298,0.00248824,-0.0005239908000000001,4.706,0,0
-0.008483058000000002,-0.00064968,0.010547445999999999,0.0027491600000000005,5.5515999999999975e-05,4.707,0,0
-0.004744372,-0.001721606,0.0031840659999999993,0.00250533,0.001289088,4.708,0,0
-0.0015682460000000001,-0.0029621620000000004,-0.003986334,0.0013594986000000002,0.0018303479999999999,4.709,0,0
0.0010748400000000005,-0.0038099780000000003,-0.008957374,0.0006905846,0.0025392820000000003,4.71,0,0
0.004725720000000001,-0.004697410000000001,-0.011386694000000003,0.0012523766000000001,0.0039003100000000006,4.711,0,0
0.007849706,-0.00514102,-0.010114866000000002,0.0008101298000000001,0.00395415,4.712,0,0
0.008870474000000001,-0.004648088,-0.005048350000000001,-0.0001569362,0.0026297760000000003,4.713,0,0
0.009374088000000001,-0.0019580960000000003,0.0008345900000000001,0.0004606012,0.002121506,4.714,0,0
0.009173554,0.0035859320000000004,0.005687010000000001,0.0011430912,0.0015776978000000001,4.715,0,0
0.005942328,0.008711142000000002,0.009631228,0.00085974956,9.475179999999996e-05,4.716,0,0
0.0018794540000000005,0.011595804000000001,0.008702402,0.00047133835999999994,-0.0008760422000000001,4.717,0,0
-0.001053162,0.012597256,0.0029772059999999987,0.00014375635999999995,-0.0012834314000000002,4.718,0,0
-0.004526922,0.010346936,-0.0015920360000000004,-0.00024069903999999998,-0.0020344634000000004,4.719,0,0
-0.008030282,0.004568894,-0.004837574000000001,-0.0005071912400000001,-0.0023648532,4.72,0,0
-0.009223696,-0.002247706,-0.007947820000000001,-0.0005480548,-0.0014911426000000002,4.721,0,0
-0.009144576,-0.008644026,-0.005883216,5.0637199999999956e-05,-0.0007021105999999999,4.722,0,0
-0.008960964,-0.012648726,0.0010562240000000001,0.00030106839999999996,-0.0008719194000000001,4.723,0,0
-0.006527740000000001,-0.013339696,0.006927346,-0.0008625981999999999,-0.0006940074,4.724,0,0
-0.0025054560000000005,-0.012779898,0.011201963999999998,-0.00149343,5.9020600000000056e-05,4.725,0,0
0.00105238,-0.010412196,0.014287290000000001,-0.0005052647999999999,0.0006628300000000001,4.726,0,0
0.004705394,-0.006143036000000001,0.014066098,-0.0006188975999999998,0.001075606,4.727,0,0
0.008232064,-0.0029617864,0.008622438000000001,-0.0016760587999999999,0.001099192,4.728,0,0
0.009746170000000002,-0.0010985284,0.000757337999999998,-0.0010195548,0.001053104,4.729,0,0
0.009386905999999999,0.0012315096000000002,-0.0052795820000000005,7.155920000000002e-05,0.0010226620000000001,4.73,0,0
0.009166670000000002,0.0033500796000000004,-0.008840206,-0.0003254508000000001,0.000325619,4.731,0,0
0.007108534000000001,0.0045776796000000005,-0.0093356492,-0.00042266680000000004,-0.0009698070000000002,4.732,0,0
0.002527502,0.00574568,-0.006121437200000002,0.0014630252,-0.001372539,4.733,0,0
-0.0010790080000000002,0.006507762,-0.0026375692000000003,0.0027245332000000004,-0.0013004530000000002,4.734,0,0
-0.004006816,0.005988368,-0.0010923492,0.002067694,-0.001745341,4.735,0,0
-0.007875056,0.0048323,-0.0006947012,0.001580052,-0.002375082,4.736,0,0
-0.01015802,0.004064492,-0.0023938939999999997,0.0020931648,-0.001990055,4.737,0,0
-0.009213314,0.00332269,-0.0053100660000000004,0.0022822548000000003,-5.357899999999978e-05,4.738,0,0
-0.008060936000000001,0.002548374,-0.008088774,0.0016639688,0.0011636390000000002,4.739,0,0
-0.006804442,0.002143102,-0.011305714000000001,0.001157174,0.0013077888000000003,4.74,0,0
-0.003181258,0.001889064,-0.012962598,0.00021799600000000014,0.0020554754000000003,4.741,0,0
0.0005847499999999998,0.002111284,-0.011067406000000002,-0.001313252,0.0026376224,4.742,0,0
0.00279715,0.002672222,-0.0058575660000000015,-0.002821398,0.0017379804000000002,4.743,0,0
0.005285158,0.002738476,0.002349034,-0.0037705480000000003,0.0010735404000000001,4.744,0,0
0.007941172,0.0030899540000000002,0.011303434000000001,-0.0033240866,0.0015419945999999999,4.745,0,0
0.008131510000000002,0.0027005822,0.020471614,-0.0018578666000000003,0.00193112,4.746,0,0
0.007234614,-0.00033678979999999994,0.023230300000000002,-0.0007539644000000002,0.001825206,4.747,0,0
0.007031096000000001,-0.0032085838000000004,0.014549880000000001,-0.00045005440000000016,0.0013369294,4.748,0,0
0.00480122,-0.0045597478000000006,0.004186559999999999,0.00010923800000000005,0.00048172540000000004,4.749,0,0
0.0010480999999999997,-0.006000523800000001,-0.0033284200000000016,-3.9917399999999964e-05,-0.0009038486,4.75,0,0
-0.001183216,-0.006227604,-0.011254040000000002,-0.0008876574000000001,-0.0023236166,4.751,0,0
-0.002986254,-0.004274642,-0.014025498,-0.0004794036000000001,-0.0033528426,4.752,0,0
-0.005884238,-0.0024573741999999997,-0.008529525999999999,0.0002274884000000001,-0.0040010060000000005,4.753,0,0
-0.007174786000000001,-0.0015601656000000003,-0.0034440682,1.280600000000008e-05,-0.004431634,4.754,0,0
-0.006474804,-0.0010299612,-0.0009889900000000001,0.00035905206000000004,-0.003999124,4.755,0,0
-0.0063720140000000005,-0.0005153008000000001,-0.00010820860000000003,0.00161748406,-0.00305238494,4.756,0,0
-0.005500752,0.00022079119999999998,0.0007377874000000001,0.00149524806,-0.00204746894,4.757,0,0
-0.0026694,0.0003200188,0.0037383754,0.0005085420599999999,-0.0004921669400000003,4.758,0,0
4.692999999999993e-05,0.00010350619999999997,0.0062057576,-6.509394000000016e-05,0.0006820690600000002,4.759,0,0
0.002080972,-0.0001578162000000001,0.0064597934,-0.0004641280000000001,0.00198827106,4.76,0,0
0.004998516,-0.0003817348000000001,0.0033492920000000002,-0.001125606,0.0036249700000000004,4.761,0,0
0.007571400000000001,-0.00015663280000000014,-0.001569866,-0.0017030312,0.004095298000000001,4.762,0,0
0.008005540000000002,0.00016536780000000003,-0.00533604,-0.001314516,0.00334354026,4.763,0,0
0.007889931999999999,-0.0001148422,-0.0078086442,-0.00028848800000000005,0.00272513226,4.764,0,0
0.007451438,-0.0006463082,-0.008188068440000001,0.00030025660000000003,0.00185150626,4.765,0,0
0.004645614000000001,-0.0008165539999999999,-0.00456993044,0.0007224106,0.00044173426,4.766,0,0
0.0007398639999999998,-0.0010587160000000001,-0.00020959244000000017,0.0021621718000000003,-9.006634e-05,4.767,0,0
-0.002069026,-0.0009124080000000002,0.0020515855600000002,0.0030157266000000005,-0.0002221844,4.768,0,0
-0.005041514,8.573999999999962e-06,0.0038991257600000002,0.0032655825999999997,-0.0006806144,4.769,0,0
-0.008077004,0.001179392,0.005288112,0.00378625,-0.0014524184000000002,4.77,0,0
-0.008850584000000002,0.0016812020000000001,0.00543846,0.0034531659999999997,-0.0019786704000000002,4.771,0,0
-0.008392838,0.0013040038,0.0048637762,0.0023854010000000005,-0.0022032864,4.772,0,0
-0.00834592,0.0006954994000000002,0.003654252,0.001395687,-0.0022817724,4.773,0,0
-0.006690608,0.00016846620000000013,0.001959136,0.0003067950000000002,-0.0012658834000000001,4.774,0,0
-0.003197933999999999,-0.00026857460000000004,0.000318072,-0.0010188330000000002,0.0005116646,4.775,0,0
-0.0003778579999999996,-0.0005447141999999999,-0.0014394,-0.0022014210000000003,0.0013362406,4.776,0,0
0.00216159,-0.0005791838,-0.0023118282,-0.0032114860000000004,0.0016469791999999999,4.777,0,0
0.005853218,-0.0005971854,-0.0020070696,-0.0028691145999999996,0.003327299,4.778,0,0
0.00823639,-0.00043279658,-0.0014716136,-0.0016006645999999997,0.0044571640000000004,4.779,0,0
0.008068796000000001,7.839222000000003e-05,-0.0006324856000000001,-0.0010948460000000002,0.0031851600000000002,4.78,0,0
0.00792808,0.0013757378200000003,0.00019068840000000008,-0.0008131540000000002,0.002386804,4.781,0,0
0.007300908,0.00381023162,-0.0005214056,-0.000945116,0.0018753320000000002,4.782,0,0
0.0043355,0.006795821620000001,-0.001820584,-0.0018752194000000002,-0.0006434119999999998,4.783,0,0
0.0014785000000000002,0.009563138,-0.0012023060000000004,-0.0022748506000000003,-0.0021052878000000002,4.784,0,0
-0.0002896880000000003,0.010823334,0.002088194,-0.0021238784,-0.0017186852200000002,4.785,0,0
-0.00319717,0.009371733000000002,0.0073287460000000006,-0.0024469604,-0.0025088212200000005,4.786,0,0
-0.006027282,0.005929823000000001,0.011467134,-0.0019754544000000003,-0.00311477122,4.787,0,0
-0.007071030000000001,0.0004234630000000002,0.011854792,-0.0004062864000000001,-0.0019233270200000004,4.788,0,0
-0.007732238000000001,-0.006294737000000001,0.007018897999999999,0.00032844679999999987,-0.00143829522,4.789,0,0
-0.007888948000000002,-0.010064285000000003,-0.002016321999999999,0.0005575020000000001,-0.0018666498,4.79,0,0
-0.0054605980000000005,-0.010528796000000002,-0.010342402,0.0011283819999999998,-0.0009068487999999999,4.791,0,0
-0.002234218,-0.009938514000000002,-0.014314626,0.00160518992,0.00014436320000000001,4.792,0,0
0.00013754399999999986,-0.007555354,-0.014266797999999999,0.00203021192,7.008720000000004e-05,4.793,0,0
0.003382028,-0.0037248750000000003,-0.010973232000000001,0.00234731792,0.0006979392000000001,4.794,0,0
0.006554766,-0.0013588690000000002,-0.00603962,0.00212632912,0.0018122992000000001,4.795,0,0
0.0073819720000000005,-0.0004891890000000002,-0.0022929920000000006,0.0019776671199999997,0.0017153262000000002,4.796,0,0
0.007084446,-8.799480000000007e-05,0.0004456159999999998,0.0015476652,0.0011231122000000002,4.797,0,0
0.0072134239999999995,0.00011835019999999999,0.00336447,0.00011194119999999986,0.00089327,4.798,0,0
0.005490724400000001,0.00013061380000000002,0.006509044,-0.00042387480000000003,0.0001283388000000001,4.799,0,0
0.0019535484000000004,-0.0007366062,0.00834938,0.0002552880000000001,-0.0005301122000000001,4.8,0,0
-0.0007325475999999998,-0.0016312242000000002,0.008638804,0.00023778999999999993,-0.0006160902,4.801,0,0
-0.0030391516,-0.0020005284000000003,0.0086558,-0.000194748,-0.0013530502,4.802,0,0
-0.0059350156,-0.0020138562,0.006994928,-0.00021834399999999987,-0.0021931942,4.803,0,0
-0.00776142,-0.0018469344000000003,0.0030597660000000002,-0.00083916464,-0.0022916382,4.804,0,0
-0.007371698,-0.0012736059999999998,-0.0010869620000000001,-0.00164589264,-0.0019536292000000006,4.805,0,0
-0.006918098000000001,0.00023374600000000017,-0.0048027140000000005,-0.0008184346399999999,-0.0010470392000000001,4.806,0,0
-0.006079774,0.0021401780000000004,-0.008156490000000002,0.0010067393600000003,0.0016105448,4.807,0,0
-0.0031662140000000005,0.0036863328000000008,-0.009341038000000001,0.0020426673600000005,0.0045935228,4.808,0,0
-0.00033236599999999974,0.004539140400000001,-0.0081210928,0.0022273600000000003,0.005173288000000001,4.809,0,0
0.0014859440000000001,0.0046365112,-0.0053312108000000006,0.001544456,0.004236384,4.81,0,0
0.004183174,0.0038522570000000004,-0.0022709108000000004,-0.00021920800000000003,0.003225476000000001,4.811,0,0
0.0069933600000000005,0.00244871326,-0.0007797988,-0.00207625,0.0013777640000000005,4.812,0,0
0.007441014000000001,0.0010788370799999997,-0.00034921980000000006,-0.0029576602000000005,-0.001035294,4.813,0,0
0.007291472000000001,3.8633680000000015e-05,-0.0005264950000000001,-0.0028234342,-0.001034362,4.814,0,0
0.0075003920000000016,-0.00040422152,-0.0011083310000000002,-0.0017423342000000002,0.00049587,4.815,0,0
0.005392569800000001,-0.00071937732,-0.0008549970000000001,-0.0009421182000000001,0.00014619200000000007,4.816,0,0
0.0018999317999999997,-0.00106416958,0.002056767,-0.0015546142000000002,-0.0012868019999999999,4.817,0,0
-0.0003844342000000002,-0.0010890254,0.008113148,-0.001017204,-0.001793336,4.818,0,0
-0.0027970942000000005,-0.0008237232,0.015451180000000002,0.0006569100000000001,-0.0025237595999999998,4.819,0,0
-0.0059431862000000005,0.0005489348,0.020833674,0.00116235,-0.0039742616,4.82,0,0
-0.006965222,0.0024591748,0.02091928,0.001661298,-0.0037011576000000003,4.821,0,0
-0.006287878,0.0027822568,0.01386226,0.0030796504000000003,-0.0018895688000000004,4.822,0,0
-0.005927476,0.0019268447999999999,9.579999999998617e-06,0.002891195,-0.0006074768000000001,4.823,0,0
-0.0044300341,0.0012417539999999999,-0.0145237,0.0010582018000000002,0.00030814280000000013,4.824,0,0
-0.0015028321,-0.00045082200000000003,-0.02281824,-1.866620000000004e-05,0.0015161108000000003,4.825,0,0
0.0008514819000000002,-0.0020834418,-0.023764308,-0.0006775462000000001,0.002050993,4.826,0,0
0.0025642919000000005,-0.0017961518,-0.017535882,-0.0005497250000000001,0.0022100722000000005,4.827,0,0
0.0047596939000000005,-0.0018300498000000003,-0.007416761999999998,-0.0001310816000000001,0.0023973202,4.828,0,0
0.006162486000000001,-0.0022310878,-0.00019639159999999998,-0.0003954938000000001,0.0019430942,4.829,0,0
0.005827532000000001,-0.0007508878000000002,0.0030073684000000004,-0.0004086538000000001,0.001409859,4.83,0,0
0.005708652000000001,0.0013691140000000003,0.004143742400000001,0.00011767980000000004,0.0012458212,4.831,0,0
0.005341676,0.0032323840000000005,0.0027785524,-0.0001621598,0.0005670332000000001,4.832,0,0
0.0025687960000000004,0.006066082000000001,0.0008199943999999999,-0.0010349038,-0.0006566628,4.833,0,0
-0.00031508800000000026,0.0076909640000000015,1.5716000000000037e-05,-0.0013684144,-0.0016431268000000002,4.834,0,0
-0.0019362340000000007,0.00585966,-0.0022445240000000003,-0.0016944503999999998,-0.0025990056,4.835,0,0
-0.005006774,0.0026000199999999993,-0.00554125,-0.002080632,-0.003524236,4.836,0,0
-0.008262894000000002,-0.0018999799999999997,-0.007594366,-0.002200076,-0.004092856000000001,4.837,0,0
-0.008286032000000002,-0.007463948000000001,-0.008724838,-0.001177356,-0.0037148120000000005,4.838,0,0
-0.0069418050000000005,-0.009793894000000001,-0.006889296,-4.776999999999993e-05,-0.0030664328000000007,4.839,0,0
-0.006131611000000001,-0.00842137,-0.002774426,0.00022052999999999992,-0.002412858000000001,4.84,0,0
-0.0033580430000000002,-0.0066633840000000005,0.003301554,0.000281752,-0.001181218,4.841,0,0
0.00047311900000000004,-0.004317424,0.013085254000000001,-0.0005417779999999999,-0.00021871459999999994,4.842,0,0
0.002613885,-0.00092398,0.023568524,-0.002280238,7.934471200000005e-05,4.843,0,0
0.00480595,0.001189,0.03149171,-0.0035159939999999997,0.000597563512,4.844,0,0
0.00803525,0.001802042,0.0348904,-0.00406269,0.000546061912,4.845,0,0
0.009831702000000001,0.0019816540000000002,0.031301094,-0.004288352,-0.0005731900880000002,4.846,0,0
0.010048992000000001,0.0021253222,0.017053394,-0.0020547680000000002,0.00017033851199999982,4.847,0,0
0.010332278,0.0020819842,-0.002057386000000002,0.0012540259999999999,0.0019739072,4.848,0,0
0.008538714000000001,0.0016441117999999998,-0.017846406000000002,0.002843118,0.0018379632,4.849,0,0
0.0034408940000000003,0.0013760318,-0.027511206000000003,0.004226526,0.001466466,4.85,0,0
-0.0033577660000000003,0.00013000580000000004,-0.027358535600000004,0.005217556000000001,0.0018652900000000006,4.851,0,0
-0.010972878,-0.0017417184,-0.021801073600000002,0.004720158,0.0009932572,4.852,0,0
-0.017882564,-0.0026668884,-0.0164555736,0.0038905520000000002,-0.0005847528000000001,4.853,0,0
-0.02116666,-0.00305291,-0.010942137599999999,0.0037186719999999997,-0.0010226710000000002,4.854,0,0
-0.019632892000000002,-0.0035732324,-0.006892305599999999,0.00396247,-0.00017167300000000006,4.855,0,0
-0.014207913999999999,-0.0032867552,-0.007424706,0.004954346,0.001323109,4.856,0,0
-0.005518114,-0.0016258772,-0.006175592000000001,0.00510574,0.0022852778,4.857,0,0
0.003959166,-7.438920000000002e-05,0.0003078479999999999,0.003425812,0.0026817538,4.858,0,0
0.010201826,0.0008307808,0.004537992,0.0025125624000000004,0.0031060040000000003,4.859,0,0
0.012996838000000002,0.0011793372,0.005966122,0.0021549924000000002,0.003068194,4.86,0,0
0.014574940000000002,0.001004906,0.005890754000000001,0.0010198744,0.002919076,4.861,0,0
0.014499380000000001,0.0002079600000000001,0.0035582900000000004,-0.0002610195999999999,0.002862312,4.862,0,0
0.012077452,-0.0007429179999999999,0.0006212819999999999,-0.0010690395999999997,0.001971596,4.863,0,0
0.00943563,-0.0014382656,-0.0016037860000000003,-0.0020780599999999996,0.0007109799999999999,4.864,0,0
0.007607009999999999,-0.0018348824,-0.0028273658000000004,-0.0042095859999999995,-0.0010280660000000002,4.865,0,0
0.003998782,-0.0011805764,-0.0020987018000000004,-0.006507026,-0.0038613240000000006,4.866,0,0
-0.0005881580000000001,0.0002679956000000001,0.0007140802,-0.007451608000000001,-0.006292994,4.867,0,0
-0.003310318,0.0022030856000000002,0.0026217302,-0.007257704000000001,-0.006963084,4.868,0,0
-0.005677274,0.0037785392,0.0031981522,-0.0059782080000000005,-0.006225817800000001,4.869,0,0
-0.008377034000000002,0.00446147,0.004192414,-0.0028237740000000007,-0.0037415078000000005,4.87,0,0
-0.009068336,0.0051635940000000005,0.004646152000000001,0.0005184639999999997,-0.00019052179999999976,4.871,0,0
-0.007914942000000001,0.005526182000000001,0.0037656054,0.002402372,0.0020732782,4.872,0,0
-0.007490212000000001,0.004727702,0.0029328354,0.003046013,0.0027224522000000003,4.873,0,0
-0.0064464100000000005,0.0034369556000000004,0.0019929974,0.0024445590000000002,0.0029012452000000003,4.874,0,0
-0.0035783260000000006,0.0024827540000000006,0.0015635974000000003,0.0010494773999999998,0.0022507971999999998,4.875,0,0
-0.0013724100000000001,0.001393036,0.0028807214000000003,0.00010859739999999999,0.0006214298,4.876,0,0
-8.826799999999985e-05,0.0004560720000000001,0.0038207200000000005,0.0001830734,0.00044405980000000007,4.877,0,0
0.0022889440000000002,-3.400399999999998e-05,0.0035713230000000004,0.0009141344,0.0015864818,4.878,0,0
0.004818504,-0.00033866880000000003,0.003612285,0.0016444104,0.0020163266000000003,4.879,0,0
0.005479012,-0.0002250376,0.0030403652000000002,0.001946078,0.0023553786,4.88,0,0
0.0060446119999999996,-0.0003988936,0.0006004831999999999,0.0019542360000000003,0.00340811,4.881,0,0
0.00658837,-0.0008786236,-0.0019219748000000002,0.0013592556,0.0034931759999999997,4.882,0,0
0.004465116000000001,-0.0008713122,-0.0036186118,0.0006043816,0.0021629000000000006,4.883,0,0
0.001541454,-0.0007758180000000001,-0.0043422598000000005,3.26635999999999e-05,0.000960078,4.884,0,0
-0.00025854999999999997,-0.0009400396000000001,-0.0038534980000000003,-0.0011760664,-0.0008539499999999999,4.885,0,0
-0.0027320900000000004,-0.000601328,-0.0030394772,-0.0024062484,-0.0036354919999999997,4.886,0,0
-0.00499733,-0.0002584694,-0.0016622868000000003,-0.002978152,-0.0058120739999999995,4.887,0,0
-0.005019292,-0.0006987528,-0.0003347008,-0.0030192360000000002,-0.006137094,4.888,0,0
-0.00447032,-0.0007013452000000001,0.00021325740000000004,-0.002122366,-0.005015094,4.889,0,0
-0.004732488,-0.0003126206,0.0014893834,-0.000838538,-0.00353638,4.89,0,0
-0.0035354364,-0.00039805,0.0044995826,-0.0004322960000000001,-0.001955462,4.891,0,0
-0.0012357864000000004,-0.0004977146,0.0069914242000000005,-0.001036474,-0.0008583500000000001,4.892,0,0
1.5261599999999962e-05,-0.00013860280000000001,0.007129243599999999,-0.00277988,-0.0007519720000000002,4.893,0,0
0.0016671575999999998,-4.8130800000000003e-05,0.0045472353999999994,-0.005731766,-0.0018185520000000002,4.894,0,0
0.0042574676,-0.00022816540000000004,-0.000720176600000001,-0.007071598000000001,-0.002474846,4.895,0,0
0.0056980699999999995,-0.000251061,-0.0047143206,-0.003926074,-0.00027022600000000015,4.896,0,0
0.005470514,-0.0008388190000000001,-0.0069455786,0.0010966959999999994,0.003396532,4.897,0,0
0.005581678,-0.0018053068000000003,-0.009471942,0.004945458,0.005958192,4.898,0,0
0.0047764339999999995,-0.0025408354,-0.009194902000000001,0.008453714,0.007373504,4.899,0,0
0.001992672,-0.0027936034,-0.005317853400000001,0.010528504,0.00766029998,4.9,0,0
-0.00022479599999999998,-0.0026502950000000004,-0.0028256374000000003,0.008578308,0.00541610998,4.901,0,0
-0.0016774200000000002,-0.0017233804000000002,-0.0016154894,0.0047851864,0.0018603379799999997,4.902,0,0
-0.003626184,-0.0007740284000000001,0.0019406846000000002,0.0026433644,-0.0009711520199999999,4.903,0,0
-0.00545752,-0.0005540724000000001,0.0046038686,0.0015850310000000002,-0.00245769602,4.904,0,0
-0.005407678000000001,-0.0007994924,0.004530266200000001,0.0004942674000000001,-0.00226484,4.905,0,0
-0.0050710500000000006,-0.0013179134000000001,0.0034699542,-7.022760000000005e-05,-0.0019685546000000006,4.906,0,0
-0.004722596,-0.0015690506,0.001907793,0.000245848,-0.0012246666,4.907,0,0
-0.0022393720000000008,-0.0012563486,0.0009859274400000001,0.0005692754000000001,0.0008892854000000001,4.908,0,0
0.0007630180000000001,0.00025111740000000006,0.0015475834400000001,0.0002050200000000001,0.0027166214000000004,4.909,0,0
0.002884292,0.0017498613999999998,0.00152132764,-7.781039999999996e-05,0.0034390554000000005,4.91,0,0
0.005417752,0.0026066853999999998,-7.586036000000016e-05,-0.0003509794,0.004282294,4.911,0,0
0.008182154,0.003164652,-0.0007679411600000003,-0.0011047394000000001,0.00465727,4.912,0,0
0.008657756,0.003107606,-0.0017758876000000003,-0.0015099968000000003,0.0034023252000000004,4.913,0,0
0.008664148000000002,0.0023942860000000002,-0.0039053276000000003,-0.0017032520000000002,0.0019206332,4.914,0,0
0.008755110000000002,0.0015044118,-0.00361061,-0.002268944,0.0008374718000000003,4.915,0,0
0.006641848400000001,0.0011501620000000001,-0.0012200160000000002,-0.0023869500000000005,-0.00037234619999999987,4.916,0,0
0.003353350400000001,0.0008580060000000001,0.000574456,-0.0020252244,-0.0013741762,4.917,0,0
0.0010174344000000004,0.0005089932000000001,0.0014066289999999997,-0.0020567984000000004,-0.0015280933999999998,4.918,0,0
-0.0012330276000000002,-6.207479999999999e-05,0.0015819389999999999,-0.0021199684000000004,-0.0018625973999999998,4.919,0,0
-0.0042523956,-0.0007115025999999999,0.0008189309999999997,-0.0015989064000000001,-0.002377882,4.92,0,0
-0.0054862520000000005,-0.0011306348,-0.0003113870000000001,-0.0011130616,-0.001932705,4.921,0,0
-0.005356354,-0.0015372448,9.543700000000008e-05,-0.0015020132,-0.0016094448,4.922,0,0
-0.0046476644,-0.001679952,0.001891274,-0.0020812592000000003,-0.0018944748,4.923,0,0
-0.0046801044,-0.002000994,0.003503252,-0.0019613812,-0.0024088268,4.924,0,0
-0.0019292404,-0.001835678,0.00373235,-0.0017021952,-0.0044818868,4.925,0,0
-0.0005620842000000001,-0.0008160860000000002,0.001494942,-0.0018354648,-0.0080394138,4.926,0,0
-0.0087916842,-0.0007114875999999999,-0.002343782000000001,-0.0015752088,-0.011378956,4.927,0,0
-0.0189290298,-0.0016916136,-0.004475856,-0.0008423828,-0.014219144,4.928,0,0
-0.0268042598,-0.0025045696,-0.0050551822,-0.00014049480000000007,-0.015116780000000002,4.929,0,0
-0.0338439618,-0.0034257616,-0.005636218200000001,0.0012490512,-0.012067246,4.93,0,0
-0.034523636,-0.0039482536,-0.0042046462,0.0030399199999999998,-0.006469386,4.931,0,0
-0.023264735999999998,-0.00205588,-0.0020286062,0.004889018,0.00012857400000000022,4.932,0,0
-0.006075595999999998,0.0007890200000000003,-0.0021093242,0.006320698,0.007844934,4.933,0,0
0.013037764,0.0027972300000000004,-0.002385508,0.0060613696,0.014387734000000001,4.934,0,0
0.030728984,0.0038021340000000004,-0.0008599600000000002,0.0041153796,0.0179295,4.935,0,0
0.043643060000000004,0.0036743808,0.0012843300000000002,0.0015739276000000008,0.01884846,4.936,0,0
0.0528585,0.0019530127999999997,0.00445811,-0.0005409843999999999,0.01770598,4.937,0,0
0.05416436,-0.0002944272,0.00853579,-0.0019911904,0.014310260000000002,4.938,0,0
0.04734878,-8.910919999999994e-05,0.011672372,-0.002534858,0.008337206,4.939,0,0
0.03511064,0.0017113888000000002,0.011755068,-0.002394678,0.0019077259999999993,4.94,0,0
0.01850086,0.0035596140000000004,0.008407222,-0.0020330440000000003,-0.004132834,4.941,0,0
-0.0012134600000000004,0.005635734,0.004940550000000001,-0.0017052620000000001,-0.010140254000000001,4.942,0,0
-0.01966048,0.0064937938,0.0030169579999999997,-0.001217978,-0.014017234,4.943,0,0
-0.03325684,0.0050504058,0.0017411879999999999,-0.0004372460000000001,-0.01449456,4.944,0,0
-0.04244122,0.0027429638,0.0009691221999999997,-3.010960000000051e-06,-0.014239120000000001,4.945,0,0
-0.046496520000000006,-0.0007410642000000001,-0.0007078737999999998,0.00014828904000000005,-0.012814002000000001,4.946,0,0
-0.0433211,-0.0048980842,-0.0056410018,-0.00015043696000000006,-0.008610952000000002,4.947,0,0
-0.034239808000000004,-0.007167618000000001,-0.0118775298,-0.00173348696,-0.004761316,4.948,0,0
-0.022265224,-0.007854627999999999,-0.0153183238,-0.00373412096,-0.0009563699999999996,4.949,0,0
-0.008068483999999999,-0.007359502,-0.014331842000000001,-0.004520736000000001,0.00472619,4.95,0,0
0.005335216,-0.005436486000000001,-0.008843042,-0.005632358,0.009468971999999999,4.951,0,0
0.015695436,-0.0022861999999999995,-0.0004110219999999996,-0.0071982040000000014,0.011675482000000001,4.952,0,0
0.024069124,0.001404518,0.0070837980000000005,-0.00548816,0.014359446,4.953,0,0
0.03029904,0.004447342,0.010436458000000001,-0.0017697700000000008,0.01670392,4.954,0,0
0.033010660000000004,0.006333442,0.00813431,0.00031106999999999966,0.015276138,4.955,0,0
0.032710260000000005,0.007582164000000001,0.0004599299999999999,0.002498058,0.011833916,4.956,0,0
0.02940028,0.007837612,-0.00781929,0.005745906,0.008341338,4.957,0,0
0.020090376000000004,0.006615192000000001,-0.012031103999999999,0.006771024000000001,0.003103728,4.958,0,0
0.0055957559999999995,0.0045416200000000006,-0.012899016000000001,0.0062600120000000006,-0.0033362720000000004,4.959,0,0
-0.009155344,0.001669566,-0.00957973,0.006783540000000001,-0.0076932300000000006,4.96,0,0
-0.021822104000000002,-0.0017784840000000003,-0.0009237899999999999,0.00782656,-0.009433858,4.961,0,0
-0.03208406400000001,-0.004930524,0.007404369999999999,0.008717152000000002,-0.009976538,4.962,0,0
-0.038243639999999995,-0.007347982000000001,0.011438624,0.008726458,-0.009181516,4.963,0,0
-0.03897482,-0.008973020000000002,0.01290498,0.007484638,-0.006725795800000001,4.964,0,0
-0.0355579,-0.009395308000000002,0.012382188,0.0050462860000000005,-0.003957249800000001,4.965,0,0
-0.0277480906,-0.008543996000000002,0.008808050000000001,0.001932168,-0.0010970638000000004,4.966,0,0
-0.014399490599999999,-0.007300823999999999,0.0037993900000000006,-0.002271212,0.0015838521999999998,4.967,0,0
0.002187809399999999,-0.005355540200000001,-0.0015693100000000004,-0.006480992,0.0034082202,4.968,0,0
0.0190368294,-0.0021806182,-0.007734350000000001,-0.007764784,0.005236398000000001,4.969,0,0
0.0341227094,0.0012178278,-0.012187178000000002,-0.006845238,0.007193832000000001,4.97,0,0
0.04403978,0.0048279737999999996,-0.012358394,-0.0062875859999999995,0.007721786000000001,4.971,0,0
0.044594619999999995,0.0082946878,-0.008673018,-0.00557335,0.006612688,4.972,0,0
0.037395823999999994,0.010418744,-0.003124318,-0.004095754,0.004902232,4.973,0,0
0.026297071999999998,0.011105300000000002,0.0032313820000000005,-0.004331618000000001,0.0015517419999999998,4.974,0,0
0.011056331999999999,0.010136248,0.008641982000000001,-0.005996106,-0.003998138,4.975,0,0
-0.005833348,0.007048520000000001,0.00980633,-0.006437458,-0.009238748,4.976,0,0
-0.018949988,0.003759324,0.007269327999999999,-0.005302806,-0.011910068,4.977,0,0
-0.026985012,0.0013822780000000002,0.004599493199999999,-0.003426424,-0.012773276,4.978,0,0
-0.03143594,-0.0014874040000000001,0.0022967098,-0.0015379360000000002,-0.012609561999999998,4.979,0,0
-0.03077066,-0.0036697480000000005,0.00010173180000000003,-0.00010035460000000023,-0.010454792000000001,4.98,0,0
-0.024617886,-0.004719598,0.0005116898,0.0007243013999999999,-0.006857634000000001,4.981,0,0
-0.016223256,-0.005318786,0.0024037278,0.0008910053999999996,-0.0037525540000000004,4.982,0,0
-0.006150316000000001,-0.004283596,0.0029756866,0.0005085214,-0.001244634,4.983,0,0
0.005553684,-0.0009732460000000001,0.003365438,-8.710340000000004e-05,0.0015500380000000001,4.984,0,0
0.015710984,0.0031731220000000004,0.002200726,-3.4604600000000024e-05,0.004190668,4.985,0,0
0.02288287,0.006629862,-0.0016870860000000002,0.0002472342,0.0059637200000000005,4.986,0,0
0.02835718,0.008623444000000001,-0.006096758000000001,0.00041530564,0.006946646,4.987,0,0
0.03006928,0.008111378800000001,-0.009264982000000001,0.00085632364,0.006615094,4.988,0,0
0.02618148,0.005651857800000002,-0.010765026000000002,0.00167159844,0.004626614,4.989,0,0
0.0198935582,0.0008092778,-0.010131518,0.00384532824,0.002600214,4.99,0,0
0.0118641182,-0.0057020042,-0.0054319500000000005,0.0071782654400000005,0.0009370663999999998,4.991,0,0
0.0007993382000000019,-0.010082242200000001,0.0005129099999999997,0.010082282000000001,-0.0014440616,4.992,0,0
-0.0101518218,-0.011905627000000002,0.004407164,0.01209901,-0.0032600416,4.993,0,0
-0.018394381799999998,-0.013672568,0.007233280000000001,0.013728580000000002,-0.0037704115999999998,4.994,0,0
-0.0257704,-0.014054648,0.009028308,0.013871640000000003,-0.0042107436000000005,4.995,0,0
-0.03173804,-0.011411166,0.00848536,0.012890120000000001,-0.0038458060000000002,4.996,0,0
-0.03355044,-0.00924395,0.007000666,0.011932372,-0.0014556819999999998,4.997,0,0
-0.03341344,-0.008885146,0.006218362,0.010444896,0.0013254560000000002,4.998,0,0
-0.03271516000000001,-0.008149924,0.0041546099999999996,0.008024941,0.003609334,4.999,0,0
-0.02878948,-0.006378196,0.0009308739999999999,0.005060512999999999,0.006624426000000001,5.0,0,0
-0.021986816,-0.004924312,-0.003097086,0.001767855,0.009070946,5.001,0,0
-0.015179638000000002,-0.0034884714,-0.007237512,-0.0026301770000000005,0.009763584,5.002,0,0
-0.007068418,-0.0006803073999999999,-0.008042666799999999,-0.007561561000000001,0.009796104,5.003,0,0
0.0038483820000000005,0.0031171126,-0.0037153148,-0.012215426000000001,0.009248894,5.004,0,0
0.013661282,0.0070922846,0.0025696352,-0.016750638,0.006360482000000001,5.005,0,0
0.021144898000000002,0.0110364786,0.0073843972,-0.02112962,0.001452862,5.006,0,0
0.028499120000000003,0.015286782000000002,0.0083167372,-0.023577180000000003,-0.003031578,5.007,0,0
0.033097020000000005,0.018384320000000003,0.003301242000000001,-0.02303268,-0.00710326,5.008,0,0
0.03219612,0.019055100000000002,-0.003629958,-0.020756,-0.010472292000000001,5.009,0,0
0.02872776,0.017859947999999997,-0.00807152,-0.017028972000000003,-0.011859780000000002,5.01,0,0
0.024488620000000003,0.015410040000000002,-0.008761650000000001,-0.011934687999999999,-0.011313952000000002,5.011,0,0
0.018258448,0.011204536,-0.005197608,-0.006826808,-0.010134440000000002,5.012,0,0
0.012609552000000001,0.005997972,-0.0004346679999999998,-0.0029733240000000003,-0.008568300000000001,5.013,0,0
0.009904036000000001,0.002075084,0.0003332919999999998,-1.5158000000000142e-05,-0.006069780200000001,5.014,0,0
0.006687768,-0.0006451359999999998,-0.0012846099999999998,0.002408358,-0.0032681322,5.015,0,0
0.0020276480000000004,-0.0028869200000000003,-0.0037561960000000003,0.0038047980000000003,-0.0007669582,5.016,0,0
-0.00019496200000000035,-0.004298646,-0.005869148,0.004416936000000001,0.0015236358000000002,5.017,0,0
0.000614374,-0.003978916,-0.002645568,0.004710054,0.0038557478000000004,5.018,0,0
0.00295893,-0.002520642,0.004621952,0.004666796000000001,0.005154456000000001,5.019,0,0
0.009362618,-0.0005023180000000003,0.011818216,0.0040534920000000006,0.005534478000000001,5.02,0,0
0.018598338,0.002811614,0.015595669999999999,0.00341735,0.005439352000000001,5.021,0,0
0.0237139,0.005636854,0.015938340000000002,0.0029679700000000003,0.0045375926,5.022,0,0
0.023204370000000002,0.005675744000000001,0.01038108,0.0029254100000000002,0.0037373886,5.023,0,0
0.01699289,0.00376707,-0.001001619999999999,0.0040118260000000005,0.0036805086,5.024,0,0
0.0030540900000000006,0.0003110380000000009,-0.01005876,0.005237146,0.0037548086,5.025,0,0
-0.01341693,-0.005453441999999999,-0.013828374000000001,0.006318192000000001,0.0036317386,5.026,0,0
-0.02677163,-0.012309592000000001,-0.015930114,0.007965234000000002,0.004078516,5.027,0,0
-0.03911,-0.019656668000000002,-0.014677514,0.008895070000000001,0.0034428314,5.028,0,0
-0.04942676,-0.02472014,-0.008220044,0.008789672000000002,0.0007317834000000001,5.029,0,0
-0.05474562,-0.02393511,-0.00634432,0.008809528,-0.0016223306000000002,5.03,0,0
-0.05622478,-0.020607006,-0.007726706000000001,0.008481806,-0.0030330846,5.031,0,0
-0.052138840000000006,-0.01631437,-0.005548172,0.008274564000000002,-0.0045389246,5.032,0,0
-0.03852026000000001,-0.009158572000000002,-0.0029637659999999996,0.009010226,-0.004664392,5.033,0,0
-0.02123878,-0.00385258,-0.0009166159999999999,0.009777580000000001,-0.0023598860000000003,5.034,0,0
-0.008622785999999999,-0.004143468,0.0024443859999999998,0.010221504000000001,-0.0003527760000000002,5.035,0,0
0.0006791519999999993,-0.006206792000000001,0.005377926,0.010697794,0.0009741720000000001,5.036,0,0
0.006644880000000001,-0.007766848,0.004044592,0.010758034000000001,0.0030946620000000006,5.037,0,0
0.005266372000000001,-0.009731646,0.0003891259999999992,0.009652090000000002,0.004421862,5.038,0,0
0.0007489399999999998,-0.009660416,-0.0026710740000000003,0.007524568000000001,0.00426994,5.039,0,0
0.002168542,-0.0041591779999999995,-0.0033969840000000005,0.004237590000000001,0.00422258,5.04,0,0
0.006120044,0.006635702,-0.0016219840000000004,-0.0005225659999999999,0.0035638224000000005,5.041,0,0
0.006075776000000001,0.018202502000000002,0.003294136,-0.006949964000000001,0.00019504840000000032,5.042,0,0
0.004991674000000001,0.027346842000000003,0.007545452,-0.0134121,-0.0034461676,5.043,0,0
0.0061762380000000006,0.03329198,0.005715792000000001,-0.016929418,-0.0042592196,5.044,0,0
0.007975722000000001,0.033107660000000004,0.0023881960000000004,-0.018247540000000003,-0.0040718635999999996,5.045,0,0
0.010649202,0.02704882,0.0002284302000000003,-0.019275220000000003,-0.0040611304,5.046,0,0
0.015858162000000002,0.014111939999999998,-0.0025638337999999996,-0.019461680000000002,-0.0024421084,5.047,0,0
0.019680652,-0.0005836799999999996,-0.0035574237999999995,-0.017976080000000002,5.509040000000007e-05,5.048,0,0
0.02270438,-0.0064259140000000005,0.002660376200000001,-0.016772659999999998,0.0001583394000000001,5.049,0,0
0.02952532,-0.006544154,0.013554236200000003,-0.015746842000000004,-0.0011586586000000001,5.05,0,0
0.038360460000000006,-0.006019894,0.024125622000000003,-0.011237280000000002,-0.0009698568000000001,5.051,0,0
0.0458422,-0.0005571639999999991,0.032173506000000004,-0.00429128,-0.00026271480000000005,5.052,0,0
0.055039660000000004,0.007505484400000001,0.03480964,0.0022632800000000003,3.376640000000004e-05,5.053,0,0
0.060922300000000006,0.008864640400000002,0.029035099999999998,0.00941674,0.0009905394,5.054,0,0
0.04904038000000001,0.0061525184,0.012577060000000001,0.017545742000000003,0.0021078474,5.055,0,0
0.023044500000000002,0.0036124804,-0.00808438,0.02305928,0.0018037320000000002,5.056,0,0
-0.002277459999999995,0.0015747304000000002,-0.025168000000000003,0.02574962,0.0010529940000000002,5.057,0,0
-0.02475696,0.0005293300000000001,-0.03454874,0.02793562,0.000967244,5.058,0,0
-0.04315406,-0.0019045800000000003,-0.03411705400000001,0.02784716,0.000985016,5.059,0,0
-0.046536680000000004,-0.005574298,-0.02589173,0.024556880000000003,0.001214854,5.06,0,0
-0.03712646,-0.00886042,-0.01513087,0.02002592,0.0023892880000000003,5.061,0,0
-0.026568006,-0.010113986,-0.006148364000000001,0.015065146800000002,0.003959506,5.062,0,0
-0.016521846000000003,-0.0090585878,-0.0013464440000000002,0.0081895988,0.0046991459999999995,5.063,0,0
-0.007188416000000001,-0.0063779078,-0.002509870000000001,-0.0008903812,0.004333452,5.064,0,0
-0.002043634,-0.0022154898,-0.006377174000000001,-0.0105711412,0.0024620500000000003,5.065,0,0
-0.0011892340000000004,0.0023567922,-0.008932816000000001,-0.0197612612,-0.0002572240000000001,5.066,0,0
-0.0007074040000000003,0.0046133322000000004,-0.009111712000000003,-0.028143448,-0.002078198,5.067,0,0
-0.0001245180000000001,0.005425496,-0.005642752000000001,-0.034211120000000005,-0.0031793226,5.068,0,0
0.0001477919999999999,0.005028982,0.0016778880000000002,-0.036993200000000004,-0.0040237146,5.069,0,0
0.0030065300000000003,0.0020415800000000003,0.009626628,-0.037115020000000006,-0.0036072405999999996,5.07,0,0
0.00883221,-0.00037374999999999973,0.017428390000000002,-0.034275280000000005,-0.0028249486,5.071,0,0
0.011520846000000001,-0.0021231260000000004,0.025371160000000004,-0.029000420000000002,-0.0038711926,5.072,0,0
0.009557702000000001,-0.004046714000000001,0.030479000000000003,-0.02325212,-0.005888578,5.073,0,0
0.007233184000000001,-0.0027078440000000005,0.03014512,-0.017700568,-0.007669858,5.074,0,0
0.003789142,0.0026549599999999996,0.024015734,-0.011547228,-0.00986266,5.075,0,0
-0.0004459259999999997,0.006597868,0.013264294000000001,-0.004789774,-0.010333585999999999,5.076,0,0
-0.0011340120000000002,0.007939888400000001,-0.0011330260000000023,0.0021589060000000004,-0.007955705999999998,5.077,0,0
0.001021498,0.007728800399999999,-0.015903586,0.008553746000000001,-0.005152434,5.078,0,0
0.0017231638,0.0044960984,-0.026193286,0.013490174,-0.00234416,5.079,0,0
0.0022002518,-0.00020197560000000006,-0.028168940000000003,0.016558774,0.0017192600000000002,5.08,0,0
0.0024918398000000003,-0.0048058936000000005,-0.022394280000000003,0.016502919999999997,0.005349692,5.081,0,0
0.0009634435999999999,-0.008291912000000002,-0.012573140000000003,0.01298562,0.006937526000000001,5.082,0,0
-0.0004775444000000001,-0.010340586,-0.0016273,0.0072471919999999995,0.008533114,5.083,0,0
0.00015773779999999986,-0.010420626000000002,0.007622380000000001,0.0010761919999999997,0.009897320000000001,5.084,0,0
0.0012581797999999997,-0.008402982,0.011867304,-0.004122368,0.009330353999999999,5.085,0,0
0.0004733277999999999,-0.004235504000000001,0.008857044,-0.008483448,0.006630724,5.086,0,0
-0.0016679700000000004,0.002297916000000001,0.0009335440000000014,-0.011523168,0.0031063220000000008,5.087,0,0
-0.0048804140000000005,0.008244796000000002,-0.007428756,-0.01218342,-0.0008872519999999998,5.088,0,0
-0.012412084,0.010872778000000001,-0.013714556000000001,-0.011169950000000001,-0.0053279320000000005,5.089,0,0
-0.028527852,0.009129914000000001,-0.0173156,-0.009475686,-0.007850496,5.09,0,0
-0.046414739999999996,0.003116774,-0.014644146,-0.006286666000000001,-0.008095624000000001,5.091,0,0
-0.05774788,-0.004714866000000002,-0.006537826,0.00021311400000000036,-0.007309256,5.092,0,0
-0.06114988,-0.011320506000000001,0.00030673399999999905,0.010793933999999998,-0.005579122,5.093,0,0
-0.05276606599999999,-0.015378534000000001,0.00508351,0.024062684,-0.0024591500000000002,5.094,0,0
-0.030725365999999997,-0.016621884,0.008668102,0.03743742,0.00037461199999999975,5.095,0,0
-0.002125066000000002,-0.015026094,0.007682038,0.04898428,0.002411634,5.096,0,0
0.022351034000000002,-0.012181732,0.00345922,0.0557728,0.005229688,5.097,0,0
0.033499574000000004,-0.010026448,0.00195866,0.05536304,0.007660228000000001,5.098,0,0
0.030642004,-0.008307876,0.0015745440000000002,0.04836564,0.008358288,5.099,0,0
0.02540123,-0.005674392,0.00178881,0.036499765999999996,0.008725506000000001,5.1,0,0
0.023610910000000002,-0.0016661020000000005,0.0035092920000000007,0.02283788,0.009149034,5.101,0,0
0.026916630000000004,0.0030450560000000004,0.004426558,0.00953364,0.008015884000000001,5.102,0,0
0.03980675,0.008049712,0.004212416,-0.0010513199999999997,0.006992062,5.103,0,0
0.06080532600000001,0.012484380000000002,0.003420098,-0.005114444,0.007887030000000001,5.104,0,0
0.07517854000000002,0.013959000000000003,0.00200821,-0.00363761,0.008125236000000001,5.105,0,0
0.057240440000000004,0.010296084,-0.0003147199999999999,-0.001214972,0.006158386000000001,5.106,0,0
0.005782139999999998,0.0008400239999999991,-0.0031050880000000006,0.0007958580000000002,0.0028392360000000006,5.107,0,0
-0.05344664000000001,-0.010156056,-0.006580806,0.001543554,-0.0018037219999999998,5.108,0,0
-0.10746116,-0.018024816000000003,-0.00810767,-0.00024511999999999993,-0.007019902,5.109,0,0
-0.1475132,-0.023100856000000003,-0.006612434,-0.00193946,-0.010273580000000001,5.11,0,0
-0.15196346000000002,-0.024958980000000002,-0.00478308,-0.001516268,-0.010865850000000002,5.111,0,0
-0.11959988,-0.02114424,-0.002604682,-3.8509999999999846e-05,-0.009821552,5.112,0,0
-0.07210622,-0.013115992000000002,0.0011772000000000002,0.0009052260000000002,-0.0065298886,5.113,0,0
-0.024186380000000007,-0.004688532,0.003418974000000001,1.572600000000063e-05,-0.0019270166000000001,5.114,0,0
0.016927199999999996,0.004197008,0.0046339680000000005,-0.004661854,0.0021810653999999995,5.115,0,0
0.04547246,0.013923048,0.011743472000000001,-0.013202138,0.006001573400000001,5.116,0,0
0.058612399999999995,0.023620988000000002,0.024003834,-0.022513746,0.0091771694,5.117,0,0
0.061838340000000006,0.029074820000000005,0.037774592,-0.030995498000000003,0.009775062000000001,5.118,0,0
0.06288078000000001,0.02960898,0.049317780000000006,-0.03907788,0.007450156,5.119,0,0
0.06476444,0.027987300000000003,0.05195782000000001,-0.04614278,0.003900046,5.12,0,0
0.07314924,0.021043034000000002,0.0378271,-0.05168814,-0.0008874300000000005,5.121,0,0
0.09069411999999999,0.011420874000000001,0.0017523000000000052,-0.05626598000000001,-0.006340044,5.122,0,0
0.10885992,0.00587796,-0.04039164,-0.05794652,-0.01053388,5.123,0,0
0.11972424,0.0029870139999999996,-0.06493878,-0.0553608,-0.012462726000000002,5.124,0,0
0.11834756000000002,-0.0003790860000000005,-0.07048212999999999,-0.04940464000000001,-0.013851856000000003,5.125,0,0
0.10286082,0.0015059399999999999,-0.06052804999999999,-0.03921148,-0.014316260000000003,5.126,0,0
0.07861203200000001,0.0082509,-0.030498250000000005,-0.026260816000000006,-0.011422902,5.127,0,0
0.049780854,0.011888154000000001,0.003516749999999999,-0.0152455148,-0.008005048399999999,5.128,0,0
0.020657034,0.01245748,0.01757431,-0.0072614468,-0.006202584399999999,5.129,0,0
-0.0030993260000000008,0.011753308,0.015622719999999996,-0.00021687879999999961,-0.0043896804,5.13,0,0
-0.021691846,0.00904691,0.0094854,0.0063035812,-0.0024996784,5.131,0,0
-0.039684018,0.003747836000000001,0.0017165259999999986,0.011872657200000001,-0.0022910024,5.132,0,0
-0.05710674,-0.0017349940000000001,-0.006468668,0.018061356,-0.002090768,5.133,0,0
-0.07117594000000001,-0.005634694,-0.00961258,0.025767268000000003,-0.0006429999999999999,5.134,0,0
-0.08498894,-0.008122222,-0.007147746,0.03363892,0.0007105740000000001,5.135,0,0
-0.09647568000000001,-0.010069804,-0.004491974,0.039762280000000004,0.0027574100000000005,5.136,0,0
-0.09890454000000001,-0.01174283,-0.001969158,0.042917380000000005,0.005134136000000001,5.137,0,0
-0.09575502000000001,-0.011269746,-0.001394252,0.04286562000000001,0.0061438460000000005,5.138,0,0
-0.09195052000000001,-0.008871862,-0.0018705360000000001,0.04017934,0.006087118,5.139,0,0
-0.08295664000000001,-0.005512818000000001,-2.287200000000017e-05,0.03629812,0.006912006,5.14,0,0
-0.06632762,-0.001712226,0.0014219779999999997,0.031057240000000003,0.006914324,5.141,0,0
-0.046944018000000004,0.0016633800000000003,-0.00031110600000000045,0.025779760000000002,0.00523265,5.142,0,0
-0.025097478,0.003808680000000001,-0.0002794540000000004,0.02348238,0.006513612,5.143,0,0
-0.00024449799999999924,0.003994122,0.005262121999999999,0.02188736,0.010054808,5.144,0,0
0.025035262000000003,0.0012416839999999996,0.014463724,0.01807596,0.011442302,5.145,0,0
0.044801262,-0.0042365680000000005,0.025041762000000002,0.013751272000000002,0.011157074000000001,5.146,0,0
0.05675628,-0.009919574,0.032375004000000006,0.010105688,0.010272236,5.147,0,0
0.05943122,-0.014456168000000002,0.033150846000000005,0.004791475999999999,0.005524335999999999,5.148,0,0
0.047111552,-0.017580434000000002,0.024196426,-0.0006080399999999998,-0.0021719440000000007,5.149,0,0
0.026502452000000003,-0.018764040000000003,0.006943266000000002,-0.001913948,-0.00686534,5.15,0,0
0.008046831999999997,-0.01804978,-0.009477294,-0.0004560599999999999,-0.007764090000000002,5.151,0,0
-0.007848508,-0.01558178,-0.018528074,0.002666124,-0.00579,5.152,0,0
-0.017598516,-0.0119003338,-0.02109426,0.0064837160000000005,-0.0011629200000000004,5.153,0,0
-0.013000588,-0.008005615800000001,-0.020188400000000002,0.0078023734000000015,0.004505240000000001,5.154,0,0
8.92919999999995e-05,-0.0027994158000000007,-0.016521539999999998,0.0046113614,0.007942016,5.155,0,0
0.011614252,0.0051145642,-0.011857806,-0.0019850386000000004,0.008242168000000001,5.156,0,0
0.018948752,0.0117663842,-0.007438736,-0.0104250186,0.007301440000000001,5.157,0,0
0.021341788000000004,0.014197018,-0.0020280759999999998,-0.0197157786,0.004682348,5.158,0,0
0.020427828000000002,0.0157237,0.00381138,-0.027637000000000002,0.0006589500000000006,5.159,0,0
0.019148408000000002,0.0159795,0.004978073999999999,-0.0341326,-0.0032511300000000005,5.16,0,0
0.021482508,0.013816398,0.00027409999999999934,-0.0386735,-0.006129320000000001,5.161,0,0
0.027727108000000004,0.010151670000000002,-0.00400539,-0.03999482,-0.008545896,5.162,0,0
0.035213680000000004,0.005682746000000001,-0.007057486000000001,-0.03795276,-0.010231464,5.163,0,0
0.04037004000000001,0.006493566,-0.009206308000000002,-0.03293098,-0.010220234,5.164,0,0
0.038001019999999996,0.015065506000000001,-0.006554702000000001,-0.025385618,-0.010031854,5.165,0,0
0.026960780000000004,0.025500968000000002,0.00023905799999999946,-0.015418046000000003,-0.010101514,5.166,0,0
0.013423040000000002,0.034809576,0.0071997580000000005,-0.004858446000000001,-0.009873890000000001,5.167,0,0
0.002905364000000002,0.04361468,0.012437014,0.005942034,-0.00942629,5.168,0,0
-0.011205556000000002,0.04202716,0.01599808,0.017930374,-0.008269582,5.169,0,0
-0.031186056,0.024095480000000002,0.0157072,0.029469931999999997,-0.0056615020000000005,5.17,0,0
-0.047402955999999996,-0.0014900999999999994,0.011299931999999999,0.03694286,-0.0032175860000000006,5.171,0,0
-0.061437255999999996,-0.0273999,0.004716872,0.03896208,-0.002115554,5.172,0,0
-0.07839348,-0.050027600000000005,-0.0009923539999999998,0.037808220000000003,4.699999999999995e-05,5.173,0,0
-0.08655872,-0.0663268,-0.002681148,0.03355798,0.00276372,5.174,0,0
-0.07842482,-0.06963208,0.0016134120000000011,0.025081386000000004,0.00396627,5.175,0,0
-0.06347352,-0.060595119999999995,0.01094922,0.015372462000000002,0.0052444020000000004,5.176,0,0
-0.044202618,-0.046007808,0.01887672,0.008190168,0.007755832,5.177,0,0
-0.020561558000000004,-0.029388668,0.019014238000000003,0.0027180999999999998,0.010315218000000001,5.178,0,0
0.0012385420000000005,-0.014335339999999997,0.003268352000000002,-0.0025083500000000003,0.011847438000000002,5.179,0,0
0.019565202,-0.002673486,-0.021448707999999997,-0.006955176,0.011870656,5.18,0,0
0.034581482000000004,0.006225394,-0.036352268,-0.011755532,0.010194906,5.181,0,0
0.04535496,0.013048062000000001,-0.037840848,-0.017760118000000002,0.007021850000000001,5.182,0,0
0.05243296,0.015470942000000001,-0.0283914,-0.024753290000000004,0.0020324700000000006,5.183,0,0
0.059101740000000014,0.017386514,-0.0065189199999999975,-0.030837640000000003,-0.00353747,5.184,0,0
0.06164712000000001,0.02066,0.02032404,-0.033236220000000004,-0.006763608000000001,5.185,0,0
0.051502632000000007,0.019081700000000004,0.03254812,-0.03189894,-0.007822548000000002,5.186,0,0
0.033621372000000004,0.015913740000000003,0.025530500000000005,-0.0284386,-0.0076881779999999995,5.187,0,0
0.018171372,0.017754320000000004,0.01367922,-0.023909560000000003,-0.006729822,5.188,0,0
0.005581785999999999,0.022827180000000002,0.005983401200000001,-0.017969988000000003,-0.005134692000000001,5.189,0,0
0.0004170260000000009,0.02980012,-0.0008137407999999998,-0.010880929999999999,-0.002318764,5.19,0,0
0.011811534000000002,0.040782540000000006,-0.0061725508,-0.0042788999999999995,0.0006098320000000003,5.191,0,0
0.031180334000000004,0.05024092000000001,-0.0070653708,0.001497894,0.002951304,5.192,0,0
0.041832214000000006,0.050864780000000005,-0.0104090308,0.006759794000000001,0.004865332,5.193,0,0
0.042296592,0.04158299,-0.018004572000000003,0.010057402000000002,0.005400581,5.194,0,0
0.03530163,0.024603810000000004,-0.019855935999999998,0.011235404000000001,0.0031260509999999995,5.195,0,0
0.019020310000000006,0.004690429999999999,-0.010883726000000003,0.012781134,-0.00041644500000000053,5.196,0,0
0.0009168699999999993,-0.017622570000000004,0.0005173739999999975,0.01593162,-0.0028822350000000004,5.197,0,0
-0.013065910000000002,-0.04203329,0.008019562,0.019372979999999998,-0.004991431,5.198,0,0
-0.027318122,-0.058598300000000006,0.011444822,0.02244776,-0.006685732000000001,5.199,0,0
-0.04637862,-0.06456598000000001,0.006953867999999999,0.02595878,-0.0059159486,5.2,0,0
-0.07178962,-0.06699786,-0.006813152,0.029270679999999997,-0.0030717265999999997,5.201,0,0
-0.09852262,-0.06303702,-0.019189532000000002,0.030082059999999997,-0.0005223286000000001,5.202,0,0
-0.11587937999999999,-0.04960088,-0.020538960000000002,0.027869759999999997,0.0020809834,5.203,0,0
-0.11784188,-0.03404074,-0.013894019999999998,0.024057,0.0050110054,5.204,0,0
-0.10224894,-0.021619902000000003,-0.006380256,0.019167830000000004,0.006531586,5.205,0,0
-0.06817577999999999,-0.010265821999999997,-0.0008417080000000003,0.013878436,0.0070964,5.206,0,0
-0.02611036,0.00039897800000000035,0.001323852,0.009277388,0.008681846,5.207,0,0
0.013716660000000002,0.009046238,0.001253607999999999,0.0059426444000000005,0.010905526,5.208,0,0
0.04552686,0.014296118,0.003961548,0.0028811984,0.012733426,5.209,0,0
0.06700084,0.017758100000000002,0.008887944,-0.0018164115999999998,0.013305878000000002,5.21,0,0
0.08013466,0.023237060000000004,0.016965955999999997,-0.0085731176,0.011462218000000001,5.211,0,0
0.08206468,0.029157440000000007,0.029787716,-0.0168425096,0.006386958000000001,5.212,0,0
0.07357,0.033463740000000006,0.038693700000000004,-0.025083466,-0.0007815419999999997,5.213,0,0
0.061028900000000004,0.036284620000000004,0.03615506,-0.031112499999999998,-0.0071814819999999994,5.214,0,0
0.044882838,0.03537436,0.030963884000000004,-0.03339446,-0.011618246,5.215,0,0
0.025580673999999998,0.02654006,0.026495244,-0.0310204,-0.013298268000000002,5.216,0,0
0.012651046,0.013858779999999998,0.013986664000000001,-0.024697406,-0.01215343,5.217,0,0
0.0071172,0.004533519999999999,-0.006247396000000002,-0.017263412,-0.009870526000000001,5.218,0,0
0.0023122786,-0.0018463900000000003,-0.023053776,-0.011239633999999998,-0.00809267,5.219,0,0
-0.0016664994000000002,-0.005237138,-0.02966754,-0.007205942000000001,-0.007029402000000001,5.22,0,0
-0.0028950154,-0.002831256,-0.03130858,-0.006076562000000001,-0.006658352000000001,5.221,0,0
-0.0057295874000000005,0.001696672,-0.03144396,-0.007584096000000001,-0.007009426000000001,5.222,0,0
-0.0112365814,0.0018488800000000004,-0.028841580000000002,-0.007956504000000001,-0.0060887879999999995,5.223,0,0
-0.011046089600000001,-0.00311133,-0.022031000000000002,-0.006197848000000001,-0.0034514699999999995,5.224,0,0
-0.0053365896,-0.009581162,-0.020416060000000003,-0.004706108000000001,-0.0009986720000000001,5.225,0,0
0.0007764503999999994,-0.014473244000000001,-0.023952702000000003,-0.003051454000000001,0.001370158,5.226,0,0
0.0081998904,-0.017152532,-0.016150882000000002,0.000825332,0.004548054,5.227,0,0
0.0153863104,-0.014622174,0.003295198000000001,0.004168106,0.006707468,5.228,0,0
0.016249512,-0.0059471739999999995,0.020029418,0.004592486000000001,0.0060159340000000006,5.229,0,0
0.011903618,0.0025435860000000005,0.028136118000000005,0.005309866,0.004960552614,5.23,0,0
0.0072944379999999994,0.009189486,0.028689400000000004,0.006233736,0.004172800562,5.231,0,0
0.0019547440000000004,0.019031266,0.01995364,0.005024140400000001,0.0012951865620000004,5.232,0,0
-0.002545794,0.0296349,0.010898595999999998,0.0035043103999999998,-0.0019554814380000002,5.233,0,0
-0.00528874,0.036386360000000006,0.010385436000000001,0.0039002264,-0.0035700774380000005,5.234,0,0
-0.008034446,0.04099230000000001,0.017196556,0.0050877744,-0.004785754052,5.235,0,0
-0.010409326,0.04205794,0.027806876000000005,0.006810370400000001,-0.005561236000000001,5.236,0,0
-0.010997048,0.031088200000000003,0.034820116000000005,0.0100108,-0.003806264,5.237,0,0
-0.009648606,0.0089366,0.027123920000000006,0.013514710000000001,-0.0006420460000000005,5.238,0,0
-0.009297360000000001,-0.014216180000000002,0.0035240999999999988,0.015442240000000003,0.0018572320000000001,5.239,0,0
-0.00966844,-0.03299350000000001,-0.021970840000000002,0.015202956000000002,0.004596892,5.24,0,0
-0.009926540000000001,-0.042764260000000005,-0.0380493,0.012824858080000001,0.006649608000000001,5.241,0,0
-0.012704383999999999,-0.040832362000000004,-0.05423246,0.008067152079999999,0.006159572,5.242,0,0
-0.016679488,-0.028395082000000002,-0.07636216000000001,0.00259106808,0.0042123872,5.243,0,0
-0.017878900000000003,-0.012744361999999999,-0.08280834000000001,-0.0019984739200000004,0.0023803092000000002,5.244,0,0
-0.0168927,-0.0019483980000000005,-0.066955096,-0.00513598992,0.0004954232000000003,5.245,0,0
-0.016505560000000002,-0.0003404979999999994,-0.040787536,-0.005861754,-0.0009405138000000001,5.246,0,0
-0.015065960000000002,-0.005502316,-0.0029607760000000018,-0.0048307820000000005,-0.0007651378,5.247,0,0
