bandpass 1,bandpass 2,bandpass 3,bandpass 4,bandpass 5,time,onset,mark
-0.0008866878,-0.00014390899999999995,-0.000159445,2.6829999999999877e-06,-0.000799864,6.22,0,0
-0.0016805238,-0.000672693,-0.0003522508,-6.306540000000001e-05,-0.0006905985999999999,6.221,1,1
-0.0021176578,-0.001135031,-0.00035255480000000004,-8.86278e-05,-0.0005935713999999999,6.222,0,0
-0.0034872257999999995,-0.001894117,0.00011103222,-0.0003381066,-0.0009646774000000001,6.223,0,0
-0.0044739459999999995,-0.002170624,-9.720258000000001e-05,-0.0004025284,-0.0009383074,6.224,0,0
-0.0036444999999999997,-0.0018273080000000001,-0.00029860058,0.00021244980000000003,-0.0002110164,6.225,0,0
-0.00316213,-0.0013685294000000002,0.00011274321999999999,0.0003394382,-2.7095799999999985e-05,6.226,0,0
-0.0030186019999999996,-0.0008236258,0.00038388322,0.00010756660000000001,7.6871e-05,6.227,0,0
-0.0012122020000000003,-8.386580000000003e-05,0.0004663864,0.00031903460000000004,0.000947199,6.228,0,0
0.0008768719999999999,0.0004016538,0.0006672072,0.0002346756000000001,0.001630241,6.229,0,0
0.001682574,0.0009694898000000001,0.0009194454000000002,-4.61584e-05,0.001900672,6.23,0,0
0.002712214,0.0013716732000000002,0.0007686488000000001,0.0001570736,0.002009792,6.231,0,0
0.004253084000000001,0.0012738676000000001,0.0005464876000000001,0.00032691020000000004,0.0019105,6.232,0,0
0.004560303999999999,0.0013523156000000002,0.00038555260000000004,-0.0002865899999999999,0.001002384,6.233,0,0
0.0043794440000000006,0.0016863160000000002,-0.0004159114,-0.0010176894,-0.0001621219999999999,6.234,0,0
0.004391486,0.0013800008,-0.0012724826000000001,-0.0016692793999999998,-0.001182436,6.235,0,0
0.003275904,0.0008183188000000002,-0.0015120664000000002,-0.0028748254000000003,-0.0028942860000000003,6.236,0,0
0.0010645939999999999,0.0004717088000000001,-0.0017424298000000003,-0.0032294800000000003,-0.004268076000000001,6.237,0,0
-0.000773816,-5.907919999999998e-05,-0.0018528600000000002,-0.001846954,-0.004180358,6.238,0,0
-0.00257771,-0.0004489846000000001,-0.0009123340000000001,-0.00038632399999999974,-0.0035725334000000003,6.239,0,0
-0.00421358,-0.0007747228000000001,0.00029534000000000006,0.0005352380000000002,-0.0032992754000000005,6.24,0,0
-0.004441466,-0.0008911268000000001,0.0005572186,0.0022051260000000004,-0.0019572618000000003,6.241,0,0
-0.003772272,-0.0008588608,0.0007105330000000001,0.0032331060000000003,-0.00037157179999999985,6.242,0,0
-0.00323601,-0.0010401448,0.000628044,0.0024997214,-0.0001230900799999999,6.243,0,0
-0.0025628720000000003,-0.0014140894,-0.00042709600000000007,0.0018686954000000002,0.00021310532000000008,6.244,0,0
-0.001243654,-0.001624642,-0.0011499020000000002,0.0016500794000000002,0.0008725573200000002,6.245,0,0
-0.00029056800000000005,-0.001630128,-0.0010675634000000002,0.0011207268000000001,0.0012927237200000001,6.246,0,0
0.00047542200000000003,-0.00129345286,-0.0011258576,0.0004012388,0.00156427772,6.247,0,0
0.0016997520000000001,-0.0005474948600000002,-0.0011612776000000003,-5.680060000000007e-05,0.002010826,6.248,0,0
0.0028294020000000004,-2.438686000000008e-05,-0.0005760424,-0.0005040046,0.002050914,6.249,0,0
0.0032029880000000004,0.00036013273999999996,-0.00018148620000000003,-0.0010084526000000002,0.0018208906000000001,6.25,0,0
0.0031577500000000004,0.00074195334,-0.00031766380000000004,-0.001269922,0.0019675226,6.251,0,0
0.0027702556000000003,0.0008458062,0.0002403526,-0.00092802,0.0018722686,6.252,0,0
0.0010731676,0.0007226482,0.0010728346000000001,-0.00015837800000000003,0.0013392500000000002,6.253,0,0
-0.0008438784000000002,0.0005654017999999999,0.0011292837999999999,0.00021240620000000007,0.0009273944,6.254,0,0
-0.0017163204,0.00019840820000000003,0.0011557266000000001,0.00018729220000000005,0.0007278624,6.255,0,0
-0.0026590284000000005,-0.0004009064000000001,0.0013166238000000001,0.00019604460000000005,0.00013169153999999993,6.256,0,0
-0.0038718780000000005,-0.0011309544000000001,0.0008594900800000001,0.00022977860000000002,-3.785046000000003e-05,6.257,0,0
-0.0033980879999999996,-0.0015962358000000002,0.00025574188000000004,8.123259999999994e-05,0.00048160414000000004,6.258,0,0
-0.0022430854,-0.0016254984,0.00034045548,0.00012541979999999993,0.00098459574,6.259,0,0
-0.0022574134,-0.0012160568000000001,0.00057598648,0.0003275172,0.0011325651400000002,6.26,0,0
-0.0014039308000000001,-0.0001694628000000001,0.0005265958800000001,0.00011625279999999996,0.0011428558,6.261,0,0
0.00033523920000000005,0.0009745591999999999,0.0007460476000000001,-0.0005592052000000001,0.0010455797999999999,6.262,0,0
0.0009912012,0.0017232146,0.0010813198000000001,-0.0013058931999999999,0.0005104380000000001,6.263,0,0
0.0017768026000000003,0.0023597336,0.0006673658,-0.0016453066,0.0005201400000000001,6.264,0,0
0.0033356146,0.0027632579999999998,1.8289799999999894e-05,-0.002002748,0.0008943500000000001,6.265,0,0
0.004137232,0.0027482799999999996,-0.00019068840000000008,-0.0025689600000000003,0.0007421194000000001,6.266,0,0
0.003952738,0.003110596,-0.00046341300000000014,-0.0025728120000000003,0.0002265614000000001,6.267,0,0
0.003941554,0.00316525,-0.0006693904,-0.0018764220000000002,0.0003093772000000001,6.268,0,0
0.0032734584,0.0023798746,-0.00030013212000000005,-0.0009635440000000002,0.0002119532000000001,6.269,0,0
0.0010496284,0.0017518082000000002,-3.789992000000002e-05,0.000176534,-0.0009629668,6.27,0,0
-0.0007519536000000002,0.0012358574,-5.3960720000000015e-05,0.001584738,-0.0018134520000000001,6.271,0,0
-0.0016273636000000001,0.00016232159999999998,0.00020786387999999998,0.002341966,-0.0025921420000000004,6.272,0,0
-0.0032711136000000006,-0.0009013124,0.00042237527999999997,0.002443552,-0.0038884900000000005,6.273,0,0
-0.004883516000000001,-0.001105597,0.00030711720000000005,0.0019492352,-0.004891796,6.274,0,0
-0.004485704,-0.0014331786,-2.660299999999999e-05,0.0008865591999999997,-0.004722738000000001,6.275,0,0
-0.0038760422,-0.0022143177999999998,-0.00017166779999999992,0.0003172002,-0.004071910000000001,6.276,0,0
-0.0036242426000000004,-0.002655578,-0.0007858158,7.078459999999997e-05,-0.0030288124000000002,6.277,0,0
-0.0018368926000000003,-0.002699862,-0.0016539357999999999,-0.0002838614,-0.0011220703999999999,6.278,0,0
0.00018392340000000004,-0.0026825319999999996,-0.0015058402,-0.00033647660000000004,0.00030520359999999997,6.279,0,0
0.0009686354,-0.0022627097999999997,-0.0011395532999999998,-0.0001123056,0.0013295716,6.28,0,0
0.0018252856,-0.0012747904,-0.0012218793,7.32718e-05,0.0024344936,6.281,0,0
0.00299724,-0.00046156179999999993,-0.0006915023,0.00035390340000000006,0.0029680460000000002,6.282,0,0
0.003147262,4.069130000000003e-05,0.0002223337,0.0006502754000000001,0.0024493410000000003,6.283,0,0
0.00316819,0.0002966633,0.00041421590000000004,0.0010752074000000003,0.0017440950600000002,6.284,0,0
0.0037550500000000002,0.0005408171,0.0007618730000000002,0.0011176304,0.0010208110600000001,6.285,0,0
0.0032015362,0.0006775557000000001,0.0013654550000000002,0.00031116200000000014,-0.0003493729399999999,6.286,0,0
0.0014134242000000002,0.00046345349999999996,0.0014197022,-0.00034821999999999994,-0.00133704494,6.287,0,0
0.0002871002000000001,0.00040799339999999997,0.0011129710000000001,-0.0007349446,-0.00152582894,6.288,0,0
-0.0008743558000000001,0.0006801694,0.0009144748,-0.0013785966000000001,-0.0015658364,6.289,0,0
-0.0026813098,0.0007536994,0.0005308372000000001,-0.0014654046,-0.0014940844,6.29,0,0
-0.003276424,0.0004332358,-0.0001749028,-0.0005763126,-0.0006176183999999999,6.291,0,0
-0.002760994,0.000528861,-0.000599363,0.00023762539999999996,0.0006133296000000001,6.292,0,0
-0.002836534,0.0006369400000000001,-0.0006997154,0.0005730539999999999,0.0011654246000000002,6.293,0,0
-0.002873266,0.000183461,-0.0009825752,0.0009080944,0.0016008860000000001,6.294,0,0
-0.0016150480000000002,-5.966460000000001e-05,-0.0010678152,0.00114069118,0.0020316816,6.295,0,0
-0.0006508379999999997,6.523839999999999e-05,-0.0006115738,0.00054796718,0.0016641482000000001,6.296,0,0
-3.3285999999999884e-05,8.540500000000001e-05,-0.0005650174,-7.795122000000008e-05,0.0008985662000000001,6.297,0,0
0.002047936,0.00023959700000000003,-0.0006587126,-8.505220000000003e-06,0.0007332161999999999,6.298,0,0
0.00400375,0.000753616,-0.00048318199999999997,0.00018474837999999999,0.0008038922,6.299,0,0
0.004202652,0.0010205076000000001,-0.000247985,0.0003546404,0.0005875852,6.3,0,0
0.00453288,0.0013046002,-7.331239999999997e-05,0.0007833122,0.0008610968,6.301,0,0
0.004828428,0.0013851128000000002,0.0002624458000000001,0.0011543026,0.0009766085999999999,6.302,0,0
0.0029476840000000008,0.0007567527999999999,0.0006713206,0.0009450634000000001,0.00041539659999999994,6.303,0,0
0.0006289119999999999,3.44748e-05,0.0008395616,0.0006241732,5.35192e-05,6.304,0,0
-0.0004452420000000001,-0.0003984762000000001,0.000867269,0.00040237,4.200000000000129e-07,6.305,0,0
-0.001854654,-0.0010392022,0.0007717114000000001,1.1024200000000009e-05,-0.0003252942,6.306,0,0
-0.0033437939999999998,-0.0016573310000000002,0.0007200470000000001,-0.00025485380000000004,-0.0007920980000000001,6.307,0,0
-0.0034240119999999997,-0.0015565210000000002,0.00018570500000000004,-1.70646e-05,-0.0007609960000000001,6.308,0,0
-0.00285984,-0.0014142050000000002,-5.2124000000000045e-06,4.698559999999997e-05,-0.000728952,6.309,0,0
-0.0026755800000000003,-0.001787462,0.0002666648,6.2002e-05,-0.0007512014000000001,6.31,0,0
-0.0022692904,-0.00217036,0.00030150140000000005,0.0005274610000000001,-0.0003445514,6.311,0,0
-0.0012021692000000002,-0.0019156336000000001,0.0004820832000000001,0.0006865696000000001,0.00042159259999999997,6.312,0,0
-0.00017547319999999984,-0.0018634976000000002,0.0008214052000000002,0.0004210188,0.0005882950000000001,6.313,0,0
0.0010489008000000002,-0.0019849396000000004,0.0010373194,0.000462629,0.0003783464000000001,6.314,0,0
0.0023862188,-0.0015470000000000002,0.0009418334,0.0005509748,0.0006623130000000001,6.315,0,0
0.0033194972000000003,-0.0010194716,0.0009941484,-9.139020000000007e-05,0.000285501,6.316,0,0
0.003524114,-0.00043948599999999995,0.00047766440000000007,-0.0006169688000000001,-0.000727289,6.317,0,0
0.003112669,0.00010462199999999996,-0.00023222759999999999,-0.0008746090000000002,-0.0010999894000000001,6.318,0,0
0.002477883,0.0003156222,-0.000631114,-0.0013835452,-0.0014910874,6.319,0,0
0.0009991370000000002,0.0003583967999999999,-0.001351138,-0.0016322704,-0.00257168,6.32,0,0
-0.000432571,0.00041796220000000003,-0.0018032859999999999,-0.0010793407999999999,-0.0029729579999999995,6.321,0,0
-0.001253247,0.0001271694,-0.0014952742,-1.757880000000003e-05,-0.0020812380000000004,6.322,0,0
-0.002420378,-7.710899999999996e-05,-0.0010051624,0.0006310961999999999,-0.001251036,6.323,0,0
-0.003380854,0.00011496480000000002,-0.0009366250000000002,0.0008887201999999999,-0.000311602,6.324,0,0
-0.003070306,0.00014879368,-0.000689045,0.0008050635999999997,0.0011473759999999999,6.325,0,0
-0.0026579019999999997,5.554088000000001e-05,-0.000490075,0.00034961800000000005,0.0018462600000000002,6.326,0,0
-0.002589606,4.8598080000000003e-05,-0.0006281368,-0.00043534020000000006,0.0019770200000000003,6.327,0,0
-0.0015076206,0.00040850848000000006,-0.0006820406000000001,-0.0010337448000000001,0.0018430680000000002,6.328,0,0
-0.0004118106000000001,0.00100195448,-0.0005768406,-0.0010686728,0.0011984750000000003,6.329,0,0
3.91953999999999e-05,0.0013554614000000002,-0.0004935374000000001,-0.0008348420000000001,0.0007468198000000001,6.33,0,0
0.0009591774000000001,0.0015777452000000003,-0.00041912060000000014,-0.0005453642,0.0008264177999999999,6.331,0,0
0.0021603874,0.0021143848000000002,-0.0001116026000000001,-0.000793506,0.0005928782000000001,6.332,0,0
0.002561578,0.0024031008000000003,0.000227841,-0.0009858794,0.000297526,6.333,0,0
0.002510804,0.0021390348,0.0005631156,-0.0008034260000000001,0.0010629410000000002,6.334,0,0
0.002741086,0.0021637608,0.0011350104000000002,-0.0007932208,0.0017676482000000002,6.335,0,0
0.0022015308,0.0022618562,0.0015863036,-0.0007976324000000001,0.0012030482,6.336,0,0
0.0004089928000000002,0.0017243736000000002,0.0013391456,-0.0005298818,0.0005083738000000002,6.337,0,0
-0.0011627092000000001,0.0008112444000000002,0.0011749818,-0.0002657078,0.00029393800000000015,6.338,0,0
-0.0021977452,-7.054959999999987e-05,0.0012578038,-0.00021762000000000002,-0.0006525819999999999,6.339,0,0
-0.0036957431999999997,-0.0009341196,0.0008463548000000001,-0.00021678000000000002,-0.001790808,6.34,0,0
-0.00443542,-0.0014632318,0.00038784280000000006,-0.00019619020000000002,-0.0017473760000000001,6.341,0,0
-0.0033376962,-0.0018518512,0.0004117970000000001,0.00012660520000000003,-0.0011621201999999998,6.342,0,0
-0.0023926474000000005,-0.0020714360000000003,0.00029359420000000006,0.0005486092000000001,-0.0009641664000000002,6.343,0,0
-0.0018021772000000001,-0.0016292332000000002,-0.00033354780000000007,0.0007874360000000001,-0.0007383094000000001,6.344,0,0
-9.521200000000142e-06,-0.0010948568,-0.0007336408000000001,0.000995947,-3.79333999999999e-05,6.345,0,0
0.0014462868,-0.0006713934000000001,-0.0009825668,0.0008740712000000002,0.00042691060000000006,6.346,0,0
0.001846093,-2.6943400000000058e-05,-0.001236081,0.00033831120000000006,0.00038090780000000005,6.347,0,0
0.0029067682,0.0007695466000000001,-0.001152789,0.0004542611999999999,0.0006719240000000001,6.348,0,0
0.003896068,0.0012359238000000002,-0.0008120434000000001,0.0009684192,0.001347347,6.349,0,0
0.0032111628,0.0014645214000000002,-0.00032471360000000006,0.0011438702,0.0014892650000000003,6.35,0,0
0.0025349182,0.0016791760000000003,0.0001200784,0.0013611968000000001,0.0011698604000000001,6.351,0,0
0.0024054642000000005,0.0013430223600000002,0.0006454684,0.0012255367999999998,0.0007221374000000002,6.352,0,0
0.0010189781999999999,0.00064218636,0.0011592774,0.0003170587999999999,-0.0001263506,6.353,0,0
-0.0006215238000000002,2.341635999999998e-05,0.0012213763999999998,-0.0005083476,-0.0010591425999999999,6.354,0,0
-0.0012354086000000001,-0.00082382164,0.0010944788,-0.0008912096,-0.0016715536,6.355,0,0
-0.0022136120000000002,-0.0020914336400000002,0.0011094788,-0.0011958104,-0.0022304810000000003,6.356,0,0
-0.0038575200000000006,-0.0030050700000000003,0.0007764511999999999,-0.0010378584,-0.0026050630000000003,6.357,0,0
-0.004048118000000001,-0.003307774,0.00015043920000000003,-0.0012400384,-0.0026520450000000004,6.358,0,0
-0.0031794208,-0.0034638700000000004,2.1915600000000007e-05,-0.0019872419999999997,-0.002942567,6.359,0,0
-0.0029806888,-0.0030846182,-0.00035034260000000006,-0.002428652,-0.003101764,6.36,0,0
-0.0021731146,-0.0021545022,-0.0012121786000000002,-0.002471334,-0.0022052639999999997,6.361,0,0
0.00010055740000000017,-0.0012551362,-0.001454741,-0.001551602,-0.00063715,6.362,0,0
0.0013654734000000002,-0.0005523646000000001,-0.0014470998000000001,-2.8640000000000132e-05,0.0009367420000000001,6.363,0,0
0.0017849502,0.0003153794,-0.0015787898,0.000988716,0.0023526220000000004,6.364,0,0
0.0033783942000000003,0.0010280696,-0.001217531,0.0017892580000000002,0.003444574,6.365,0,0
0.004138196,0.0015799256,-0.0005667276,0.0023890520000000004,0.003835394,6.366,0,0
0.0033073539999999998,0.0022772176,-0.00011370199999999998,0.0017132109999999999,0.003490972,6.367,0,0
0.00303562,0.002610662,0.00019285180000000002,0.001135501,0.0030993760000000005,6.368,0,0
0.0026401166,0.002385618,0.0005812088,0.0012556730000000001,0.002823504,6.369,0,0
0.0007015506,0.0017689717999999999,0.000877832,0.0008092058,0.0021109044000000004,6.37,0,0
-0.0007336454000000001,0.0011923682,0.0006718750000000001,0.0005101138,0.0013029204,6.371,0,0
-0.0013511354000000002,0.0005564338,0.0004169278,0.0004868402,0.0007137634000000001,6.372,0,0
-0.0026495514,-5.38948e-05,0.0002611052,7.5608e-05,-8.13725999999999e-05,6.373,0,0
-0.0037392840000000007,-0.0004153544000000001,2.7249200000000003e-05,-0.00024062699999999998,-0.0007224148000000001,6.374,0,0
-0.0034074940000000005,-0.00039143440000000005,-0.0003339028,-0.0001504518,-0.000983586,6.375,0,0
-0.0028740336,-0.00026354680000000003,-0.0003605292,-0.0005776298,-0.0013007820000000001,6.376,0,0
-0.0029914976000000003,-0.00048218720000000004,-0.00022454059999999995,-0.0010812192,-0.001584429,6.377,0,0
-0.0019447958000000003,-0.0005824186,-0.000489515,-0.000685109,-0.0012026606000000001,6.378,0,0
-0.00020919979999999992,-0.0005457376,-0.0006127166,-0.00036857399999999993,-0.0006353063999999999,6.379,0,0
0.0005137422,-0.0006733944,-0.0007786256,-0.0003479359000000001,-0.0003862094,6.38,0,0
0.0013516738000000001,-0.0007532570000000001,-0.0009996516,0.0002513551,0.00012761179200000006,6.381,0,0
0.0029524058000000002,-0.00043129080000000003,-0.0009997190000000003,0.0010775131,0.0006653689920000002,6.382,0,0
0.00357731,0.0005050231999999999,-0.0005137198,0.0009535931,0.000531736392,6.383,0,0
0.0032952580000000006,0.0024462158,1.262980000000006e-05,0.00047448429999999995,2.763439200000002e-05,6.384,0,0
0.0034416580000000002,0.005334820800000001,0.0006551028,0.00039258039999999993,-9.192820800000001e-05,6.385,0,0
0.0028122950000000002,0.0078336294,0.0016356568,-3.674060000000007e-05,-0.0005271654,6.386,0,0
0.0009993749999999998,0.009455738,0.0019870612,-0.0006897566,-0.0013016146000000002,6.387,0,0
-0.00026637699999999993,0.010062482000000001,0.002076744,-0.0010568866000000001,-0.0013455626000000002,6.388,0,0
-0.0012521670000000002,0.008842144,0.002207618,-0.0011985678,-0.0015698586000000001,6.389,0,0
-0.0028213910000000004,0.005538786,0.002122586,-0.0012176454000000002,-0.0023005102,6.39,0,0
-0.0037417080000000003,-0.00023157400000000045,0.0013542480000000002,-0.0006516554,-0.0024250181999999998,6.391,0,0
-0.0033497660000000005,-0.006656586000000001,0.0003511860000000002,0.0004539566000000001,-0.0018291964,6.392,0,0
-0.0028053995400000005,-0.011483976,-0.00020506799999999993,0.0014804146,-0.0012712202000000003,6.393,0,0
-0.0022253585400000006,-0.014258538,-0.001019608,0.0026798466000000003,-0.0003905722,6.394,0,0
-0.0006421425400000002,-0.014682674,-0.001632346,0.0038693440000000003,0.0011214418,6.395,0,0
0.0009642074600000001,-0.011851636,-0.0013630274,0.004594466,0.0021748918000000002,6.396,0,0
0.0016626694600000002,-0.007069787999999999,-0.0011494354,0.004448110000000001,0.0026301980000000003,6.397,0,0
0.002754451,-0.0035471422,-0.0012965194,0.004278996,0.0028445180000000003,6.398,0,0
0.004225836,-0.0008540162000000002,-0.0012656394,0.004448102000000001,0.0030680340000000003,6.399,0,0
0.004493008,0.0017678258,-0.0012445014,0.0032536090000000006,0.0028859880000000004,6.4,0,0
0.004340482,0.0038753358,-0.0011502594,0.0015324950000000005,0.0024791816,6.401,0,0
0.00470629,0.0059636078,-0.0003791234,0.00024430899999999995,0.0021406944000000004,6.402,0,0
0.0037379990000000005,0.007676840000000001,0.0004896226000000001,-0.001796079,0.0011169224,6.403,0,0
0.001665977,0.007485626,0.0008915518000000001,-0.0044122070000000005,-0.00040616960000000016,6.404,0,0
0.0004774069999999999,0.005933930600000001,0.0012923076000000001,-0.006065194,-0.0015533756,6.405,0,0
-0.0010965709999999997,0.0021386826,0.001473045,-0.006857278,-0.0021776992,6.406,0,0
-0.003243305,-0.003585897400000001,0.0011137614000000001,-0.007439234000000001,-0.0026249740000000004,6.407,0,0
-0.00406609,-0.006293523400000001,0.0005764413999999999,-0.007577602000000001,-0.002078758,6.408,0,0
-0.003784866,-0.006638917800000001,0.00041201019999999994,-0.0073281660000000005,-0.0013640192,6.409,0,0
-0.003627858,-0.006420568400000001,8.10388e-05,-0.0063559540000000005,-0.0012877472,6.41,0,0
-0.0027289692,-0.0035376424,-0.0005862832,-0.005033373000000001,-0.0005137771999999999,6.411,0,0
-0.0006693732000000002,0.0004037316000000001,-0.0005752390000000001,-0.003771462,0.0005248008,6.412,0,0
0.0002941328,0.0022301376000000003,-0.000250501,-0.0023316318,0.0007405748,6.413,0,0
0.0004094348,0.0028156160000000004,-0.000504383,-0.0008923562,0.001246184,6.414,0,0
0.0013550408000000001,0.0026859092,-0.0006800974000000001,0.00012076979999999998,0.0023240780000000003,6.415,0,0
0.0022438840000000002,0.0020376964,-0.00015870379999999998,0.0006908808000000001,0.0026625019999999998,6.416,0,0
0.001842644,0.0017465748,0.00016592760000000003,0.0016347338,0.0024548320000000005,6.417,0,0
0.0018022000000000001,0.0011763428,0.0005265876,0.0033591035999999998,0.002331842,6.418,0,0
0.0019735172,0.0005501468,0.0015854136000000001,0.005175378,0.002290146,6.419,0,0
0.00041928319999999996,-1.906039999999997e-05,0.0024123756000000002,0.00678605,0.0016290736,6.42,0,0
-0.0010812728000000001,-0.0003237396,0.00252688,0.008076126,0.0003991155999999999,6.421,0,0
-0.0017921988000000001,-0.00047929200000000003,0.0022349728000000003,0.008167804,-0.0008007524000000001,6.422,0,0
-0.0031783588000000003,-0.0010076640000000001,0.0014892698,0.007044470000000001,-0.0025340584,6.423,0,0
-0.004460338,-0.0011789666,0.00028152380000000005,0.005352384000000001,-0.0047848044,6.424,0,0
-0.0040368339999999996,-0.0006634204000000001,-0.0008567602000000001,0.004307092,-0.005570434,6.425,0,0
-0.0035408460000000003,-0.0001976784,-0.0016981502000000001,0.004256382,-0.00466228,6.426,0,0
-0.003560136,0.0001618376,-0.0022312390000000003,0.00412322,-0.0038023990000000006,6.427,0,0
-0.002019738,0.0008010696,-0.0025618719999999998,0.0035004016000000004,-0.0024889678,6.428,0,0
6.842399999999998e-05,0.0010659544000000002,-0.002758244,0.0025106916000000004,-0.0006692218000000002,6.429,0,0
0.0009016400000000002,0.0010968812,-0.0025128179999999996,0.0005311816000000001,0.00018544020000000003,6.43,0,0
0.002248384,0.0018975072000000002,-0.002220542,-0.0027197044,0.0001511102,6.431,0,0
0.0044613380000000005,0.0032312512,-0.0019290386000000003,-0.0053420444,0.0003240252,6.432,0,0
0.005179282,0.0041635372,-0.0015519026000000002,-0.0067210460000000005,0.0003793788,6.433,0,0
0.005022656,0.005529643000000001,-0.0014612346,-0.00764624,0.00025004479999999994,6.434,0,0
0.005169208000000001,0.007465682000000001,-0.0013384846,-0.007881398000000001,0.00043099819999999994,6.435,0,0
0.0039391224,0.007999388,-0.0009829374,-0.007243926,0.00017674559999999995,6.436,0,0
0.0011836843999999999,0.007142242,-0.0010804468,-0.006501460000000001,-0.0005293164000000001,6.437,0,0
-0.0007330096,0.005604302000000001,-0.0009532395999999999,-0.0054668780000000005,-0.0011347092,6.438,0,0
-0.0021813096,0.0018128340000000006,0.0003222244,-0.0037480314000000003,-0.0015704712,6.439,0,0
-0.0042436696000000005,-0.004273285999999999,0.0010130564000000002,-0.0024250816,-0.0020758886000000003,6.44,0,0
-0.005369574,-0.009241194,0.0018810832,-0.0010573396000000002,-0.0021039396,6.441,0,0
-0.004803682,-0.011470844000000001,0.0048576632,0.0008680064000000001,-0.0011356216,6.442,0,0
-0.004568946,-0.011543641999999998,0.008065684,0.0022324124,0.00016679040000000002,6.443,0,0
-0.004424728,-0.009115822199999998,0.009215666,0.0030939318,0.0016137924,6.444,0,0
-0.002285352,-0.004550956199999999,0.009255894,0.00394045,0.0030755803999999998,6.445,0,0
-0.000268866,-0.0007714382,0.00727712,0.0039422500000000004,0.0036967180000000007,6.446,0,0
0.0004229540000000001,0.0005683616,0.0009591600000000001,0.003548092,0.0035061760000000006,6.447,0,0
0.001654686,0.0008031452,-0.0056412599999999995,0.0032272620000000003,0.0031963960000000007,6.448,0,0
0.003148904,0.0008902988,-0.008673357999999999,0.0026782980000000004,0.002757626,6.449,0,0
0.00327914,0.0004532606,-0.0092910184,0.002336668,0.002056492,6.45,0,0
0.002917756,-8.47414e-05,-0.008452242399999999,0.002220098,0.0014668517999999998,6.451,0,0
0.002989472,2.3046600000000024e-05,-0.0051064784,0.0018703424,0.0009706127999999999,6.452,0,0
0.0020232139999999997,8.911820000000005e-05,-0.0012038784,0.001205977,0.00024105079999999998,6.453,0,0
0.00021414600000000002,-0.00026573,0.00017453360000000003,0.0007107277999999999,-0.0008070112,6.454,0,0
-0.0007256728,-0.0003217668,0.00024313920000000003,0.0001697804,-0.0020149332,6.455,0,0
-0.0014261168,0.00019962519999999997,0.00042944399999999996,-0.0005088056000000001,-0.0027899530000000004,6.456,0,0
-0.0028702707999999997,0.0005226594,0.0004297600000000001,-0.0009200180000000001,-0.003107362,6.457,0,0
-0.0033791488,0.0010160042,-0.0001250968,-0.0006342826000000001,-0.0027893866000000002,6.458,0,0
-0.0027722968000000003,0.001594003,-0.0003304606,-0.0002944174,-0.0019910730000000003,6.459,0,0
-0.00290377,0.0017252538000000002,-0.00023242456000000002,-0.0003339584,-0.001219101,6.46,0,0
-0.0024796945999999995,0.0016245018000000003,-0.00040886376,-0.0002259804,-0.00013315100000000003,6.461,0,0
-0.0006129485999999999,0.0015230958,-6.808036000000002e-05,-0.0002858844,0.0008932890000000001,6.462,0,0
0.0008176134,0.0014550638,0.00035477644,-0.0006008518,0.0012170096000000002,6.463,0,0
0.0018981234,0.0009652108,0.00054512824,-0.0007226249999999999,0.001592454,6.464,0,0
0.0033314074000000003,0.0005349250000000001,0.0008183649999999999,-0.0005511321,0.002321936,6.465,0,0
0.00419705,-8.629699999999988e-05,0.0011755334,-0.0007352540999999999,0.002542946,6.466,0,0
0.0040096179999999995,-0.000803499,0.0012939512000000003,-0.0009233520999999999,0.002417998,6.467,0,0
0.003948524,-0.0010093106,0.0012030012,-0.0011331367,0.0023295066,6.468,0,0
0.0037599,-0.0010457344000000001,0.0015899872000000002,-0.0018988355,0.0015048186000000002,6.469,0,0
0.002181596,-0.0012066344,0.0017228412000000002,-0.0025850120000000002,5.359060000000005e-05,6.47,0,0
0.00040957799999999985,-0.0009451098,0.0014181344000000003,-0.0026606380000000003,-0.0010509834,6.471,0,0
-0.000740878,-0.00041595099999999996,0.0013293852000000003,-0.002520952,-0.0019935454,6.472,0,0
-0.002397596,-0.0004672919999999999,0.0012050062,-0.002080946,-0.002735808,6.473,0,0
-0.00431142,-0.00011061519999999996,0.00023604220000000007,-0.0005586600000000001,-0.0025322494,6.474,0,0
-0.00459035,0.0008834028,-0.0005864078,0.001004534,-0.0012513694000000001,6.475,0,0
-0.003918115,0.0015296602,-0.00014383699999999996,0.001959018,-0.0004230274000000002,6.476,0,0
-0.0036791790000000003,0.001629978,-0.00023174623999999998,0.0023871252000000004,-7.913000000000153e-06,6.477,0,0
-0.0028001030000000004,0.0015324152000000001,-0.00063060924,0.0021644928000000008,0.0006546097999999998,6.478,0,0
-0.001106987,0.0012552550000000003,0.00012258676000000005,0.0011124636000000002,0.0007027871999999998,6.479,0,0
-5.32249999999999e-05,0.00066888,0.00088191476,6.219600000000031e-06,0.0003558472,6.48,0,0
0.0009685740000000003,7.162200000000003e-05,0.0008310427600000002,-0.00020028439999999998,0.00043044720000000005,6.481,0,0
0.002952298,-0.00030015360000000004,0.001117518,-0.0002654333,0.0012158728,6.482,0,0
0.004307634,-0.0005605822000000001,0.0014907762000000001,-0.0003545223,0.001546824,6.483,0,0
0.0047101,-0.0006122078,0.0010430346000000002,-0.0001543691,0.001677114,6.484,0,0
0.005315634,-0.00045328640000000004,0.00012709860000000006,0.0003576149,0.0019358959999999999,6.485,0,0
0.004847262,-0.0004924052,-0.0009943674,0.0004315829,0.001328218,6.486,0,0
0.0027559439999999998,-0.0005851042,-0.0019925094,0.0005346024,0.0003022059999999998,6.487,0,0
0.001330112,-0.00040646500000000006,-0.0027164396000000004,0.0013253698000000001,0.00011727399999999992,6.488,0,0
0.0001854580000000001,-0.0002579658,-0.0029960840000000004,0.0018087978,-0.0001564248000000001,6.489,0,0
-0.002071898,-0.0006072262000000001,-0.002649606,0.0015139738000000003,-0.0013925028000000002,6.49,0,0
-0.003581522,-0.0010279314,-0.0018914574,0.0015707918000000003,-0.0013596308,6.491,0,0
-0.0032810024,-0.0012562074000000002,-0.0008781734,0.002488688,-0.0006773228,6.492,0,0
-0.0031561630000000005,-0.0016116126,0.0003135126000000001,0.002543502,-0.0007724627999999999,6.493,0,0
-0.003205087,-0.002070642,0.0008695906,0.0019939034,-0.00044163359999999986,6.494,0,0
-0.0015110650000000002,-0.0020534124000000003,0.0010075748,0.0017049954000000005,0.0004110674,6.495,0,0
0.00021803300000000013,-0.0014415746,0.0014366062,0.0005376933999999999,0.0004381634,6.496,0,0
0.0007012974000000002,-0.0008815266000000001,0.0014177382,-0.0015058466000000001,-0.0002960046,6.497,0,0
0.0018413820000000003,-0.00035179180000000006,0.0007868961999999999,-0.0030833086,-0.0006000302000000001,6.498,0,0
0.0036246920000000005,0.0003207422,0.0006651152,-0.0037560360000000004,-0.0010464926,6.499,0,0
0.003972678,0.0006194340000000001,0.000970003,-0.0033766710000000004,-0.0014766876000000002,6.5,0,0
0.0036255780000000004,0.0004866276,0.000780615,-0.001942095,-0.0009847216000000002,6.501,0,0
0.0036948020000000005,0.0006769056,0.000917741,-0.00029855699999999986,-0.0002934876,6.502,0,0
0.002295292,0.0007175946,0.0015918109999999998,0.0008760550000000001,4.3258599999999945e-05,6.503,0,0
-5.7308000000000055e-05,0.000396228,0.001743384,0.0013126230000000002,0.000381115,6.504,0,0
-0.001317728,0.0003250378,0.001184256,0.0006761860000000002,0.0005919998,6.505,0,0
-0.00228626,0.00026485859999999996,0.0006225819999999998,-0.000477708,0.00025651959999999996,6.506,0,0
-0.0038670280000000002,0.00035154260000000003,-5.722200000000011e-05,-0.0015619320000000003,-0.0004603424,6.507,0,0
-0.004481968,0.0008504408000000001,-0.0011335020000000002,-0.002373338,-0.001168951,6.508,0,0
-0.003948512,0.0013613274,-0.001741904,-0.0021543727999999997,-0.0012952232000000001,6.509,0,0
-0.004132664,0.0013729064,-0.001762598,-0.0012329588000000002,-0.0009338680000000001,6.51,0,0
-0.0037225979999999997,0.0013571001999999998,-0.0021401880000000003,-0.00039514479999999994,-0.00043752579999999997,6.511,0,0
-0.001672246,0.0013287022,-0.002261522,0.0002241948,0.00036573620000000004,6.512,0,0
-0.00010622600000000017,0.0007721762,-0.0016143140000000002,0.0009899688000000002,0.000992848,6.513,0,0
0.0008865419999999999,0.00041468540000000006,-0.0013966318000000004,0.0012667476000000001,0.0012876338,6.514,0,0
0.0026473499999999997,0.0005772892000000001,-0.0008940194000000002,0.0008105206000000001,0.0016494018,6.515,0,0
0.004051372,0.0006225270000000001,0.00039837259999999996,0.00043385680000000004,0.0017700858000000003,6.516,0,0
0.0040035700000000006,0.00019211700000000006,0.0010095466,0.00027976570000000004,0.0016545158000000001,6.517,0,0
0.003849198,-0.000174623,0.000942249,0.0002882197,0.00167705,6.518,0,0
0.0033833036,-0.00033587060000000004,0.0013407528,0.00026864369999999996,0.0014988408,6.519,0,0
0.0016763016,-0.0006944268000000001,0.0015913504000000002,0.0005317185,0.0005006388,6.52,0,0
-0.0005221184,-0.0007821044000000001,0.0013385304000000002,0.0007969287,-0.0003538892,6.521,0,0
-0.0016638704000000002,-0.00035755440000000014,0.0012803840000000003,0.0007802296100000001,-0.0004786216,6.522,0,0
-0.0028747444,-2.6073400000000034e-05,0.0012903830000000002,0.0008017036100000001,-0.0006475096,6.523,0,0
-0.004161006,-0.00014431600000000002,0.0011055104,0.0008483776100000001,-0.00070551608,6.524,0,0
-0.00379836,0.00011098760000000001,0.0006289706000000001,0.00061788141,-0.00032884248,6.525,0,0
-0.003184598,0.0005323494,0.0001371586,0.00040618201,-8.759548000000002e-05,6.526,0,0
-0.00281534852,0.0003713404,-0.0006397710000000001,0.0003798976,-0.00062945708,6.527,0,0
-0.00196295098,0.0006650494,-0.0013772944000000004,7.995399999999981e-06,-0.00032369707999999997,6.528,0,0
0.00041805902000000006,0.00105089,-0.0018122018000000003,-0.0001611922,-0.0002142659999999999,6.529,0,0
0.00100536902,0.0010617424,-0.0019293042,-0.0002385848,-0.0024287495999999998,6.53,0,0
0.0026240250200000002,0.0006807588,-0.0013120242000000002,-0.0006279138000000001,-0.0048336226,6.531,0,0
0.0037569115400000004,-0.0011548042000000002,-0.0005077342000000001,-0.0004895532000000001,-0.006193372600000001,6.532,0,0
-0.002535634,-0.0034830762,-3.78351999999999e-05,0.0003572250000000001,-0.007215128600000001,6.533,0,0
-0.00842675,-0.0050387018,4.098800000000016e-06,0.0012415626000000003,-0.0068682660000000005,6.534,0,0
-0.009947406,-0.0064520656,-0.00048393899999999996,0.0020875016000000005,-0.0034807460000000007,6.535,0,0
-0.01170273,-0.006840596,-0.001532153,0.0029726016000000003,0.0008963279999999998,6.536,0,0
-0.010220050000000001,-0.004788708,-0.002401557,0.0031664840000000002,0.00466281,6.537,0,0
0.00019393000000000014,-0.0016616180000000003,-0.0029211,0.0023282768,0.007605280000000001,6.538,0,0
0.01051785,0.0015567340000000002,-0.002843042,0.0009784388000000002,0.009124802000000001,6.539,0,0
0.017579208000000002,0.005042624000000001,-0.0020154004000000002,-0.0003383792,0.0095866,6.54,0,0
0.023444420000000004,0.007939556,-0.0009680144,-0.0019179512000000003,0.009072672,6.541,0,0
0.024223440000000002,0.009699964,0.0004930496,-0.0036118851999999996,0.007549664,6.542,0,0
0.021069430000000004,0.010343778000000001,0.0019237236000000002,-0.004503872,0.004942676,6.543,0,0
0.014988840000000002,0.009700908,0.0028835935999999996,-0.0048611539999999995,0.00201506,6.544,0,0
0.00638416,0.0077207460000000006,0.0035348899999999997,-0.0048225939999999995,-0.0011655900000000004,6.545,0,0
-0.0041046,0.004598929999999999,0.00360545,-0.0037837268000000005,-0.004431458,6.546,0,0
-0.01349256,0.001090674,0.003134046,-0.0021993674000000004,-0.0067224400000000005,6.547,0,0
-0.02030475,-0.0025092820000000003,0.0027448,-0.0010178716,-0.008230484,6.548,0,0
-0.02534164,-0.00572848,0.0020956114,-0.00011242119999999999,-0.008799994000000002,6.549,0,0
-0.026602120000000003,-0.008050598,0.0009788114,0.0007558068000000001,-0.007984928,6.55,0,0
-0.023213803999999998,-0.009098950000000001,0.0002335034,0.0013402256000000002,-0.006240430400000001,6.551,0,0
-0.017349952800000002,-0.008664634000000001,-0.0003683186000000001,0.0019484782,-0.0038810124000000007,6.552,0,0
-0.0099988268,-0.007368404,-0.0012941506,0.0024909764000000004,-0.0006292083999999997,6.553,0,0
-0.0011278268000000013,-0.005146652,-0.0019154340000000001,0.002698198,0.0028600736000000005,6.554,0,0
0.0076683532,-0.0022857700000000003,-0.0020549260000000003,0.0025552782000000003,0.005476055600000001,6.555,0,0
0.014805737200000002,0.0008035079999999998,-0.0018425391999999999,0.0015879382000000004,0.007182494,6.556,0,0
0.020222746,0.0034036179999999997,-0.001468085,0.00045935420000000016,0.008307338000000001,6.557,0,0
0.02345974,0.005390576,-0.0006249110000000001,-0.00046241580000000004,0.008288208,6.558,0,0
0.02278762,0.006852576,0.0006008630000000001,-0.0014211298,0.006432062600000002,6.559,0,0
0.018307298,0.007235732,0.0011963722,-0.0020161479999999997,0.0037167905999999995,6.56,0,0
0.011855801999999999,0.006671028000000001,0.0015140434,-0.0024653360000000003,0.0006164825999999998,6.561,0,0
0.0035768020000000005,0.0051823552000000005,0.0016038915999999999,-0.0032279060000000004,-0.0031168894000000004,6.562,0,0
-0.005662978000000001,0.0029735832000000006,0.0011041412,-0.0037465800000000002,-0.0067910114,6.563,0,0
-0.012970718000000001,0.00025538319999999994,0.0006545292000000001,-0.0026320280000000007,-0.008530352,6.564,0,0
-0.018081156,-0.0024339168,0.0008647520000000001,-0.0006782580000000008,-0.008217726,6.565,0,0
-0.02134622,-0.0050908168,0.0005049524,0.00089239,-0.007568724000000001,6.566,0,0
-0.02116338,-0.007261194,-0.000624678,0.002384322,-0.0056438018,6.567,0,0
-0.017729896,-0.008217912,-0.0011115836,0.003511726,-0.0026342837999999997,6.568,0,0
-0.012925335200000002,-0.008249904,-0.0018240536000000002,0.0031093984,-0.0005429978000000001,6.569,0,0
-0.0063723372,-0.007219448000000001,-0.0029508076,0.0014491946,0.0010904842000000001,6.57,0,0
0.0017448228000000003,-0.0052601742,-0.0033131000000000002,0.0007313354000000001,0.0035068282,6.571,0,0
0.0090447228,-0.0024921202,-0.0027386059999999998,0.0010915874000000001,0.005610472,6.572,0,0
0.0146892388,0.0007053218000000001,-0.0023157959999999997,0.0015206014,0.006962358000000001,6.573,0,0
0.019136358,0.0036815958,-0.0017030070000000003,0.001644091,0.008126678,6.574,0,0
0.020899360000000002,0.0056994238,-0.00024200900000000017,0.0013752468000000002,0.007912084000000002,6.575,0,0
0.018879844,0.006747666,0.0008727189999999999,0.0009589660000000002,0.005995674,6.576,0,0
0.014750500000000001,0.007143462000000001,0.001809809,-5.445200000000003e-05,0.0032471720000000004,6.577,0,0
0.009206056,0.006217770000000001,0.0028650229999999995,-0.001139602,0.00022811999999999984,6.578,0,0
0.0021138359999999996,0.004305556000000001,0.0037289079999999995,-0.0011675499999999998,-0.0029357840000000003,6.579,0,0
-0.004936864000000001,0.002228392,0.003760286,-0.000498446,-0.005126810000000001,6.58,0,0
-0.010451368,-0.00013684199999999965,0.003347356,7.966840000000009e-05,-0.005883646,6.581,0,0
-0.014459044,-0.002808464,0.0030336259999999998,0.0007855124000000001,-0.00634142,6.582,0,0
-0.01657774,-0.0046240199999999995,0.0018783680000000005,0.0014083404,-0.00609215,6.583,0,0
-0.015652086,-0.0053227479999999995,0.0004726380000000001,0.0013414258,-0.0045044915999999996,6.584,0,0
-0.012268084,-0.005506262,-0.0004030408,0.0012914178,-0.0028105036,6.585,0,0
-0.008219246000000001,-0.004762676,-0.0012259508,0.001015771,-0.0010748495999999999,6.586,0,0
-0.0030539320000000005,-0.002974164,-0.0024245528000000002,0.0006217738000000001,0.0014092344,6.587,0,0
0.002790288,-0.001009686,-0.0031165688000000004,0.0006241038,0.0035611964,6.588,0,0
0.007381294,0.0006001880000000001,-0.0032883908000000002,0.00031670700000000006,0.004701054,6.589,0,0
0.010986552,0.0023684080000000002,-0.0035248540000000004,-3.5195999999999654e-06,0.005300312000000001,6.59,0,0
0.013992034,0.0041133260000000005,-0.0030153676000000003,-6.605799999999997e-06,0.005382594,6.591,0,0
0.01458046,0.0049919660000000005,-0.0017632596000000003,-0.0008553766,0.0040139362,6.592,0,0
0.012314794,0.005229534,-0.00028876959999999996,-0.0018525286,0.0018928022,6.593,0,0
0.008914206000000001,0.005251648,0.0008849524000000001,-0.0014570232,0.0001176981999999997,6.594,0,0
0.004006606000000001,0.004506444000000001,0.0017637903999999998,-0.0013005154,-0.0019795658000000002,6.595,0,0
-0.0020740140000000003,0.0029452940000000006,0.002483982,-0.0013121572,-0.0040556558,6.596,0,0
-0.007061194,0.0012282579999999997,0.002624354,-0.00017024519999999998,-0.00491235,6.597,0,0
-0.010382348,-0.0007693220000000002,0.002389314,0.0007100748,-0.0053242920000000004,6.598,0,0
-0.0129286,-0.0029988680000000005,0.0019936990000000003,0.0004498348,-0.006139802,6.599,0,0
-0.013707180000000001,-0.004566754,0.0011633370000000002,0.0006080516,-0.005827994,6.6,0,0
-0.011535814000000002,-0.005350720000000001,4.0609000000000044e-05,0.00114346,-0.0042279498,6.601,0,0
-0.008074168,-0.005587362000000001,-0.0005458888,0.0009134958,-0.0021312737999999998,6.602,0,0
-0.004325804000000001,-0.004972818,-0.0009201920000000001,0.0008826018000000001,0.0006312702,6.603,0,0
0.0005863700000000001,-0.0036919412,-0.001364961,0.0010865882,0.0033428422,6.604,0,0
0.00570421,-0.0021112372,-0.0011067414000000002,0.0007145114000000001,0.0049958902,6.605,0,0
0.008899084000000002,-0.00019103719999999976,-0.0007999678,0.00010970539999999995,0.005574672,6.606,0,0
0.011145018000000001,0.0019415488,-0.0005386906000000001,-0.0002760424,0.005584422,6.607,0,0
0.012821314,0.0033020648000000002,-3.4373999999999885e-06,-0.0008769704000000001,0.004786498,6.608,0,0
0.011642824000000001,0.0038793300000000003,0.00024837552000000004,-0.0013830428,0.0036025114000000002,6.609,0,0
0.008697218200000002,0.00441309,5.792992000000003e-05,-0.0013100529999999998,0.0026198182,6.61,0,0
0.005626964199999999,0.004104112,-8.930567999999986e-05,-0.001281163,0.0012435722000000001,6.611,0,0
0.0013116842,0.0027805440000000002,-5.994707999999995e-05,-0.001417489,-0.0007450178000000001,6.612,0,0
-0.0034603157999999997,0.0014266460000000004,-0.00020472507999999995,-0.0011840199999999998,-0.0024542938,6.613,0,0
-0.0069022198,1.3870000000000137e-05,0.00019514,-0.0007929816000000001,-0.0031041112,6.614,0,0
-0.009434674,-0.001794492,0.000829032,-0.0007426382000000001,-0.0032351180000000004,6.615,0,0
-0.011361040000000001,-0.0033856880000000004,0.0009076679999999999,-0.00045192800000000004,-0.0034043080000000004,6.616,0,0
-0.011563338000000001,-0.004406756,0.00053191,-0.00029072600000000005,-0.0032515440000000003,6.617,0,0
-0.009983756000000002,-0.0047910140000000006,0.000119479,-0.000896801,-0.0023483058,6.618,0,0
-0.007351996,-0.004614608,-0.00044821840000000004,-0.0013751934,-0.0015560658000000002,6.619,0,0
-0.003896124,-0.003874812,-0.0011374984000000002,-0.0015197796,-0.0009414238000000001,6.62,0,0
0.0003202039999999997,-0.0023268660000000004,-0.0011282884,-0.0014471846,0.0004996042,6.621,0,0
0.004201902,-0.0006121039999999997,-0.0011350424,-0.0007793666000000001,0.0020193402,6.622,0,0
0.007304420000000001,0.0009762840000000001,-0.0013459374,-2.0733459999999954e-05,0.002818704,6.623,0,0
0.010186440000000001,0.0025603480000000005,-0.0012862998,0.00038828208000000005,0.003389146,6.624,0,0
0.011722948000000002,0.0035969600000000006,-0.0007418278000000002,0.00068320088,0.0036752980000000005,6.625,0,0
0.010870630000000001,0.0037675760000000003,1.3744199999999847e-05,0.00027852568000000005,0.0031719038000000005,6.626,0,0
0.008593833000000002,0.003460966,0.0006618442,-0.0005749563200000001,0.0021005958000000005,6.627,0,0
0.005564693,0.0028513368000000006,0.0015944342000000001,-0.0007560294600000001,0.0008342758000000004,6.628,0,0
0.0010602110000000006,0.0019987098,0.002193962,-0.0006576152000000001,-0.0002961081999999999,6.629,0,0
-0.003569349,0.001076965,0.0020031996,-0.0006571076000000001,-0.0011597242,6.63,0,0
-0.006628159,0.00010392499999999999,0.001676304,-0.0002680506,-0.001631794,6.631,0,0
-0.008875182,-0.0007593630000000001,0.0013769468,0.0005521794,-0.001489426,6.632,0,0
-0.010595622,-0.0014950138000000002,0.0005783068000000001,0.0010166994,-0.0009922200000000003,6.633,0,0
-0.0102583,-0.0019443068,3.807380000000001e-05,0.0010469588,-0.0005602448000000002,6.634,0,0
-0.008070329000000001,-0.002033424,-3.321420000000003e-05,0.0011074054,-0.00018629720000000005,6.635,0,0
-0.005814600800000001,-0.002002728,-0.0006016986000000001,0.00099033532,0.00013963913999999998,6.636,0,0
-0.0026725848,-0.001545739,-0.0012148354000000002,0.00055193432,0.00072448914,6.637,0,0
0.0012824452000000002,-0.0008761175999999999,-0.0013165354,0.00034259832,0.0013692211400000002,6.638,0,0
0.0041151372000000006,-0.0003051478,-0.0015062664000000002,0.00044890512000000005,0.0014644559400000003,6.639,0,0
0.005809092200000001,0.0006979802,-0.0018338800000000002,0.00046990472000000004,0.0014855783400000001,6.64,0,0
0.007480124,0.0019146662000000003,-0.001689624,0.0006120172,0.001677988,6.641,0,0
0.008219162,0.0023137932000000003,-0.0010302438000000002,0.0007302864,0.0011921612,6.642,0,0
0.006863092,0.002341111,-0.0002901858000000001,0.0007777030000000001,0.00012266319999999997,6.643,0,0
0.0051858672,0.0025911052,0.00022972820000000002,0.0006390732,-0.0001632612,6.644,0,0
0.0033732592,0.0020939392,0.0009039302000000001,6.375840000000005e-05,-0.0005538012000000001,6.645,0,0
2.3249199999999994e-05,0.0011846732,0.001325013,-0.000488491,-0.0018766252,6.646,0,0
-0.0031435788,0.0005811452,0.00117033518,-0.0008478692,-0.0027193264000000003,6.647,0,0
-0.0046191708,7.022600000000006e-05,0.00113017318,-0.0015248178,-0.0029484844000000005,6.648,0,0
-0.006008612,-0.000847236,0.00118912718,-0.002560544,-0.0038589320000000002,6.649,0,0
-0.006985822,-0.0018040320000000001,0.0008000595800000001,-0.0028725739999999997,-0.004549552,6.65,0,0
-0.0058883220000000005,-0.002281384,0.00048838198,-0.0019154299999999999,-0.0035233658,6.651,0,0
-0.0044875159999999996,-0.0023247800000000002,0.00043449459999999994,-0.0008151120000000001,-0.0019653698,6.652,0,0
-0.0033516903999999998,-0.0017141880000000002,-0.0001918294,0.0006150959999999999,-0.0003027058000000002,6.653,0,0
-0.0009892424,-0.00077351,-0.0007623974,0.003110326,0.0018684022,6.654,0,0
0.0015862816,0.00027816000000000017,-0.0008302584000000001,0.004735414,0.0034725702,6.655,0,0
0.0031880356,0.001324964,-0.0009458936,0.0047116860000000005,0.003936842,6.656,0,0
0.004484363600000001,0.00234336,-0.0010499184,0.004195782,0.0038186340000000004,6.657,0,0
0.006001028,0.002603284,-0.0009203426,0.003136994,0.0029054098,6.658,0,0
0.006204022000000001,0.0024288580000000003,-0.000557669,0.0015774905339999998,0.0014368378000000001,6.659,0,0
0.0047162686,0.002444102,-0.00023245140000000003,0.0007501517339999999,0.0005206638,6.66,0,0
0.0033901772000000004,0.00220335,-6.647099999999997e-05,0.000332885734,-0.0003895142,6.661,0,0
0.0015038851999999998,0.0017268160000000004,0.0005369468,1.1513733999999992e-05,-0.0017268082,6.662,0,0
-0.0014670268000000005,0.000888776,0.001043171,0.000208223854,-0.0024743259999999998,6.663,0,0
-0.0034855568,2.6402000000000023e-05,0.0007880504000000001,0.00016149152,-0.0023096892000000003,6.664,0,0
-0.0043168714,-0.0008530580000000001,0.0005959096,-0.00011679868000000001,-0.0020711011999999997,6.665,0,0
-0.005455608000000001,-0.001872372,0.0005436708000000001,-0.00027821828,-0.0020661192,6.666,0,0
-0.005692162,-0.0028152440000000006,0.0002237344,-0.00031384528000000006,-0.0014847644000000003,6.667,0,0
-0.0043593494,-0.0030892740000000004,2.6496600000000027e-05,-0.0006772754000000001,-0.0008708396,6.668,0,0
-0.0035631218000000005,-0.00290023,8.48686e-05,-0.0009943576000000002,-0.0009750223999999999,6.669,0,0
-0.0025049562,-0.0025823158000000002,-0.0001360156,-0.0010141146000000002,-0.0006617783999999999,6.67,0,0
0.00011938180000000006,-0.00186772474,-0.00039190320000000005,-0.001268751,0.00031459759999999994,6.671,0,0
0.0025189358,-0.00109245794,-0.00019768879999999996,-0.001710184,0.0007239428,6.672,0,0
0.0035790652000000003,-0.00027334194,5.5603000000000043e-05,-0.001839016,0.00078254886,6.673,0,0
0.0047977436,0.00022964106000000002,0.00020242520000000001,-0.0015086236000000002,0.00122222686,6.674,0,0
0.005690026000000001,0.00054161166,0.0008609912,-0.0015273876,0.0010591122600000001,6.675,0,0
0.004783980000000001,0.0008259306,0.0016892372000000002,-0.0014448696,0.00049506186,6.676,0,0
0.0035024504,0.0009232089999999999,0.0015897612,-0.0010677814000000002,0.00047039086000000003,6.677,0,0
0.0026043532,0.0008542373999999999,0.0007451352000000001,-0.0005964394,0.00023638800000000003,6.678,0,0
0.0009570691999999998,0.0006200569999999999,9.27600000000001e-06,-0.00025380780000000005,-0.00057644,6.679,0,0
-0.0012862108000000001,0.0005223455999999999,-0.0008398360000000001,5.125999999999923e-07,-0.000861871,6.68,0,0
-0.0024940968000000006,0.00031541359999999994,-0.001753964,0.000324782,-0.0007754098,6.681,0,0
-0.0032126252000000007,-8.959160000000005e-05,-0.002077085,0.00041162999999999996,-0.0011441552,6.682,0,0
-0.004098018000000001,-0.0003617488,-0.0018737530000000001,0.0005337380000000001,-0.0010525982,6.683,0,0
-0.0036595912000000003,-0.0005493994,-0.001326282,0.00044943600000000005,-0.00032445360000000003,6.684,0,0
-0.0020750892,-0.0009445108,-0.000469722,0.0001465156,3.907199999999997e-05,6.685,0,0
-0.0013120404000000001,-0.0011736934,0.00019432000000000002,-0.00039388580000000007,-0.00013321480000000002,6.686,0,0
-0.0007415642000000001,-0.0012624594,0.00016714219999999997,-0.0006555160000000001,0.00024427680000000003,6.687,0,0
0.0006605878000000001,-0.0013951066000000001,0.00023342359999999995,-0.00100513,0.0008766418000000001,6.688,0,0
0.0013326090000000002,-0.001122425,0.00012933259999999995,-0.0016660340000000003,0.0006175428000000001,6.689,0,0
0.0015915990000000004,-0.00074342152,-0.0006086354000000001,-0.001712544,0.0003631218,6.69,0,0
0.0025226802000000003,-0.00019913091999999985,-0.0010177014000000001,-0.00149912,0.0008084278,6.691,0,0
0.0031502760000000005,0.0008217150800000001,-0.0008166288000000001,-0.0010476338,0.0009545886000000001,6.692,0,0
0.0027438553999999996,0.0014415030800000001,-0.000532474,-0.00027640780000000005,0.0008945166,6.693,0,0
0.0024158784,0.0016058192800000003,-0.0003253093399999999,0.0007648722000000001,0.001689787,6.694,0,0
0.0021697044,0.0017712930000000002,0.00028183666000000006,0.0018737902,0.002148114,6.695,0,0
0.0008520784000000001,0.0012004338000000002,0.00091750866,0.0025824002000000004,0.001677604,6.696,0,0
-0.00022080560000000012,0.0001881538,0.00097779766,0.0027570760000000002,0.0012297684,6.697,0,0
-0.0006593570000000002,-0.00029002239999999994,0.00100992426,0.002670338,0.0007026457999999998,6.698,0,0
-0.0016169700000000001,-0.00043503220000000003,0.0012827096000000001,0.002372534,7.643299999999958e-06,6.699,0,0
-0.0023794180000000003,-0.0006684228,0.0009556650000000001,0.0018440720000000004,-0.00044935090000000003,6.7,0,0
-0.0019799606,-0.0005154556,0.0002488350000000001,0.0014261492000000003,-0.0004155605,6.701,0,0
-0.0015544576000000002,-0.000375467,2.4233000000000024e-05,0.0008949340000000002,-0.0004392935,6.702,0,0
-0.0016341636,-0.0006339268,-0.00019144940000000003,0.00057872,-0.0005956729000000001,6.703,0,0
-0.0010390596000000002,-0.0006910922,-0.0007209434000000001,0.00039688340000000003,-0.0002747464,6.704,0,0
-0.00032322760000000003,-0.0005297004000000001,-0.0007439044000000001,-0.00016295660000000003,0.00017928180000000005,6.705,0,0
-0.00013354379999999997,-0.00012086639999999999,-0.0005953092000000001,-0.0003456914,0.00041968480000000003,6.706,0,0
0.00025863720000000005,0.000352545,-0.001016126,-0.0007676762000000001,0.0006449636,6.707,0,0
0.0012718052,0.0008950074,-0.0009765714,-0.0017882982000000003,0.0010172716000000001,6.708,0,0
0.0018234812000000001,0.0011967128,-0.00046491739999999994,-0.0019427524000000002,0.0008960016000000001,6.709,0,0
0.001440508,0.0012164699999999999,-0.00029130380000000003,-0.0014470800000000003,0.00049426936,6.71,0,0
0.0016597208000000002,0.0011568239999999999,0.0004728990000000001,-0.0012685194000000002,0.00065268396,6.711,0,0
0.0016966988,0.001156372,0.0015644870000000003,-0.0009278254000000001,0.0006524469600000001,6.712,0,0
0.0005512308,0.0013998036,0.0015276618000000003,-0.00047635940000000007,-7.172104000000002e-05,6.713,0,0
0.000157382,0.0016825516000000002,0.0012216904000000002,-0.0006821606,-0.0007527130400000001,6.714,0,0
0.0007062152000000001,0.0016585209999999998,0.0011683432000000001,-0.001103535,-0.0010123148,6.715,0,0
0.0002025726000000001,0.000984493,0.00047645360000000004,-0.0011742220000000002,-0.0018362648,6.716,0,0
-0.0003954894,0.0001545050000000001,-0.00032439240000000004,-0.0008527560000000001,-0.0020228114,6.717,0,0
0.00043878060000000004,-0.000660241,-0.00022780600000000002,-0.00021255199999999997,-0.0008206053999999999,6.718,0,0
0.0005903064,-0.0012511112000000001,7.431540000000004e-05,0.0003093540000000001,2.805999999999512e-07,6.719,0,0
-0.00019691160000000004,-0.0013151748,3.3453140000000043e-05,0.00039691840000000004,0.0004435108,6.72,0,0
0.00018218300000000001,-0.001173857,0.00016360314000000005,0.00013561439999999997,0.00107937822,6.721,0,0
0.0006251000000000001,-0.0008157194,0.00025726794,-0.0003065295999999999,0.00095257362,6.722,0,0
2.3910000000000007e-05,-7.892340000000009e-05,-0.00022644226000000003,-0.0007217056,0.00030773802,6.723,0,0
3.607239999999999e-05,0.00022381679999999995,-0.0008073202600000001,-0.0007837216,0.0004558960200000001,6.724,0,0
0.0005150114,0.00017424859999999994,-0.0007445806000000002,-0.00034277599999999993,0.00060709982,6.725,0,0
-0.00026447659999999997,0.0004700882,-0.0006352286000000003,3.1796000000000005e-05,0.0005287932,6.726,0,0
-0.0013449076,0.0004918359999999999,-0.0007264754000000002,0.00018313200000000002,0.0011353412000000003,6.727,0,0
-0.0014928716,0.0001309698,-0.0004312656,0.00015677399999999996,0.0016690588,6.728,0,0
-0.001955297,5.45126e-05,0.0002597364,-0.000408492,0.0012417398,6.729,0,0
-0.0026867580000000005,0.0001474308,0.0004661442,-0.0009218420000000002,0.0011783578,6.73,0,0
-0.0022908836000000003,-5.4787e-05,0.0003290076,-0.0009019878000000001,0.0016817450000000001,6.731,0,0
-0.0015975712000000002,2.968659999999998e-05,0.0007880696,-0.0007897168,0.0014340962,6.732,0,0
-0.0016929292000000002,0.0001275362,0.0012312998000000002,-0.00055298434,0.0009932486,6.733,0,0
-0.0014934256000000003,-0.000168273,0.0009814992000000001,0.00020861366000000004,0.0011118698,6.734,0,0
-0.0009337765400000001,-0.00032553080000000004,0.0005123020000000002,0.00069679766,0.0009683307999999999,6.735,0,0
-0.0011928829400000003,-0.0004141416,0.0003474694,0.00061049946,0.0002936268,6.736,0,0
-0.0011300261400000002,-0.00052567,7.60754e-05,0.00085266346,-0.0002392864,6.737,0,0
-0.00035030414000000005,-0.00032139739999999993,-0.00025557760000000004,0.001153373,-0.0006752448,6.738,0,0
-0.00021877974000000008,9.960699999999998e-05,-0.0003463158,0.0008823066000000001,-0.001358845,6.739,0,0
-0.00014168880000000006,0.0003890134,-0.000273033,0.0007395098,-0.002097532,6.74,0,0
0.0007883132000000001,0.0008838966000000001,-0.0002320352,0.0012223478000000002,-0.002109544,6.741,0,0
0.0014412360000000003,0.001241622,-0.0002327352,0.0015118488000000002,-0.0017290020000000003,6.742,0,0
0.0008875580000000001,0.0008163036,-0.000339697,0.0012718476,-0.00159326,6.743,0,0
0.0007832046,0.00025680759999999994,-0.0005129478,0.0010959404,-0.001367952,6.744,0,0
0.0011360186000000001,-0.00020739040000000003,-0.00021036919999999998,0.0010151962000000002,-0.0008982962000000001,6.745,0,0
0.00013092859999999987,-0.0009841964,-0.00015504879999999997,0.0008155062,-0.000770902,6.746,0,0
-0.0005663056000000001,-0.0017599504000000003,-0.000310415,0.0008203222000000001,-0.0010008019999999999,6.747,0,0
0.0002055503999999999,-0.002138656,2.7875800000000015e-05,0.0009731574000000001,-0.00098049,6.748,0,0
0.0005297478,-0.002242118,0.0003065886,0.0009383690000000001,-0.0009879700000000001,6.749,0,0
8.835979999999993e-05,-0.002439534,0.00016028600000000002,0.000557946,-0.0013627997999999999,6.75,0,0
0.0005816621999999999,-0.002240302,0.0002849074,-7.085199999999994e-05,-0.0015762939999999998,6.751,0,0
0.0009417098,-0.0015568221999999999,0.0006109752,-0.0010396480000000002,-0.001842812,6.752,0,0
5.608780000000002e-05,-0.000946397,0.00039172680000000007,-0.002308268,-0.002742164,6.753,0,0
-0.0001548962,-0.00048738920000000003,-5.8856399999999954e-05,-0.0034215600000000006,-0.003674760000000001,6.754,0,0
0.00024108780000000005,-0.0002964632,-0.00039316799999999995,-0.0038772580000000006,-0.004189578,6.755,0,0
0.00020504740000000006,-0.0002538792,-0.0007263307999999999,-0.0025776740000000003,-0.003872774,6.756,0,0
0.00023783200000000005,-0.00035100248,-0.0012472404,-6.490000000000055e-06,-0.0023891340000000002,6.757,0,0
0.0009879,-0.00029867687999999995,-0.001475626,0.001863248,-0.00033750800000000025,6.758,0,0
0.0011830864000000002,1.3129320000000093e-05,-0.0010872838,0.0030786118000000005,0.0012017200000000003,6.759,0,0
0.0005555104,0.0004969933200000001,-0.0006013428,0.0039481888,0.0024711719999999998,6.76,0,0
0.0007522636,0.0009467733200000001,-0.0002574222,0.0030359812000000006,0.003063818,6.761,0,0
0.0006691664,0.0007636342,0.0002773046,0.0007618632000000001,0.0019838918,6.762,0,0
6.236399999999932e-06,0.0004070034,0.0003548300000000001,-0.00035975279999999997,0.0007397217999999999,6.763,0,0
0.00029212,0.00031876339999999993,3.5157999999999435e-06,-5.8324599999999994e-05,0.0009934598000000002,6.764,0,0
0.001251544,0.00013223579999999997,4.197879999999997e-05,0.00021326640000000007,0.0017681118,6.765,0,0
0.0015090448000000002,-0.0001293244,0.00019873419999999999,0.00035232600000000003,0.0016324398,6.766,0,0
0.0016477740000000003,0.000140076,0.0003786754,0.000619782,0.0017778298,6.767,0,0
0.0024938480000000003,0.000606208,0.0006704448000000001,0.000587906,0.0023159378,6.768,0,0
0.0018693292000000004,0.000611828,0.0008567564000000001,1.292200000000001e-05,0.0016953168000000002,6.769,0,0
0.00027810720000000016,0.0005319274000000001,0.0006236564000000001,-0.0005483402000000001,0.00042401480000000007,6.77,0,0
-0.00023155379999999982,0.0007032572000000001,0.0002873296000000001,-0.0009663702,2.4728200000000052e-05,6.771,0,0
-0.0009225297999999999,0.0009466294000000002,-0.00015161,-0.0012978082000000002,4.035000000000004e-05,6.772,0,0
-0.0020842238,0.0008968932000000001,-0.0007638208,-0.0011327712,-0.000558718,6.773,0,0
-0.002037038,0.0008248972000000001,-0.0014567764,-0.0010974280000000001,-0.000702297,6.774,0,0
-0.001431902,0.0009899320000000002,-0.0018672124000000002,-0.0014068978,-0.0003570156,6.775,0,0
-0.0017430550000000003,0.0009954218,-0.0019314024000000002,-0.0013957132,-0.00035509699999999996,6.776,0,0
-0.001633355,0.0008329224,-0.0021593928000000003,-0.0009949082000000001,-0.0001437886,6.777,0,0
-0.00101590176,0.0006855674,-0.0019028268,-0.0009401976,0.00030086620000000007,6.778,0,0
-0.0011868627600000001,0.0004849911,-0.0004863968,-0.0010169768,0.0002972674,6.779,0,0
-0.00134829676,0.0007207545,0.0024609052000000003,-0.0005938016,0.00016365480000000006,6.78,0,0
-0.0007145747599999999,0.0012327931,0.00662074,-0.0003562634,0.00021935140000000004,6.781,0,0
-0.00021935656,0.0013058384999999999,0.01013037,-0.0003872922,0.00012003179999999999,6.782,0,0
-0.000279403,0.0014089399,0.01200474,5.017620000000004e-05,0.00013790759999999998,6.783,0,0
0.00030332500000000007,0.0017847562,0.010770824,0.0005571922,0.00033240852,6.784,0,0
0.0006720020000000001,0.0015926106,0.004448784000000001,0.00037097300000000003,0.0005212695200000001,6.785,0,0
-0.00021556799999999997,0.0010848118,-0.003512376,9.675820000000003e-05,0.00048674532000000004,6.786,0,0
-0.0009251722,0.0010635497999999998,-0.009283996,0.00015530160000000004,0.00022300272000000003,6.787,0,0
-0.000980314,0.0005149556,-0.0125552,-1.548439999999999e-05,0.00010900012000000003,6.788,0,0
-0.001388416,-0.0005764883999999999,-0.012152896000000002,-0.00042492340000000004,0.00020277160000000002,6.789,0,0
-0.001786901,-0.0012457468,-0.008321351000000001,-0.0003199902,0.0003984778,6.79,0,0
-0.000923933,-0.00169046,-0.004232979799999999,-5.8620000000000194e-06,0.0006781634,6.791,0,0
7.574900000000001e-05,-0.002275716,-0.0015917184000000003,-0.00014719920000000005,0.0007157308000000001,6.792,0,0
-1.790999999999997e-05,-0.002411714,-0.00016418840000000004,-0.00021131900000000001,0.0006736240000000001,6.793,0,0
0.00019342220000000002,-0.0017119400000000001,-9.78338e-05,0.0001191126,0.0008013044000000001,6.794,0,0
0.0014207982,-0.001168148,-4.071940000000003e-05,-1.6318600000000017e-05,0.0004449224000000001,6.795,0,0
0.0017957542000000002,-0.0009490402,0.0003344174,-0.0005835088000000001,-0.00020036160000000002,6.796,0,0
0.0017659662000000002,-0.00045442179999999994,0.00022174159999999995,-0.0007900872000000001,-0.00042183080000000005,6.797,0,0
0.0029291402000000003,0.00020823980000000004,0.00013841359999999998,-0.0006824936,-6.086399999999999e-05,6.798,0,0
0.0036688940000000002,0.0005058158,0.00011391219999999999,-0.00021472419999999997,0.00048639600000000005,6.799,0,0
0.0032604520000000005,0.0007282178,6.955639999999996e-05,0.00036698380000000004,0.001054608,6.8,0,0
0.003140444,0.0007913010000000001,-3.4431600000000065e-05,0.0009359596000000001,0.001638118,6.801,0,0
0.0028901900000000004,0.0004931480000000001,0.0004996748,0.0013011076000000001,0.0017459310000000003,6.802,0,0
0.0012825760000000001,0.00028324259999999994,0.0014855808,0.0012453310000000001,0.000714233,6.803,0,0
-3.704800000000003e-05,-0.0002122334,0.0022701636,0.000827139,-0.0007301650000000002,6.804,0,0
-0.0007332080000000001,-0.0006794314,0.003422052,0.0007742269999999999,-0.0017958730000000003,6.805,0,0
-0.002354704,-0.0007990804,0.00499253,0.0011941332,-0.0024299950000000003,6.806,0,0
-0.003599476,-0.0011757218,0.006472536000000001,0.0014670272,-0.0021438950000000003,6.807,0,0
-0.0032971299999999997,-0.001575764,0.007392124,0.0017666020000000001,-0.0011445490000000003,6.808,0,0
-0.0031943259999999995,-0.0015744320000000002,0.007824244000000001,0.0015357230000000001,-0.0001613810000000001,6.809,0,0
-0.003138066,-0.0014831414,0.006808999000000001,0.0008676370000000001,0.0006722189999999999,6.81,0,0
-0.0014127339999999997,-0.0012676076,0.0037505790000000004,0.0004479798,0.0016179710000000002,6.811,0,0
0.00011893599999999993,-0.0004698656,0.00041107499999999946,0.0003078458,0.0019728280000000003,6.812,0,0
0.00023451799999999994,0.00040885840000000004,-0.002291691,7.305999999999974e-06,0.0017857930000000001,6.813,0,0
0.0008559100000000001,0.0006513698,-0.005159187000000001,3.4389078e-05,0.0017013550000000003,6.814,0,0
0.0018696480000000002,0.0006134042,-0.007560594,0.00047166307800000005,0.0017193090000000002,6.815,0,0
0.00171704,0.0004713327999999999,-0.0078006840000000004,0.00043221147800000004,0.0011541742000000003,6.816,0,0
0.001651328,0.0001760524,-0.007111872,0.00018657160800000002,0.00023902220000000004,6.817,0,0
0.0023417380000000003,-9.158920000000001e-05,-0.006231590000000001,-8.005379200000001e-05,-6.996279999999994e-05,6.818,0,0
0.0019780154,-1.8276399999999986e-05,-0.0038381680000000007,-0.00040298587,-0.0006772468000000001,6.819,0,0
0.0005786953999999998,0.0002530128,-0.0013221720000000001,-0.00083437387,-0.0018093668000000002,6.82,0,0
-0.0002635246000000001,0.0002515028,0.0001853168,-0.0013031910700000001,-0.0026917380000000004,6.821,0,0
-0.0009832506000000002,4.8445199999999975e-05,0.0013321608,-0.0018453392000000002,-0.003211048,6.822,0,0
-0.0023122246,-0.00030295920000000007,0.0016112618,-0.0022800980000000004,-0.003467614,6.823,0,0
-0.00281026,-0.0007203434,0.0011394416000000001,-0.0020351726,-0.0030601332000000005,6.824,0,0
-0.0022421248,-0.0009838972000000001,0.0010371836,-0.0014077154,-0.00227095424,6.825,0,0
-0.0021830248,-0.0008866626000000001,0.0009157762000000002,-0.0012173654000000003,-0.0016070498400000003,6.826,0,0
-0.0021162048,-0.0005609458,0.00020082820000000002,-0.0007933500000000002,-0.00044964364,6.827,0,0
-0.0007042468,1.557020000000003e-05,-0.00016648080000000005,-7.187460000000003e-05,0.00061049436,6.828,0,0
0.0003189992,0.0005286202,6.337939999999999e-05,-4.5558400000000014e-05,0.0009590635600000001,6.829,0,0
0.0005426534000000001,0.00069664512,0.00033386140000000005,2.961639999999997e-05,0.0013393546,6.83,0,0
0.0015740374,0.00069644432,0.0003740068,0.0002501844,0.0018742622000000003,6.831,0,0
0.0024512134,0.00058493332,0.0006033544000000001,9.4867e-05,0.0019023440000000003,6.832,0,0
0.0022390254,0.0005306593200000001,0.0013645584000000002,-6.830040000000002e-05,0.0014440238,6.833,0,0
0.0020779674,0.0006708913200000001,0.0014208684,0.000284864,0.0014246418000000002,6.834,0,0
0.002292056,0.0007648138000000001,0.0009909848000000001,0.00047711000000000004,0.0014753698,6.835,0,0
0.001405736,0.0005750814000000001,0.0011607640000000001,0.00048467400000000004,0.0010254090000000001,6.836,0,0
2.168000000000005e-05,0.0007040998,0.0011583596000000003,0.0009028912000000001,0.0007995610000000001,6.837,0,0
-0.0007093079999999999,0.0008912978000000002,0.0005346436000000001,0.0008178542000000001,0.0008580262000000001,6.838,0,0
-0.0017818320000000001,0.0005262838000000001,0.0002535264,0.0003093862,0.00014841219999999996,6.839,0,0
-0.00298949,0.00018923400000000004,0.0003459518,-0.00011967039999999997,-0.0007631778000000001,6.84,0,0
-0.0029964052000000002,0.00040196140000000013,-0.00011149280000000005,-0.0002087688,-0.0006002916000000001,6.841,0,0
-0.0025684512000000003,0.0004587654,-0.0002822434000000001,-0.00018064039999999998,-0.0009129356,6.842,0,0
-0.0027004772000000002,4.7257999999999973e-05,-0.00036392940000000006,0.00015592060000000005,-0.0020001026,6.843,0,0
-0.0019499314000000002,0.00012932719999999998,-0.0009197242000000001,0.0006982546,-0.0019391885999999999,6.844,0,0
-0.0007505654,0.0005210174000000001,-0.0011975968,0.0008714212,-0.0013873905999999998,6.845,0,0
-0.0005463079799999999,0.0006390138000000001,-0.001175475,0.0008314926,-0.0016239384,6.846,0,0
0.00015741802000000013,0.0006548862,-0.0014659836,0.0003194889999999999,-0.0014132396,6.847,0,0
0.0019475360200000003,0.0006690056000000001,-0.0016883736,-5.953160000000005e-05,-0.0005531177999999999,6.848,0,0
0.0030073962200000007,0.0006939374000000001,-0.0008735055999999999,-0.0006505856000000001,-0.0003743098,6.849,0,0
0.0031579142200000004,0.0006651988000000001,-0.0001656648,-0.0013812716,-0.00035107380000000003,6.85,0,0
0.0037961180000000007,0.0005742522,9.421279999999999e-05,-0.0015466046,1.3230999999999969e-05,6.851,0,0
0.003808086000000001,0.0001129436,0.0007982508000000001,-0.0012599426,2.4390599999999976e-05,6.852,0,0
0.0021649480000000003,-0.00037515240000000004,0.0013198952,-0.000822176,-0.0001825232,6.853,0,0
0.0007985239999999999,-0.0006155154,0.0007559376000000001,-0.0004282308,-5.695515999999998e-05,6.854,0,0
0.0001579454000000001,-0.001053515,0.0001834876,0.00010587867999999994,-5.1328360000000005e-05,6.855,0,0
-0.0013237906000000002,-0.0014422340000000001,8.767464000000005e-05,0.00056795168,-0.00050117676,6.856,0,0
-0.0027099386000000005,-0.0016823,-0.00026561896000000003,0.00110546368,-0.00068256316,6.857,0,0
-0.0025597106,-0.0018129060000000002,-0.00040684236,0.00127472168,-2.4671159999999938e-05,6.858,0,0
-0.002190210886,-0.001980826,0.0007331092400000001,0.00137595648,0.00047557480000000004,6.859,0,0
-0.001932324486,-0.0018505546000000001,0.00353322924,0.0014969944,0.0004728328,6.86,0,0
-0.0006703704860000002,-0.0012280926,0.006288213399999999,0.0011622006000000002,0.0009986728,6.861,0,0
0.0006313055140000001,-0.0004295966,0.008362880999999999,0.0006371328,0.0016280428000000002,6.862,0,0
0.000871491694,0.00010848304000000008,0.009384301999999999,0.0003550592,0.0016138368,6.863,0,0
0.00130591798,0.0004295494400000001,0.006194133999999998,0.00036719920000000003,0.0016876648000000002,6.864,0,0
0.00202045418,0.0009490180400000001,-0.0008774660000000004,0.0002717562,0.002120972,6.865,0,0
0.00203130818,0.00110383004,-0.006405246,0.0003215018,0.0020453434,6.866,0,0
0.00190239198,0.00139634004,-0.009255053999999999,0.0001458196,0.0017931320000000002,6.867,0,0
0.0019185978,0.0020837624,-0.010363297,-0.0004890028,0.0014506713999999999,6.868,0,0
0.0011356358,0.0023277700000000003,-0.008033991200000002,-0.0014529208000000002,0.00015873340000000001,6.869,0,0
-0.0006870201999999998,0.0020745798000000003,-0.0040981412000000005,-0.0017393892,-0.0014082086,6.87,0,0
-0.0020935581999999998,0.0016973396,-0.0016937152000000002,-0.00112457,-0.002050058,6.871,0,0
-0.0027786900000000003,0.0011191816,-0.0008863228,-0.0008680892,-0.0024139086,6.872,0,0
-0.003370902,0.0003762478,-0.0010691998000000001,-0.0003810146000000001,-0.002701814,6.873,0,0
-0.003604052,0.0001196158,-0.0014270136000000002,0.000389178,-0.00198335824,6.874,0,0
-0.0027325086,0.00014555000000000001,-0.00113387,0.00034595800000000005,-0.0010129018400000002,6.875,0,0
-0.0017851969999999999,3.5980800000000006e-05,-0.0008995240000000001,0.00017042999999999995,-0.0003012338400000001,6.876,0,0
-0.0013966631999999999,5.9515260000000007e-05,-0.0009211642000000001,0.0007756391999999999,0.0006648861600000002,6.877,0,0
-0.00012010919999999993,8.405706e-05,-0.0005088447999999999,0.0010735406,0.0015208481600000002,6.878,0,0
0.0008950268,-6.444754e-05,-5.32896e-05,0.0010300063599999998,0.0017614444000000002,6.879,0,0
0.0011217956,-2.5709740000000005e-05,5.581479999999998e-05,0.0013092163599999998,0.0020802140000000004,6.88,0,0
0.0020756380000000003,-4.743633999999999e-05,0.0003941588,0.00094248836,0.0025045100000000006,6.881,0,0
0.0030377562,-0.0004782848,0.0009933846,0.00020090896,0.00228277,6.882,0,0
0.0025951862,-0.0006747508000000001,0.0013713412,-3.964504000000002e-05,0.0015884576,6.883,0,0
0.0024184822,-0.0005812358000000001,0.0017222700000000001,-0.00015042,0.0011158836000000002,6.884,0,0
0.00277522,-0.0007906862,0.0023936,-0.00047480600000000003,0.0008797462,6.885,0,0
0.0015431639999999999,-0.0006873102000000001,0.0029880420000000006,-0.00051418,5.8905600000000034e-05,6.886,0,0
-0.0002130700000000001,-0.0002613940400000001,0.0030204140000000008,-0.00047041960000000007,-0.0006887884,6.887,0,0
-0.0010879499999999999,-0.00015417004000000003,0.0026876666000000002,-0.0010886996,-0.00036817200000000005,6.888,0,0
-0.002223672,-5.483584000000001e-05,0.0021737208600000005,-0.001490123,2.5131399999999988e-05,6.889,0,0
-0.003719066,-0.00024226724000000002,0.00151319326,-0.0014251070000000001,-0.00019765500000000003,6.89,0,0
-0.0036843500000000003,-0.00070114924,0.0005664792600000001,-0.0013988822,-1.6187000000000026e-05,6.891,0,0
-0.0027553226,-0.0009657734,-0.00016429273999999996,-0.0011205751999999998,0.0004246564,6.892,0,0
-0.0020871336,-0.0014901634,-0.00036342394,-0.00047297059999999995,-4.140159999999998e-05,6.893,0,0
-0.001042393,-0.002002158,-0.0006855002,0.00010315980000000002,-0.000447799,6.894,0,0
0.000627155,-0.002013492,-0.0013957606,0.00029274279999999997,-0.000221652,6.895,0,0
0.001576099,-0.001973996,-0.0015870306000000001,0.000258408,-0.0006526214000000001,6.896,0,0
0.0017437422,-0.0014770260000000002,-0.0012188790000000002,1.542200000000001e-05,-0.0010415988,6.897,0,0
0.0025020792000000004,-0.00044238200000000017,-0.0008961844000000001,-0.000313372,-0.0005678728,6.898,0,0
0.0031147006000000004,0.000268922,-7.912640000000014e-05,-0.0007774064,-0.0005296313999999999,6.899,0,0
0.0029419346,0.0008956319999999999,0.0007947895999999999,-0.0008843734000000001,-0.0009186606000000001,6.9,0,0
0.0026893005999999997,0.0015920420000000001,0.0013215286,-0.0005961718000000001,-0.0005393646000000001,6.901,0,0
0.0024149104,0.0017588700000000003,0.0017414330000000001,-0.0004359266000000001,-0.000137549,6.902,0,0
0.0008592063999999999,0.001626168,0.001742875,-0.00019968020000000005,-0.0005480373999999999,6.903,0,0
-0.0007580136000000002,0.0014199422,0.001380472,0.00044327380000000005,-0.0005787208,6.904,0,0
-0.0016520656,0.0008322902,0.0012130446,0.0010486978000000002,-0.00027606059999999994,6.905,0,0
-0.0030332776000000002,1.3990200000000143e-05,0.0007155476,0.0011626142,-0.0005512665999999999,6.906,0,0
-0.003984458,-0.0008122578000000001,-0.0002564544,0.001489763,-0.0008783555999999999,6.907,0,0
-0.003617386,-0.0014884178000000002,-0.0009923064000000002,0.001833608,-0.0007280091999999999,6.908,0,0
-0.002988032,-0.0019043460000000003,-0.0016051674,0.0018585100000000003,-0.0007799412,6.909,0,0
-0.002844524,-0.0019283460000000003,-0.0020391240000000002,0.0018402500000000003,-0.0010894714000000002,6.91,0,0
-0.001640758,-0.0015338976000000002,-0.002078358,0.0019192920000000002,-0.0007750114000000002,6.911,0,0
6.390400000000004e-05,-0.0009416768000000002,-0.00166463988,0.0017373940000000002,-0.0005380382000000002,6.912,0,0
0.000689418,-0.0004065630000000001,-0.0011541691,0.0014737862,-0.0005919836000000001,6.913,0,0
0.0016436600000000001,0.0001733798,-0.0008734271,0.0013458524,9.088400000000006e-06,6.914,0,0
0.00329532,0.0009893418000000002,-0.00045135529999999996,0.0008132828000000001,0.0008815484000000001,6.915,0,0
0.0040696000000000005,0.0015644934,0.0003163387,-1.2857199999999976e-05,0.0011767764000000002,6.916,0,0
0.004025738000000001,0.0017498546,0.00082667658,-0.0006725232,0.0010803086000000003,6.917,0,0
0.0044308360000000005,0.0018423848,0.0011956858,-0.0012235814,0.0010615558,6.918,0,0
0.004172062,0.0015607598,0.0016790558,-0.0021578896000000003,0.00040154780000000004,6.919,0,0
0.00234832,0.00083244,0.00171832,-0.00253818,-0.0008934802,6.92,0,0
0.0007577359999999997,0.00019391999999999993,0.0013981669999999999,-0.002116188,-0.0016025262,6.921,0,0
-0.0005311480000000002,-0.00030652360000000005,0.0009145835999999999,-0.0018881106000000001,-0.0017231032,6.922,0,0
-0.0025477,-0.0007328756000000001,0.00028429959999999994,-0.0017123246000000003,-0.0017347198,6.923,0,0
-0.0041293960000000005,-0.0009125114000000001,-0.00017480200000000005,-0.0011268404000000002,-0.0013499526,6.924,0,0
-0.0041218900000000004,-0.0010726456,-0.00041333480000000007,-0.0007419454,-0.0003126645999999999,6.925,0,0
-0.003993092,-0.0010376553999999999,-0.0006912510000000001,-0.0008441862000000001,0.0005871974,6.926,0,0
-0.0036017500000000004,-0.0007434774,-0.0010884396,-0.0004757956,0.0012057864,6.927,0,0
-0.001558936,-0.0006765076000000001,-0.0013787836000000002,0.00026312040000000007,0.0019290032,6.928,0,0
2.9305999999999885e-05,-0.00032020200000000006,-0.0013622922,0.0007124382,0.0024569660000000005,6.929,0,0
0.000735062,0.000326538,-0.0010473630000000002,0.0011224132000000001,0.002635492,6.93,0,0
0.002205182,0.0007557238000000001,-0.0006937865999999998,0.001565608,0.0023802400000000005,6.931,0,0
0.003407782,0.0010149534,-0.00019626359999999992,0.0012199958,0.0015374960000000004,6.932,0,0
0.0031660779999999997,0.001294753,0.0007373524000000001,0.0005235918000000001,0.0001655640000000002,6.933,0,0
0.003052572,0.0014260314,0.0011965566,0.00029958080000000003,-0.000623326,6.934,0,0
0.003163296,0.00122454,0.0013992822000000002,3.238136000000005e-05,-0.0008974952,6.935,0,0
0.0017723020000000003,0.0008474416000000001,0.0015588070000000002,-0.00026527724000000003,-0.0011722412000000001,6.936,0,0
-3.723800000000009e-05,0.00028412260000000003,0.0007547600000000002,-0.00017186344,-0.0010163106,6.937,0,0
-0.0010422740000000002,-0.00017468080000000006,-0.0003074419999999998,9.527156000000002e-05,-0.0005155146000000001,6.938,0,0
-0.002228852,-0.0008802508000000001,-0.0009811999999999998,5.629856e-05,-0.0007492966,6.939,0,0
-0.0035479820000000003,-0.0013117174000000001,-0.0012813946,-0.0001235566,-0.0016814014,6.94,0,0
-0.003489482,-0.0014074612000000001,-0.0007763846,2.2825200000000013e-05,-0.0017756824,6.941,0,0
-0.0026973450000000003,-0.0015313422000000003,0.0009240894,0.00047610160000000003,-0.0017632526,6.942,0,0
-0.002435749,-0.0010580872000000002,0.0024304874,0.0004633576,-0.0018945706000000001,6.943,0,0
-0.0016029274,-0.0004802864000000001,0.0029365642,0.00048547766,-0.0010604706000000002,6.944,0,0
-2.3093999999999545e-06,-0.00018688644000000002,0.0026871916,0.00088728226,0.0002616454,6.945,0,0
0.0009040346000000002,0.00011616895999999996,0.0005865915999999998,0.0005915854600000001,0.0006548923999999999,6.946,0,0
0.0017027576000000003,0.0007892229600000001,-0.0027316244000000003,0.00017218054000000003,0.0012281980000000002,6.947,0,0
0.003062031600000001,0.00129834996,-0.004926262400000001,-9.001845999999998e-05,0.0022290640000000002,6.948,0,0
0.0038422880000000006,0.00174254516,-0.0052473874,-0.00067288652,0.0019354711999999999,6.949,0,0
0.0037378320000000004,0.0024192912,-0.0046682722,-0.0013807925200000001,0.0015521832,6.95,0,0
0.0034786220000000007,0.0028738100000000005,-0.0030041362,-0.00156639092,0.0016180612000000001,6.951,0,0
0.0030169380000000007,0.002882286,-0.00016171420000000015,-0.0014760964,0.0012733884,6.952,0,0
0.0015818920000000003,0.002373702,0.0019297938000000002,-0.0013632358,0.0004770394,6.953,0,0
4.7095999999999835e-05,0.0017092716,0.0024938900000000003,-0.0008902124000000002,3.9348199999999936e-05,6.954,0,0
-0.00099112,0.0007577015999999999,0.0023944580000000004,-0.00030162320000000006,-0.00022134639999999998,6.955,0,0
-0.002605156,-0.00041349040000000006,0.002320256,9.280600000000002e-05,-0.0009397564000000001,6.956,0,0
-0.004083808,-0.0012630504,0.0018134098,-0.0002293816,-0.0013612776000000001,6.957,0,0
-0.00422711,-0.0017918384000000002,0.0010372048,-0.0006697561999999999,-0.0010239716000000002,6.958,0,0
-0.00415954,-0.0020490639999999997,0.0007729653999999999,-0.0010458436,-0.00066259794,6.959,0,0
-0.004402944000000001,-0.001984988,5.419339999999999e-05,-0.001251879,-0.0006073819400000002,6.96,0,0
-0.0033568260000000003,-0.0016806759999999999,-0.0011990906,-0.0009607541999999999,-0.00024133594000000006,6.961,0,0
-0.001823358,-0.0013193394000000002,-0.0017257544,-0.0006800536000000001,-0.00020197994,6.962,0,0
-0.0012025344,-0.0009935966,-0.0016047353999999998,-0.00022854920000000008,-0.00064070894,6.963,0,0
-1.0758400000000171e-05,-0.0005188106000000001,-0.001335496,0.00019255139999999998,-0.0007296492,6.964,0,0
0.0017046216000000001,-7.817460000000002e-05,-0.00034157999999999997,-5.742639999999999e-05,-0.0005506876000000001,6.965,0,0
0.0024027676000000003,9.98532e-05,0.001061618,-0.0005300234,-0.00028259560000000006,6.966,0,0
0.0025766936,0.0002733888,0.0015713688000000001,0.00014526800000000005,0.00039545040000000007,6.967,0,0
0.003037642,0.000677266,0.0014682936,0.0015174516000000002,0.0011085244000000002,6.968,0,0
0.0026804188000000002,0.0005371767999999999,0.0013399956,0.002375367,0.0011125242000000002,6.969,0,0
0.0014003268,3.1704799999999914e-05,0.0009776976000000002,0.0031421350000000008,0.0008233636000000002,6.97,0,0
0.0005432768,0.00010091939999999995,0.0005214012000000001,0.0037241060000000005,0.0006553883999999999,6.971,0,0
-0.00042355320000000003,-4.696800000000051e-06,0.0005343180000000001,0.0031833326,0.00024341819999999998,6.972,0,0
-0.0019706112,-0.0003926872000000001,0.0005955844,0.0016297826,-0.0006616478,6.973,0,0
-0.00285771,-0.0004831890000000001,1.8862400000000052e-05,0.0003888246000000001,-0.0010979269999999998,6.974,0,0
-0.002761944,-0.0003989308,-0.0006176076,0.00014601080000000008,-0.0007495964,6.975,0,0
-0.002618316,-0.0005840331999999999,-0.0009774072,1.5056800000000055e-05,-0.0006173812000000001,6.976,0,0
-0.0022589298,-0.0009340372,-0.0013428507999999999,-0.00035513659999999997,-0.00044789860000000006,6.977,0,0
-0.0008212738,-0.0009672255999999999,-0.001662156,-0.00033945460000000003,0.00035306140000000003,6.978,0,0
0.0005327482,-0.0007405236,-0.0014557418,-9.803179999999994e-05,0.0010263984000000001,6.979,0,0
0.0011511902,-0.0005746596,-0.0009380752000000001,-0.00032923020000000003,0.0009298954,6.98,0,0
0.0022420942,-0.00011389560000000002,-0.0004504753999999999,-0.0007162512000000001,0.0010063114,6.981,0,0
0.0034112960000000003,0.0005824164,0.00017791059999999994,-0.0007280684,0.0013403950000000003,6.982,0,0
0.003608704,0.0007264812,0.0007102946000000001,-0.0005801976000000001,0.0011781858000000003,6.983,0,0
0.0033956959999999997,0.0008019048,0.0010881744,-0.00022553,0.0011677614000000002,6.984,0,0
0.003301618,0.0009679582000000001,0.0014112758,-6.788819999999997e-05,0.0012662864000000003,6.985,0,0
0.002095692,0.0005309272,0.0015788900000000001,-0.00026823719999999996,0.0008291590000000001,6.986,0,0
0.00016387400000000005,7.3397e-05,0.0012356650000000002,-0.0002960452,0.00011445299999999993,6.987,0,0
-0.000995678,1.662879999999996e-05,0.0008568978000000001,-0.0002103974,-0.00037534980000000003,6.988,0,0
-0.00209909,-0.00020244040000000005,0.0006706270000000001,-0.0004586408,-0.0007273814000000002,6.989,0,0
-0.0034338,-0.00042379760000000005,0.0001746936,-0.0007559272000000001,-0.0011763884000000001,6.99,0,0
-0.003910356,-0.0006585206000000001,-0.00013520926,-0.0006165292000000001,-0.0010493689999999999,6.991,0,0
-0.0035296859999999998,-0.0009127344,0.00011036174000000001,-0.0005450634000000001,-0.000567889,6.992,0,0
-0.003267454,-0.00092185512,0.00041111054,-0.000896598,-0.00046580100000000006,6.993,0,0
-0.0025710846,-0.00067852232,0.00037398274000000005,-0.001143099,-0.000407721,6.994,0,0
-0.0010060065999999998,-5.109272000000003e-05,0.0005529359400000001,-0.0008636990000000001,-0.0002434822,6.995,0,0
0.00042869739999999994,0.0007558112800000001,0.0006694272000000001,-0.0007277038000000002,-0.00036423360000000004,6.996,0,0
0.0016803494,0.0010654878800000001,5.0079200000000034e-05,-0.0005302984000000001,-0.00022151159999999996,6.997,0,0
0.0032852734,0.0011315002,-0.0008385304,0.0002781696,0.0005959844000000001,6.998,0,0
0.00469755,0.0011342904000000002,-0.0015395658,0.0008579236,0.0009668454000000001,6.999,0,0
0.00505166,0.0002004444,-0.0021385736,0.0008304688000000001,0.0008858946000000001,7.0,0,0
0.005148116,-0.00043321159999999996,-0.0025143340000000004,0.0010256076,0.0008441888000000001,7.001,0,0
0.00489812,-0.0002131694,-0.0019166736000000005,0.0013231844,0.0005038075400000001,7.002,0,0
0.0031560160000000006,-0.0005383688,-0.0007786176000000003,0.0011439924,-0.00045003446,7.003,0,0
0.0014004100000000004,-0.0008979804,0.00013851039999999997,0.0012245064000000001,-0.0013624184600000001,7.004,0,0
0.0003982688000000001,-0.0007509444,0.0009257104,0.001606414,-0.0014912784600000003,7.005,0,0
-0.0010890712000000001,-0.0008101143999999999,0.0013435574,0.00171977,-0.00173712326,7.006,0,0
-0.0025612812000000004,-0.0010916548000000001,0.0011126909999999999,0.0015255378,-0.002106308,7.007,0,0
-0.0026994732,-0.0011658568000000001,0.0005199228,0.0012343048,-0.0018457666,7.008,0,0
-0.0026517972,-0.0012519496,0.00021161480000000005,0.0006137848000000001,-0.001366907,7.009,0,0
-0.003009392,-0.0012828456000000001,-0.0003336732,-0.00018609119999999995,-0.0009771941999999999,7.01,0,0
-0.002453474,-0.001110887,-0.0010603502,-0.0008126592,-0.00041637939999999995,7.011,0,0
-0.0014852359999999998,-0.001031334,-0.0010921116,-0.001348059,0.00021164660000000003,7.012,0,0
-0.0009145800000000001,-0.000754522,-0.0010935341999999998,-0.0014850578000000002,0.0008138632,7.013,0,0
-6.787000000000015e-05,7.124000000000008e-05,-0.0014831862,-0.0013266162000000001,0.0016044036000000001,7.014,0,0
0.001510726,0.0009877640000000001,-0.0012114428,-0.0010763966,0.0023714648,7.015,0,0
0.002781632,0.0016299034,-7.738679999999998e-05,-0.0010161226000000002,0.002880508,7.016,0,0
0.0033517500000000006,0.002333084,0.0003334126,-0.0008821146,0.002963952,7.017,0,0
0.00365927,0.002892098,0.0005931818000000001,-0.0005603302,0.0025433530000000004,7.018,0,0
0.0029472366000000004,0.0028445300000000005,0.0016097498000000002,-0.0004452318,0.0016795290000000001,7.019,0,0
0.0009485166000000001,0.0025107560000000003,0.0019824844,-0.0004202734,0.00025752300000000006,7.02,0,0
-0.0010803054,0.0021850187999999998,0.0016754404,-0.0004114254,-0.000793507,7.021,0,0
-0.0027784614,0.0014974864,0.0017962264,-0.0004260534,-0.0012429634,7.022,0,0
-0.0045808914,0.0006492364,0.0017592865999999999,-0.0008152980000000001,-0.0019826244000000002,7.023,0,0
-0.005453716000000001,0.00028719,0.0008256886,-0.001220362,-0.0024917404000000002,7.024,0,0
-0.004809624000000001,0.00014345280000000002,0.00025332179999999993,-0.0011422280000000001,-0.0022230884,7.025,0,0
-0.0038995488,-0.0001033762,-4.768760000000005e-05,-0.00056214,-0.0017375526,7.026,0,0
-0.0031969268000000004,-0.0001187934,-0.0010189755999999999,4.7911999999999944e-05,-0.0013570482,7.027,0,0
-0.0016508366000000001,0.0002778418,-0.0015711722,0.000328751,-0.0004699682,7.028,0,0
1.6133999999999463e-06,0.0005945502,-0.0011251424000000001,0.0005569640000000001,0.00039240519999999993,7.029,0,0
0.0006735514,0.0006347974,-0.0009186978000000001,0.00046853479999999994,0.0007512304000000001,7.03,0,0
0.0016050062,0.0005568538,-0.0012645304,0.00020266320000000002,0.0010302826000000002,7.031,0,0
0.0031752802,0.0007236616000000001,-0.0008516712000000001,-0.0001339288,0.0010444106000000002,7.032,0,0
0.003797016,0.0008149488000000001,0.0002116188,-0.00020577260000000008,0.0009083986,7.033,0,0
0.0035104760000000002,0.00042634400000000005,0.000486539,1.3997999999999862e-06,0.0012390832,7.034,0,0
0.003443212,0.00044542800000000005,0.000490331,-0.000146519,0.0015286440000000002,7.035,0,0
0.002324392,0.00039733400000000006,0.0013076710000000003,-0.0002942676,0.000848166,7.036,0,0
0.00018960599999999993,-0.0003751402,0.0018792418000000003,-0.0002884356,-5.674000000000011e-05,7.037,0,0
-0.0013329700000000002,-0.0010419206000000002,0.0014867580000000001,-0.00042215940000000005,-0.0006631240000000001,7.038,0,0
-0.002747338,-0.0017589958,0.0010075876,-0.0006589668,-0.0012755352,7.039,0,0
-0.00438014,-0.0026748658,0.0006603698000000001,-0.00033778759999999997,-0.0018554932000000002,7.04,0,0
-0.004864686,-0.0029518219999999998,-0.0002539862000000001,6.136060000000004e-05,-0.0015480892000000002,7.041,0,0
-0.003982888600000001,-0.00298297,-0.0011159382,8.15198e-05,-0.0006645792000000001,7.042,0,0
-0.0035256745999999997,-0.003251618,-0.0014900324000000002,0.0008397724,6.120480000000001e-05,7.043,0,0
-0.0026557635999999996,-0.00299152,-0.001983204,0.0022279424000000003,0.001092048,7.044,0,0
-0.00044787160000000006,-0.0022616026,-0.0022743620000000003,0.0027368712,0.002162694,7.045,0,0
0.0010480884,-0.0014630706000000001,-0.0020352480000000004,0.0023644072,0.0021603340000000003,7.046,0,0
0.0018534189999999998,-0.0003344386000000001,-0.0015724848000000001,0.0022685016000000002,0.001491452,7.047,0,0
0.003321557,0.0007023854000000001,-0.0010774968000000001,0.0016185678000000003,0.0014518236,7.048,0,0
0.004308406,0.0011450364000000002,-9.746880000000002e-05,0.00039791139999999995,0.0008041636,7.049,0,0
0.0038305120000000003,0.0013742310000000003,0.0009197312000000001,-0.0001941686,-0.00039955640000000005,7.05,0,0
0.003720844,0.0012963590000000002,0.0013003666,-0.0002460788,-0.00043162920000000007,7.051,0,0
0.0037267080000000005,0.0009402138000000001,0.0016227434,-0.00035443700000000004,4.517839999999998e-05,7.052,0,0
0.0023299980000000002,0.0008682888000000001,0.0018283994000000002,-0.0006066672,-0.00030011780000000003,7.053,0,0
0.0007213540000000001,0.0010177198,0.0016712174000000002,-0.0007479372,-0.0005481326,7.054,0,0
-0.00023006199999999995,0.00074911688,0.0017931894000000003,-0.0008662976,-7.731620000000002e-05,7.055,0,0
-0.00177163,0.0001871948799999999,0.0021519280000000004,-0.0010787294,-0.0004750734,7.056,0,0
-0.0036377320000000003,-0.00029449992,0.00174674,-0.0013606768,-0.0011486270000000002,7.057,0,0
-0.00386799,-0.00096958892,0.0007937200000000001,-0.0014800628,-0.0012181804,7.058,0,0
-0.0033782440000000007,-0.00149989292,-0.00014756600000000002,-0.0017677744,-0.0016920276,7.059,0,0
-0.0031061000000000005,-0.0016701520000000003,-0.0015705720000000001,-0.0015008892,-0.0018890384000000001,7.06,0,0
-0.0016693419999999994,-0.0012165652000000002,-0.0030184520000000005,-0.00022113319999999973,-0.0008492164000000001,7.061,0,0
0.0003699119999999999,-0.0007495360000000001,-0.003504368,0.0006798308000000001,5.508560000000006e-05,7.062,0,0
0.0013888340000000002,-0.0004435810000000001,-0.003282798,0.0010864544,-5.1982399999999924e-05,7.063,0,0
0.002569356,0.000248397,-0.0027016187999999997,0.0017424714000000003,0.00020229360000000008,7.064,0,0
0.0040638620000000006,0.000712395,-0.0014383908,0.0015125350000000002,0.000549482,7.065,0,0
0.00422006,0.0007583694000000001,-0.0001977048000000001,4.216099999999998e-05,-8.889839999999999e-05,7.066,0,0
0.0037441340000000005,0.0009775662,0.00030501061799999995,-0.000876033,-0.0006667964,7.067,0,0
0.0035041700000000005,0.0016976132,0.0006280294180000001,-0.0010634386,-0.0003310964,7.068,0,0
0.002312098,0.0020569672,0.0011412102180000001,-0.0012474816000000001,-0.00020679220000000004,7.069,0,0
0.0003006320000000001,0.0021589152,0.001251996218,-0.001398472,-0.0009298082000000001,7.07,0,0
-0.0012041460000000001,0.0021423650000000002,0.001022384018,-0.0009024990000000001,-0.0012709978000000001,7.071,0,0
-0.002590718,0.0018614727800000002,0.0013823686000000001,1.128499999999993e-05,-0.0013169018,7.072,0,0
-0.00411602,0.0011220367800000002,0.0016235958,0.000458575,-0.0015106338000000002,7.073,0,0
-0.004947422,9.937678e-05,0.0009451658000000003,0.000713551,-0.0014034158,7.074,0,0
-0.0047542240000000005,-0.00038780782,0.00046734894000000006,0.001348409,-0.0005667438,7.075,0,0
-0.004427288,-0.0008147948200000002,0.00048482734000000006,0.001610218,0.00019805820000000005,7.076,0,0
-0.004001672,-0.0012403926,-6.557025999999997e-05,0.0009555499999999999,0.0006221148000000001,7.077,0,0
-0.0024786380000000005,-0.0012452126,-0.00062850026,0.0005313086,0.0013568368,7.078,0,0
-0.00048804800000000004,-0.0008187018,-0.00044269245999999996,0.00038737740000000003,0.0015867848000000002,7.079,0,0
0.0007607980000000002,-0.0003805992000000001,-0.00022044759999999996,4.196180000000003e-05,0.0014444748000000001,7.08,0,0
0.002193944,0.0002645888,-0.00037685220000000007,-0.0002746772,0.0016911128,7.081,0,0
0.004051052,0.0009510128,-9.446199999999999e-05,-0.0002970152,0.0020060182,7.082,0,0
0.004601818000000001,0.0011844254,0.0005849799999999999,-0.000198063,0.0016255746,7.083,0,0
0.004090878000000001,0.0009612382,0.00069729243,-0.00026830239999999997,0.0013659986,7.084,0,0
0.0037848400000000003,0.00045416040000000014,0.00062152523,-0.00033610279999999996,0.0013546425999999999,7.085,0,0
0.0028590416000000003,0.00012165140000000002,0.00105817963,-0.00024781959999999997,0.0008114570000000001,7.086,0,0
0.0008073476000000001,-0.00018791520000000002,0.00114290003,0.0002460344,0.000258835,7.087,0,0
-0.0005076744,-0.0002789814,0.00066210703,0.00045203960000000004,0.0001945434,7.088,0,0
-0.0014052644,-0.00021705500000000001,0.0006017498,0.0002995284,0.0001139128,7.089,0,0
-0.0031213044000000002,-0.0003642512000000001,0.00019781699999999993,0.00043244420000000005,-0.0006062112,7.09,0,0
-0.0038241520000000004,-0.0009730642,-0.0004967750000000001,0.000396514,-0.0008478742,7.091,0,0
-0.0031260934000000005,-0.0015581536,-0.0007276242,-2.8618200000000017e-05,-0.0008167056,7.092,0,0
-0.002778228,-0.001759314,-0.0006278994,-0.00030312200000000007,-0.0012877964,7.093,0,0
-0.0020402502000000005,-0.0018907082000000001,-0.0005843024,-0.0002776642,-0.0011863886,7.094,0,0
-0.00010932820000000018,-0.0017761878000000003,-0.00046888400000000003,-0.0005668746,-0.0003488746,7.095,0,0
0.0012085278,-0.0015356038000000002,-0.00013426372000000002,-0.0009064006000000001,2.235800000000002e-05,7.096,0,0
0.0018501612,-0.0009977570000000002,-8.116552000000001e-05,-0.0007581444,0.0004463014,7.097,0,0
0.0031239578,-0.00041208700000000005,-0.00010649412000000004,-0.00039595660000000003,0.0016202134,7.098,0,0
0.004280344,8.28232e-05,7.310248e-05,-0.00020162020000000008,0.002085422,7.099,0,0
0.004254804,0.0005968448000000001,0.00031830868,-9.462640000000003e-05,0.0016117654,7.1,0,0
0.004261256,0.0013584248,4.490240000000001e-05,1.3893600000000026e-05,0.0013086255999999999,7.101,0,0
0.004499344000000001,0.00193843,1.2503599999999966e-05,-0.000131761,0.0007500896,7.102,0,0
0.0029498420000000003,0.0017136684,0.00020027040000000003,-0.0004764026,-0.0008826923999999999,7.103,0,0
0.0008786620000000001,0.0015261412,-0.00011974000000000002,-0.000821247,-0.0023752744000000003,7.104,0,0
-0.00015406399999999987,0.0013213128,-0.00015425280000000001,-0.0009093634000000001,-0.0031028598,7.105,0,0
-0.001916942,0.0006345988,0.00031197920000000006,-0.0009361594,-0.0035924400000000006,7.106,0,0
-0.004048858,-0.00038056919999999994,0.0005230912,-0.0008542718,-0.0036345500000000003,7.107,0,0
-0.004364336,-0.0009207356,0.0001829188,-0.0003744682,-0.003006828,7.108,0,0
-0.0041056140000000005,-0.0011027418,0.00020118160000000003,-2.4289400000000012e-05,-0.0020328702,7.109,0,0
-0.0044063800000000005,-0.0012364734,4.964740000000001e-05,0.0004753018000000001,-0.0010698872,7.11,0,0
-0.0035001100000000003,-0.0008167514,-0.0006631366,0.0014523398000000002,0.00010915680000000007,7.111,0,0
-0.0016495799999999999,4.493260000000001e-05,-0.0010894378,0.0020216248000000003,0.0012176868,7.112,0,0
-0.0006986539999999999,0.0007877366,-0.0010431772,0.0022783568,0.0021264768000000002,7.113,0,0
0.00010761400000000018,0.00133897,-0.0012048362,0.002539004,0.003062993,7.114,0,0
0.00191546,0.002042092,-0.0012610312000000002,0.00219444304,0.003684336,7.115,0,0
0.0032774580000000005,0.002273682,-0.0005212512,0.00133651504,0.00358165,7.116,0,0
0.0032546339999999997,0.0020941368,-0.00025617692,0.00070986424,0.0031918440000000005,7.117,0,0
0.0035556259999999997,0.00180426742,-0.00024618831999999996,0.00013886223999999998,0.0025409620000000003,7.118,0,0
0.0037055279999999996,0.0011926242200000002,0.00060905568,-0.00076963176,0.0011299720000000001,7.119,0,0
0.001836426,0.00028049621999999997,0.0015425510800000002,-0.0011658028000000001,-2.023200000000002e-05,7.12,0,0
0.000194058,-0.00031861718000000003,0.0020772870800000003,-0.00105090304,-0.000697207,7.121,0,0
-0.0005301440000000001,-0.00055266638,0.0027237388,-0.00118690024,-0.001721747,7.122,0,0
-0.002279074,-0.0008496330000000001,0.0028189508,-0.00123447664,-0.002562455,7.123,0,0
-0.003757832,-0.0011057638000000001,0.0020409587999999997,-0.00080021184,-0.0023861610000000004,7.124,0,0
-0.003416742,-0.0012585298,0.0009769468,-0.00068211984,-0.001814358,7.125,0,0
-0.0033642100000000003,-0.0014915884000000002,-0.0003404172,-0.0010619916000000002,-0.0014494523999999999,7.126,0,0
-0.00369936,-0.0019895380000000003,-0.0018507932000000002,-0.0013259756000000003,-0.0008876124,7.127,0,0
-0.002226552,-0.0021793140000000003,-0.002632426,-0.0014672160000000001,-6.557900000000004e-05,7.128,0,0
-0.0005993079999999999,-0.0020000056,-0.0026075542,-0.0011339148000000002,0.0004403032,7.129,0,0
0.0003750540000000001,-0.0015035694000000003,-0.0025669902,-0.0002706668,0.0008910922000000001,7.13,0,0
0.002101578,-0.0008220814000000003,-0.0021213054,0.0006968672000000001,0.0016244996000000002,7.131,0,0
0.004017116,-0.00015351920000000003,-0.001382392,0.0009681552000000001,0.0017960000000000003,7.132,0,0
0.004569822,0.0004195074,-0.0006248018600000001,0.0007836480000000001,0.0018674080000000003,7.133,0,0
0.004533906000000001,0.0009099970000000001,-0.00027149406,0.0012029920000000002,0.0025452838,7.134,0,0
0.004517376000000001,0.0010561988,-8.164060000000016e-06,0.001274738,0.0026793018,7.135,0,0
0.0029750340000000005,0.0007043014000000001,0.00053035914,0.000880775,0.0017036674,7.136,0,0
0.0008093100000000002,0.0005125822,0.00066642654,0.0014802770000000001,0.0011928669999999998,7.137,0,0
-0.0006965059999999998,0.0003743114,0.00043180440000000007,0.002161501,0.000987346,7.138,0,0
-0.0023763960000000002,-0.00010499760000000005,0.0003597998,0.0016075751999999998,-0.00040791999999999993,7.139,0,0
-0.004131798,-0.0005692134000000001,0.0003049258,0.0010137448,-0.0018422019999999998,7.14,0,0
-0.004950728,-0.0005047054,-0.0002991644,0.00083320042,-0.0017969756000000001,7.141,0,0
-0.0049101019999999995,-0.0004854972,-0.0005457192,0.00043244942000000006,-0.0012461714,7.142,0,0
-0.00463582,-0.0005610398,-0.00031822320000000003,0.00026340022,-0.0012706324,7.143,0,0
-0.0036468856000000005,-0.0005080058,-0.00042438160000000003,-2.0778779999999997e-05,-0.0007461858000000001,7.144,0,0
-0.0016085496000000001,-0.00047553479999999995,-0.0006563896,-0.00072021438,4.4319599999999995e-05,7.145,0,0
0.00034033039999999983,-0.00039363639999999997,-0.0005696196,-0.001427113,7.148839999999999e-05,7.146,0,0
0.0017188843999999999,0.00011014640000000007,-0.00032221440000000006,-0.00216445,-0.0001733704,7.147,0,0
0.0033071624,0.0009266992000000001,-0.00045546280000000007,-0.0028367208000000003,-0.00027824980000000005,7.148,0,0
0.004688482,0.0017464542,-0.0004216624400000001,-0.0032732240000000004,-0.0004174264,7.149,0,0
0.004690387999999999,0.002619921,3.299156000000002e-05,-0.0030950860000000004,-0.0009756118,7.15,0,0
0.004437698,0.002967204,0.00020946196000000002,-0.0024218460000000005,-0.0015589206,7.151,0,0
0.004409112,0.0029985740000000004,0.00048046476000000005,-0.001954928,-0.0020842120000000002,7.152,0,0
0.0030020280000000003,0.002538462,0.00112248116,-0.0015955422,-0.0026590460000000004,7.153,0,0
0.0007704939999999995,0.001596214,0.0014199842,-0.0004743461999999999,-0.0028174180000000004,7.154,0,0
-0.0007223680000000001,0.0007583792000000001,0.0014550182,0.0006719018000000001,-0.0023104558,7.155,0,0
-0.002227806,0.00017665780000000004,0.0015484404,0.0012801778000000002,-0.0017046898000000004,7.156,0,0
-0.003961568,-0.0005749342000000001,0.0011757846,0.0022655458,-0.0009565214000000002,7.157,0,0
-0.0042355280000000006,-0.0012993822,0.0004787534,0.0030986,0.0003879405999999999,7.158,0,0
-0.0037786160000000003,-0.0012755578000000001,5.056999999999989e-06,0.002949538,0.0010383426,7.159,0,0
-0.0035138400000000007,-0.001162891,-0.00042674840000000004,0.0022678724599999997,0.0011052613999999999,7.16,0,0
-0.0032202440000000006,-0.0015069876000000002,-0.0007756618,0.00189944046,0.0016727034000000001,7.161,0,0
-0.0045952960000000004,-0.0020937816,-0.0007795374,0.0014328032600000001,0.0018867889999999998,7.162,0,0
-0.007714174000000001,-0.0023359276,-0.0007494800000000001,0.0005752476600000002,0.0015053652000000001,7.163,0,0
-0.009297968,-0.0025932539999999997,-0.0008503156000000001,0.00015411686000000005,0.0016631432,7.164,0,0
-0.008589860000000001,-0.0026972785999999998,-0.0006068116000000001,1.615520000000005e-05,0.0021314622,7.165,0,0
-0.00673738,-0.0020645266,-0.00039894899999999995,-0.0005561608,0.0017608362,7.166,0,0
-0.0017459399999999996,-0.0010633313999999997,-0.00028990019999999996,-0.0010529156000000002,0.0012597218000000002,7.167,0,0
0.005962780000000001,-7.689740000000012e-05,0.0002815936,-0.0011722820000000002,0.0009810678,7.168,0,0
0.011540680000000001,0.0006826206000000001,0.0008161996000000001,-0.0015766792000000002,3.042180000000004e-05,7.169,0,0
0.013023186,0.0010711492,0.0009252428,-0.001772754,-0.0013370222,7.17,0,0
0.012639304,0.0009517432000000001,0.000940312,-0.0017342360000000001,-0.0021122342000000002,7.171,0,0
0.010760488,0.0008674942,0.0010189309999999998,-0.0018132320000000001,-0.0022878658,7.172,0,0
0.0065797702000000005,0.0007594612000000001,0.0006131027200000001,-0.0013440194000000003,-0.002559358,7.173,0,0
0.0026062462000000005,0.0002658186,-2.5805279999999966e-05,-0.0005102274000000001,-0.002325606,7.174,0,0
0.0004517342,-0.0002354074,-0.00036855488,8.786400000000049e-06,-0.0015978792,7.175,0,0
-0.0012270438000000002,-0.0003563284,-0.00047429608000000003,0.0005694924,-0.0009897358,7.176,0,0
-0.0028209158000000005,-0.00039756460000000003,-0.0008038864800000001,0.0011903664000000001,-0.0005271480000000001,7.177,0,0
-0.0027588836000000004,-0.0004368428000000001,-0.0009663306000000001,0.0012344718,-6.456079999999997e-05,7.178,0,0
-0.0016480376,-0.00014692600000000002,-0.00041662980000000007,0.00090642122,0.0003688342,7.179,0,0
-0.0009695656000000001,0.00013640819999999999,-0.00026818219999999996,0.00074145402,0.0005127278,7.18,0,0
0.0005634524,0.0005453552,-0.0002994432,0.00084012602,0.0011490304,7.181,0,0
0.0023938844,0.0011453872,-2.900400000000001e-05,0.0004572672200000001,0.0018503306,7.182,0,0
0.00276187,0.0014328024,0.0002509936,-0.0002775147800000001,0.0018796494,7.183,0,0
0.002476004,0.0014151620000000002,0.0004541588,-0.0005414122000000001,0.0018665218,7.184,0,0
0.0024084694000000005,0.0015431462000000003,0.000711355,-0.0007976488000000002,0.0020902354,7.185,0,0
0.0012231954000000002,0.0014211600000000003,0.0014050364,-0.0011803866,0.0014253387999999998,7.186,0,0
-0.0009986806,0.0006126080000000002,0.0021256872000000003,-0.0009168768000000001,0.00018793880000000007,7.187,0,0
-0.0024332306,-0.00012483000000000004,0.00229507,-0.000309249,-0.00013189919999999995,7.188,0,0
-0.0037621926000000003,-0.0005837298000000001,0.00218415,0.000218707,-0.00037134959999999997,7.189,0,0
-0.00551585,-0.0012728562000000002,0.002169526,0.000797575,-0.0008116298,7.19,0,0
-0.006156248,-0.0020608420000000002,0.0016273764000000002,0.0010409768,-0.0010292984,7.191,0,0
-0.005378549999999999,-0.0023044140000000003,0.0006154664,0.0012056618,-0.0010800644,7.192,0,0
-0.004834924,-0.0024223340000000004,-0.0003478416000000001,0.0013855120000000002,-0.0011747064,7.193,0,0
-0.004094034,-0.0025415840000000004,-0.0013022176,0.0011159419600000001,-0.0009223438000000001,7.194,0,0
-0.0017356060000000002,-0.0021402956,-0.0019863776,0.00071075076,-0.0004448556,7.195,0,0
0.0006538339999999998,-0.0015248096,-0.002487098,0.00059423196,-0.00031585700000000006,7.196,0,0
0.0021767740000000002,-0.0006954436000000002,-0.00275726,0.00056028796,0.00038238300000000003,7.197,0,0
0.00409454,0.0006515284,-0.002408342,0.00054072596,0.001321317,7.198,0,0
0.005732256,0.0019053884000000002,-0.00171295324,0.0006211159999999999,0.0016222854000000001,7.199,0,0
0.005475013999999999,0.002598448,-0.0009515692399999999,0.0006813285199999999,0.0016997154000000002,7.2,0,0
0.004515851999999999,0.0033337840000000002,-0.00022405323999999995,0.00069846452,0.002075866,7.201,0,0
0.0036947082,0.0036207200000000004,0.00029671746000000006,0.00044027252000000005,0.002033378,7.202,0,0
0.0013296181999999997,0.0028901662,0.00078496146,-0.00012467748000000002,0.0009715939999999999,7.203,0,0
-0.0015628798000000004,0.0021507816,0.0009494251000000001,-0.00052097148,-0.00011326800000000014,7.204,0,0
-0.0031739958000000005,0.0016536056,0.0006954935,-0.0009114888000000001,-0.0007947060000000001,7.205,0,0
-0.0048421578,0.0008122683999999999,0.0008803955000000001,-0.0015987080000000003,-0.0016399280000000001,7.206,0,0
-0.006382102000000001,-1.188099999999999e-05,0.0011232468000000001,-0.0020703960000000004,-0.002824394,7.207,0,0
-0.005970684,-0.0004936872000000001,0.0008753831999999999,-0.002017052,-0.003247396,7.208,0,0
-0.0045862714,-0.0009694846000000002,0.0007131632199999998,-0.0015538270000000002,-0.0025025986000000006,7.209,0,0
-0.0038232974000000004,-0.0014412586000000002,0.00045212681999999994,-0.0009506870000000002,-0.0014148446,7.21,0,0
-0.0023356544,-0.0018215014000000002,-0.0003596131800000001,-0.00018364480000000017,3.689140000000008e-05,7.211,0,0
0.00019815559999999976,-0.0021175960000000002,-0.0007671055800000002,0.0006627951999999999,0.0018527454,7.212,0,0
0.0016710416,-0.0018958572000000002,-0.00076008518,0.0009372580000000001,0.0033766454000000003,7.213,0,0
0.0025863690000000003,-0.0014322168400000002,-0.0010519316,0.0006074476,0.0037305840000000003,7.214,0,0
0.004292209,-0.0009665524400000002,-0.0007859952000000001,5.17359999999996e-06,0.00314458,7.215,0,0
0.00524237,-0.00019774644000000009,-0.0002962688000000001,-0.0008224086000000002,0.002074074,7.216,0,0
0.004917126000000001,0.00063045356,-5.586599999999998e-05,-0.0017584326,0.000681162,7.217,0,0
0.004768352,0.00140446476,3.2145280000000004e-05,-0.0025955034,-0.000242412,7.218,0,0
0.0046367840000000006,0.0020271784000000003,0.00013675067999999998,-0.002692136,-0.0008077424000000001,7.219,0,0
0.0028326280000000002,0.002227498,0.00036487227999999994,-0.0015297559999999997,-0.0009106145999999999,7.22,0,0
0.0010122439999999998,0.002232,0.00039356667999999997,0.0002846540000000003,3.783539999999998e-05,7.221,0,0
-0.00011611200000000025,0.0019685928,0.000316584,0.0020441780000000002,0.0009699674,7.222,0,0
-0.0016650360000000004,0.0012837788,0.00029104592,0.0033547100000000003,0.001164852,7.223,0,0
-0.0028599420000000003,0.0007910382,0.00039731491999999997,0.003612178,0.001406003,7.224,0,0
-0.0027764120000000007,0.00035876699999999996,0.00012702092000000002,0.002674841,0.0011476718000000001,7.225,0,0
-0.0019622602000000005,-0.000182131,-1.4328480000000002e-05,0.000818327,-3.394219999999998e-05,7.226,0,0
-0.0021259822000000003,-0.0007169618,-0.00017819640000000001,-0.001011755,-0.0014120282,7.227,0,0
-0.0005517521999999998,-0.0008636334000000001,-0.00016795640000000003,-0.0016685576,-0.0019465188,7.228,0,0
0.0007777438000000002,-0.0010148568,0.00026156120000000007,-0.0010456096,-0.002087267,7.229,0,0
0.0019677038,-0.0008300580000000001,0.0003712566,0.00039194939999999997,-0.0033975216,7.23,0,0
0.0020465642000000004,-0.0005141421999999999,0.0007931552,0.0017565974,-0.0049091176,7.231,0,0
-0.0039114218,-0.0019598822,0.0012613894,0.0027876634000000003,-0.005324559600000001,7.232,0,0
-0.0108275298,-0.004068130600000001,0.0008533154,0.0036084780000000005,-0.0056624776,7.233,0,0
-0.0144368338,-0.0055188226,-8.782259999999997e-05,0.0034171940000000006,-0.005427446,7.234,0,0
-0.0164452338,-0.0065559922,-0.000646648,0.0022493184000000003,-0.00273899,7.235,0,0
-0.015539124,-0.0067034294000000005,-0.001885332,0.0013509744000000004,0.0007022519999999998,7.236,0,0
-0.0059479039999999995,-0.0044700954000000005,-0.0032410399999999997,0.0005437104000000003,0.004035368,7.237,0,0
0.005651396000000001,-0.0008291214000000001,-0.0034259060000000003,-0.0006078096,0.007245978,7.238,0,0
0.014060396000000001,0.0027911506000000003,-0.0032238300000000004,-0.0016298096000000003,0.009035686000000001,7.239,0,0
0.021080656000000003,0.0060322806,-0.0028920522000000005,-0.0025652,0.009529174000000001,7.24,0,0
0.025373180000000002,0.008176936,-0.0019006522000000004,-0.00324629,0.009105726,7.241,0,0
0.025992300000000003,0.009403194,-1.6736200000000228e-05,-0.003638296,0.0070680052000000005,7.242,0,0
0.021954406000000003,0.009212409999999999,0.0013617698,-0.003743066,0.0035899032,7.243,0,0
0.015688506,0.007838250000000001,0.0023634898,-0.0034531379999999997,-2.679279999999993e-05,7.244,0,0
0.007040846000000002,0.0055238976,0.0036147920000000004,-0.002901902,-0.0039327308,7.245,0,0
-0.0032944940000000007,0.0022797816,0.004261352,-0.0018455326000000002,-0.007265926800000001,7.246,0,0
-0.012557934,-0.0010806844,0.003904952,-0.00039663260000000005,-0.009136436,7.247,0,0
-0.019573160000000003,-0.0043049544,0.003451898,0.0008884534,-0.009790228,7.248,0,0
-0.024251620000000005,-0.007053940400000001,0.0027082796000000003,0.0018729054,-0.009243916,7.249,0,0
-0.025271040000000005,-0.008611796000000001,0.0008591876,0.0029055113999999996,-0.007318164,7.25,0,0
-0.022089084000000002,-0.0089488,-0.0007916184000000001,0.0034594260000000003,-0.004519,7.251,0,0
-0.016802934000000002,-0.008221432,-0.0018233564000000003,0.003295726,-0.00154798,7.252,0,0
-0.009571998000000002,-0.0063687016,-0.0029576384,0.00299715,0.0016911080000000002,7.253,0,0
-0.0007032979999999989,-0.0040044696,-0.004004052,0.0024248264,0.004585798,7.254,0,0
0.007839042000000001,-0.0013285595999999995,-0.004252774000000001,0.0016722970000000003,0.006489482,7.255,0,0
0.014636846,0.0016692284000000002,-0.004016436,0.0007984444000000001,0.007116028000000001,7.256,0,0
0.019912716,0.0043610444,-0.0035502374000000005,-0.0003130516,0.00704175,7.257,0,0
0.022933260000000004,0.0063577239999999995,-0.0020953174000000003,-0.0014789116,0.0060668860000000005,7.258,0,0
0.021908979999999998,0.00747981,0.00013818460000000006,-0.002229406,0.00378036,7.259,0,0
0.017627886000000002,0.0073493460000000005,0.0020992806000000004,-0.0025735226,0.0014619240000000003,7.26,0,0
0.011845866,0.006102939999999999,0.0035517406000000005,-0.0026336320000000003,-0.000591352,7.261,0,0
0.004116146,0.004256568,0.004532852,-0.0022863920000000004,-0.002790668,7.262,0,0
-0.004526274,0.0020028440000000006,0.004578842,-0.0015321608000000001,-0.004722776000000001,7.263,0,0
-0.011323254000000001,-0.0003514279999999999,0.0036649626,-0.0006910912,-0.005613086000000001,7.264,0,0
-0.01626636,-0.0025918900000000003,0.0024744264000000006,-0.00023704080000000005,-0.005743276,7.265,0,0
-0.0195981,-0.004041866,0.0011730444,0.00020933719999999994,-0.005658268,7.266,0,0
-0.01971988,-0.0045085179999999996,-0.00044199759999999995,0.0007395852,-0.004576548000000001,7.267,0,0
-0.016914648,-0.004649604,-0.0019095296,0.00103152,-0.0026161780000000003,7.268,0,0
-0.0125631452,-0.0042636,-0.0029147762,0.0011497504,-0.000620182,7.269,0,0
-0.0064043932,-0.0031193716,-0.00340928,0.0012116562,0.0015449920000000002,7.27,0,0
0.0012258068000000001,-0.0015760316,-0.0033542800000000003,0.0008956582000000002,0.003701732,7.271,0,0
0.0081961268,-7.917599999999851e-06,-0.0025214058,0.0003423982000000002,0.004992642,7.272,0,0
0.0134541548,0.0013978904000000003,-0.0015219058000000003,-6.12071999999999e-05,0.005780352000000001,7.273,0,0
0.017615352,0.0028862884000000004,-0.00043968580000000004,-0.0003201218,0.006422534000000001,7.274,0,0
0.01916644,0.004413204,0.0012215402000000002,-0.00044041800000000004,0.0057594640000000015,7.275,0,0
0.016949106000000002,0.004878830000000001,0.0025177722000000002,-0.00039479040000000003,0.004231295,7.276,0,0
0.013120424,0.004275552000000001,0.002876476,-0.0004021244,0.002687511,7.277,0,0
0.0072054020000000005,0.0035794290000000003,0.0028375144000000003,-0.000676085,0.0004310869999999999,7.278,0,0
-0.003037558,0.0021558230000000003,0.0024911002,-0.0010559804,-0.0025998310000000004,7.279,0,0
-0.014226278000000002,-0.00033367499999999997,0.0013145302000000002,-0.0014713864,-0.0051261710000000005,7.28,0,0
-0.022140984000000002,-0.002564083,0.00048759720000000016,-0.0016481300000000003,-0.006555642,7.281,0,0
-0.027356242000000003,-0.004071509,0.00027402920000000003,-0.0012533330000000004,-0.0074756300000000005,7.282,0,0
-0.028337380000000002,-0.005198044000000001,-0.0001968072,-0.0006074290000000002,-0.007003144,7.283,0,0
-0.022077214,-0.005642564000000001,-0.0005934829999999999,-0.00017199200000000002,-0.0047416540000000005,7.284,0,0
-0.011674954,-0.00515819,-0.000894661,0.0002729682,-0.00225007,7.285,0,0
-0.0014835140000000009,-0.004186676,-0.0015364340000000002,0.0004452099999999999,0.0003054259999999999,7.286,0,0
0.008056026,-0.0030646668,-0.002422268,0.0004133718,0.003214062,7.287,0,0
0.015824446,-0.0017048768,-0.002644936,0.0004136738000000001,0.005376518,7.288,0,0
0.02013852,-5.726280000000004e-05,-0.0023157994,0.0004156436000000001,0.006469962,7.289,0,0
0.02204066,0.0018247212000000001,-0.0019860214000000003,0.0005844814000000001,0.00711643,7.29,0,0
0.022319440000000003,0.0036377632,-0.0013334040000000003,0.0009854856000000001,0.007309564,7.291,0,0
0.019627739999999998,0.005044432,-0.00033582599999999995,0.0013245668,0.00631454,7.292,0,0
0.014675204200000002,0.005639752,0.000617172,0.0010468266,0.004309658,7.293,0,0
0.0098446962,0.005316266000000001,0.0015856374000000001,0.0008055950000000001,0.002081894,7.294,0,0
0.0043757422,0.004351444000000001,0.0026200434,0.0007572290000000001,-0.00022589799999999998,7.295,0,0
-0.0022148778,0.002583066,0.00330493,0.000636989,-0.0025544499999999998,7.296,0,0
-0.0072362178,0.0004844420000000001,0.003311114,0.0003488636,-0.00396324,7.297,0,0
-0.010034442000000001,-0.0010797200000000002,0.0029453732,4.042979999999998e-05,-0.004309988,7.298,0,0
-0.012761234,-0.002433366,0.0023233207999999997,-0.0002051434,-0.00501037,7.299,0,0
-0.014492139999999999,-0.003535344,0.0010344268000000002,-0.0006579634,-0.005355908,7.3,0,0
-0.013424366,-0.0038264460000000003,-0.00044270320000000014,-0.0012252614,-0.004913022,7.301,0,0
-0.011049534,-0.0038238360000000006,-0.0014493852000000002,-0.0016566060000000001,-0.0046428680000000005,7.302,0,0
-0.008224534,-0.0036159900000000003,-0.0024811244,-0.002055284,-0.004235640000000001,7.303,0,0
-0.0039096159999999994,-0.002610198,-0.0031956860000000005,-0.0028147800000000002,-0.002782129,7.304,0,0
0.000973364,-0.0013503660000000002,-0.0029266086000000005,-0.00277292,-0.0004897870000000001,7.305,0,0
0.00462911,-2.3953999999999968e-05,-0.0027479566000000004,-0.0013772919999999998,0.0017430050000000002,7.306,0,0
0.007633918,0.0016193779999999999,-0.0024868626000000005,-9.938000000000134e-06,0.003827117,7.307,0,0
0.009936578,0.00314462,-0.0013868090000000001,0.0008142010000000001,0.005166885,7.308,0,0
0.009963036,0.0039002159999999998,-0.000442373,0.0017174810000000003,0.004992930600000001,7.309,0,0
0.008326486,0.003960904,-6.521240000000007e-05,0.00193313694,0.0035078666000000003,7.31,0,0
0.006317452057999999,0.0034499723999999996,0.0009640016000000001,0.0007880429399999999,0.0014777106000000003,7.311,0,0
0.0030649280579999995,0.0018567323999999997,0.0022931135999999996,-7.065666000000001e-05,-0.0008700834000000001,7.312,0,0
-0.0009272919420000005,-5.949159999999983e-05,0.002837834,0.00038406633999999996,-0.0027008294,7.313,0,0
-0.0036694039420000005,-0.0018151436000000002,0.00300232,0.0010397983400000001,-0.003386926,7.314,0,0
-0.005967105942000001,-0.0034315556000000004,0.0027545111999999995,0.0017065744000000001,-0.003593642,7.315,0,0
-0.008478992000000001,-0.004360832,0.0019951188,0.0027207504,-0.003404304,7.316,0,0
-0.00923964,-0.004445132000000001,0.0009245218,0.00289352,-0.0025084065999999997,7.317,0,0
-0.008410102000000001,-0.004137628,2.048380000000007e-05,0.0026195140000000007,-0.0011126946000000002,7.318,0,0
-0.007715662000000001,-0.0033843378000000006,-0.0008311822,0.0024134780000000006,0.0003202013999999999,7.319,0,0
-0.0057900116000000005,-0.0022356380800000004,-0.0015034834,0.0015340728,0.0019087174,7.32,0,0
-0.0019413356000000002,-0.00119965848,-0.001641219,0.00040748339999999996,0.0034798594,7.321,0,0
0.0011817104000000004,0.00012443152000000002,-0.0016817242,-0.0006466406,0.004036144,7.322,0,0
0.0036163944000000008,0.00141585752,-0.0017783862,-0.0016445986,0.003921190000000001,7.323,0,0
0.006693550400000001,0.00233424932,-0.0017408262,-0.0017537822,0.004363694,7.324,0,0
0.008717352000000001,0.0031569816000000003,-0.0011126084,-0.0014318724,0.003847138,7.325,0,0
0.008616904000000002,0.003671946,-0.0004586804,-0.0016280169999999998,0.0020323240000000003,7.326,0,0
0.007719048,0.003717028,6.44179999999999e-06,-0.0015342950000000002,0.0010448,7.327,0,0
0.005910328,0.003328638,0.0005506538000000001,-0.0014272850000000001,2.1649999999999903e-05,7.328,0,0
0.0021199,0.0026116005999999997,0.0010372238000000002,-0.0020863994,-0.0021553659999999997,7.329,0,0
-0.0019359199999999998,0.0016263792,0.001349832,-0.002653398,-0.003480798,7.33,0,0
-0.0049944080000000005,0.0004624851999999999,0.0012765500000000002,-0.0020310640000000004,-0.003460394,7.331,0,0
-0.007519486,-0.0005160568,0.001116506,-0.00054668,-0.00334453,7.332,0,0
-0.00914931,-0.0012485128,0.00053123,0.0006915240000000002,-0.0028674964000000003,7.333,0,0
-0.008675519999999999,-0.0017425514,-0.00038306000000000017,0.0017081860000000002,-0.001975965,7.334,0,0
-0.006963952000000001,-0.0018706240000000002,-0.0006975510000000001,0.002506988,-0.00098229044,7.335,0,0
-0.0051721542,-0.0018231120000000002,-0.0007822702000000001,0.0023223528,-0.00022062843999999998,7.336,0,0
-0.0022184401999999995,-0.0016877500000000002,-0.0010873840000000003,0.0015955432000000001,0.0004966715600000001,7.337,0,0
0.0012427037999999998,-0.0011824022000000002,-0.00073852236,0.0013023672,0.0012559259600000003,7.338,0,0
0.0034349278,-0.00024812020000000007,2.0478639999999993e-05,0.0010546032000000002,0.0016576945600000003,7.339,0,0
0.0049923338,0.0006514398,-0.00011685236000000001,0.0006867112000000001,0.001881688,7.34,0,0
0.006677634,0.0014197198000000001,-0.00038403756,0.0004319104,0.0019484940000000003,7.341,0,0
0.007122536,0.0022263698,-9.955896000000004e-05,-0.00022653799999999998,0.0013892774,7.342,0,0
0.006355614,0.002697206,-0.00019667900000000003,-0.0009358120000000001,0.0005235994000000002,7.343,0,0
0.005678144,0.003221962,-0.0002445076000000001,-0.001556254,0.00048515540000000005,7.344,0,0
0.0045445084,0.004590986,0.00021712239999999996,-0.002235176,0.00041132800000000003,7.345,0,0
0.0023019444,0.006272720000000001,0.00035793439999999994,-0.0022248728,-0.00031246000000000003,7.346,0,0
0.00036440440000000006,0.007409908,0.0004730456,-0.0019752808,-0.0005864574,7.347,0,0
-0.0006014628000000001,0.0074335619999999995,0.0007143626,-0.0018600968000000004,-0.0007752214000000001,7.348,0,0
-0.0015941288,0.005929804,0.0006878267799999999,-0.0013736022000000003,-0.0015375954000000002,7.349,0,0
-0.0021315232000000003,0.0030898740000000003,0.00051204058,-0.0005134136000000001,-0.0018986662,7.35,0,0
-0.0015470972000000002,0.00016517600000000039,0.0001985109800000001,0.0002455912,-0.0012504222,7.351,0,0
-0.0014390232,-0.0031530620000000003,-0.00034278301999999996,0.0011815152,-0.0005197422,7.352,0,0
-0.002004014,-0.006649306000000001,-0.00068318802,0.0021968292,0.00033555379999999994,7.353,0,0
-0.001251766,-0.008064676000000002,-0.0007325102000000001,0.0027920505999999997,0.0014169898,7.354,0,0
-0.00135532,-0.007968682000000001,-0.00054813,0.003392362,0.001782804,7.355,0,0
-0.00403684,-0.007741970000000001,0.00019359599999999993,0.003559216,0.0016658314000000001,7.356,0,0
-0.005219906,-0.006440845999999999,0.000775554,0.003114522,0.0015629174000000002,7.357,0,0
-0.004535842599999999,-0.004067582,0.0012475244,0.002244881,0.0013512334,7.358,0,0
-0.0047288318000000005,-0.002828926,0.001756198,0.0013184529999999998,0.00046325740000000004,7.359,0,0
-0.0033768878,-0.002518132,0.0014084934,0.0004338294000000001,-0.0003197206,7.36,0,0
0.0012906822,-0.00212298,0.0006229954,-0.0004987826,-0.0002771688,7.361,0,0
0.0052593582,-0.0020407380000000003,0.0002483997999999999,-0.0009257806000000001,-0.0003854594,7.362,0,0
0.006962746799999999,-0.0016919146,-0.0004036562000000001,-0.0009535086000000001,-0.0006987718,7.363,0,0
0.008621666,-0.0006269206,-0.0011779562,-0.0009108406000000001,-0.0002849732,7.364,0,0
0.008860666,0.0005368334000000002,-0.0009875178,-0.001105455,0.0004446658,7.365,0,0
0.006699255999999999,0.0014001394000000003,-0.0005598624000000001,-0.001413111,3.2998600000000054e-05,7.366,0,0
0.004638502,0.0021306894000000004,-0.0008292728000000001,-0.0019656969999999998,-0.0004985728,7.367,0,0
0.0034778379999999996,0.002559654,-0.0008481248000000001,-0.002654654,-0.0005539766,7.368,0,0
0.000990058,0.0025683000000000004,-0.00035320120000000005,-0.003358648,-0.0006630243999999999,7.369,0,0
-0.0028708360000000003,0.002238464,-0.0005741216,-0.0041273939999999995,-0.00040629939999999997,7.37,0,0
-0.006315236,0.001885636,-0.0008595998,-0.00472021,4.6314600000000005e-05,7.371,0,0
-0.009604522,0.0016849960000000002,-0.00033561079999999997,-0.00524952,1.8350599999999973e-05,7.372,0,0
-0.011754548000000002,0.0017574740000000002,0.00031710320000000007,-0.005490086,-0.0003232472000000001,7.373,0,0
-0.01062594,0.001826482,0.0005887456000000001,-0.005514378,-0.00043870240000000015,7.374,0,0
-0.0055521400000000005,0.0018507720000000003,0.0009191962000000001,-0.005095708000000001,-0.0012437764000000002,7.375,0,0
0.0013158799999999997,0.0020118500000000004,0.001154854,-0.004456754,-0.0021278664,7.376,0,0
0.007166380000000001,0.0016903142,0.0008690468,-0.0035500340000000005,-0.0021516764,7.377,0,0
0.010834956,0.0010430842000000002,0.0005942068000000001,-0.002353547,-0.0023978724000000002,7.378,0,0
0.011251976000000002,0.00036681119999999994,0.0003909508,-0.0015320568000000002,-0.0029526360000000002,7.379,0,0
0.008980768400000002,-0.0004749928,6.788479999999999e-05,-0.0008607299800000001,-0.002954598,7.38,0,0
0.005953858400000001,-0.0012533428,6.99702e-05,6.586001999999992e-05,-0.002690314,7.381,0,0
0.0023796384,-0.001446391,0.0002804584,0.00100800002,-0.002733992,7.382,0,0
-0.0014771316000000004,-0.001722669,-9.434560000000001e-05,0.00135803302,-0.002436142,7.383,0,0
-0.0030150276000000006,-0.002252152,-0.0006926276,0.00257742282,-0.0017666382,7.384,0,0
-0.0023214100000000003,-0.002339914,-0.0008536996000000001,0.004332174,-0.00131528226,7.385,0,0
-0.0027351204000000007,-0.00280881,-0.0009992992000000002,0.005844346,-0.00098723606,7.386,0,0
-0.0039441604000000005,-0.0036330399999999997,-0.0013855352000000003,0.008960636000000001,-9.552005999999996e-05,7.387,0,0
-0.0045955504000000005,-0.0038854960000000004,-0.0015769972000000002,0.013867566,0.0015239279400000002,7.388,0,0
-0.0057993283999999996,-0.0038012700000000003,-0.0014521372000000001,0.01864788,0.00291116614,7.389,0,0
-0.0073044004,-0.0037398260000000003,-0.0010992952000000002,0.022492518,0.0039278702,7.39,0,0
-0.006491102,-0.00289377276,-0.0006227120000000001,0.02531292,0.004774256,7.391,0,0
-0.0032177480000000003,-0.0018225267599999999,0.0003903460000000001,0.02512988,0.0048813120000000005,7.392,0,0
-0.0006173808,-0.0016231927599999999,0.0017570900000000002,0.022322380000000003,0.004338294,7.393,0,0
0.00043752919999999983,-0.0017325827599999999,0.0026973459999999998,0.017217468000000003,0.0037421240000000003,7.394,0,0
-0.00035432879999999973,-0.00192719476,0.0029304400000000007,0.009739718000000001,0.002924808,7.395,0,0
-0.0032671468,-0.00218117,0.00241754,0.0013245980000000015,0.0020096326,7.396,0,0
-0.0059615168,-0.00162474,0.001104228,-0.008029122,0.0013497958000000003,7.397,0,0
-0.0067124900000000015,0.0007912160000000002,-0.0011423280000000002,-0.016903142,0.00036436580000000007,7.398,0,0
-0.006349212000000002,0.004825402000000001,-0.00371544,-0.02327195,-0.0008854362,7.399,0,0
-0.004988878000000001,0.008773940000000001,-0.006008746000000001,-0.02775868,-0.0015959662,7.4,0,0
-0.0023371240000000003,0.00983766,-0.007275458,-0.03046908,-0.0016508188,7.401,0,0
0.00024529800000000024,0.0091394508,-0.0066682646,-0.03005534,-0.0011979380000000002,7.402,0,0
