bandpass 1,bandpass 2,bandpass 3,bandpass 4,bandpass 5,time,onset,mark
0.0011431979999999998,-0.0002641248,0.0005428426,-0.0014439600000000002,-0.001826448,3.557,0,0
0.00012309999999999969,-0.00017055340000000002,0.0007255444,-0.001836656,-0.00339762,3.558,1,1
-0.0002512460000000003,2.7397999999999767e-06,0.0006707252,-0.0020194442000000005,-0.003843646,3.559,0,0
-0.0022127860000000004,-3.044220000000006e-05,0.0011256928,-0.0018524194,-0.00449729,3.56,0,0
-0.004496704000000001,0.0002581848,0.0010972238,-0.0010006794000000001,-0.005374544000000001,3.561,0,0
-0.004731160000000001,0.0005407724,0.0003785814,0.00012203259999999999,-0.003347714,3.562,0,0
-0.004144178,3.2072999999999976e-05,0.00024194759999999997,0.0010756726000000002,-0.001081794,3.563,0,0
-0.004545278000000001,-0.00034095040000000005,0.0004448798,0.0015891228000000002,-0.0004963892000000001,3.564,0,0
-0.0035569854,-0.0003534256,0.00012828562,0.0015130450000000002,0.0012646228,3.565,0,0
-0.0010113434000000002,-0.0005302918000000001,-7.750138e-05,0.0013296662000000002,0.0032806268,3.566,0,0
0.0003004806,-0.0002573814000000001,-0.00029370498000000003,0.0009180610000000001,0.0032192528,3.567,0,0
0.0015685606,0.0006131206,-0.0009186129800000001,0.0002283118,0.0034942868000000004,3.568,0,0
0.0042362706000000005,0.0013522448000000001,-0.00134714398,-0.0004573982,0.00452296,3.569,0,0
0.005556606,0.0018014580000000001,-0.0015178904,-0.0007863132000000001,0.003969772,3.57,0,0
0.004745984000000001,0.002442724,-0.0015924646000000002,-0.0010149788000000002,0.002100212,3.571,0,0
0.004730982000000001,0.002687216,-0.0014836446000000003,-0.001282492,0.0010086319999999998,3.572,0,0
0.004155108,0.002514642,-0.0003396466000000001,-0.0014351087999999999,-0.0006595700000000003,3.573,0,0
0.001238192,0.0024559440000000003,0.00035119139999999997,-0.0009753556000000001,-0.003640816,3.574,0,0
-0.001120734,0.002282994,0.00041060399999999996,-0.0002994036,-0.004849168,3.575,0,0
-0.002258526,0.0017390892,0.000977934,-5.984600000000044e-06,-0.004486812000000001,3.576,0,0
-0.004446104,0.0010607761999999999,0.0013291071999999998,0.0003873278,-0.004997988,3.577,0,0
-0.0064572580000000004,0.00045844420000000014,0.0010255872000000002,0.00069596,-0.004971746,3.578,0,0
-0.005943872,-0.00035562379999999995,0.0006715872,0.0005812348000000001,-0.002798206,3.579,0,0
-0.005140516,-0.0010823578000000002,0.0007988590000000001,7.81728e-05,-0.0014677979999999998,3.58,0,0
-0.005030754000000001,-0.0018036150000000002,0.0005047220000000001,-0.00011314980000000003,-0.0006166959999999999,3.581,0,0
-0.002983234,-0.002205546,-1.0585199999999981e-05,1.801420000000002e-05,0.0019335900000000002,3.582,0,0
-0.00018493600000000013,-0.00217675,-0.0005252512000000001,0.000200072,0.003719300000000001,3.583,0,0
0.0008018100000000001,-0.0023102580000000004,-0.0007421866,0.0005430260000000001,0.003946014000000001,3.584,0,0
0.002287406,-0.002369566,-0.0008151344,0.0009237624,0.005160826,3.585,0,0
0.004878246,-0.0020303900000000004,-0.0010022374000000001,0.0009723844000000001,0.00640882,3.586,0,0
0.005436608,-0.0016158212,-0.000688252,0.00019567639999999996,0.0054867660000000006,3.587,0,0
0.00522685,-0.0015408872,-0.0003250618,-0.0006038736000000001,0.0044038110000000005,3.588,0,0
0.0059367280000000005,-0.0015976331999999998,-0.0002138642,-0.0007815076000000001,0.0036739282,3.589,0,0
0.004492072000000001,-0.0016602352,-0.00016242020000000002,-0.0006927309999999999,0.0012992861999999998,3.59,0,0
0.0010735459999999999,-0.0017243732000000002,0.0002091358,-0.0004777649999999999,-0.0015994738,3.591,0,0
-0.0010187540000000002,-0.0020429560000000003,0.0006593664,0.00018199900000000007,-0.0027006758000000003,3.592,0,0
-0.003284472,-0.002097542,0.0008596282,0.0009391002,-0.0037549348,3.593,0,0
-0.00663691,-0.00156893368,0.0011109639999999999,0.0010630702,-0.0050940280000000004,3.594,0,0
-0.007998844,-0.00127479368,0.001465974,0.001063528,-0.004832664,3.595,0,0
-0.007325596,-0.00127137768,0.0013869932,0.0009744662000000001,-0.003733485,3.596,0,0
-0.007122106,-0.00109094168,0.0009576742000000001,0.0007333822000000002,-0.0031054775000000003,3.597,0,0
-0.006434002000000001,-0.0009681878800000001,0.0005286174,0.0005926138,-0.0019102938999999998,3.598,0,0
-0.0035226800000000003,-0.0013037342,-8.66606e-05,0.00026091860000000005,0.0008312841,3.599,0,0
-0.0007760740000000001,-0.0013572502000000002,-0.0007810926,7.609380000000003e-05,0.0026136741,3.6,0,0
0.0010265399999999998,-0.0008481134,-0.0013498858000000002,0.00012416640000000002,0.0033492131,3.601,0,0
0.003826052,-0.00014489739999999998,-0.0015199688,0.0003872704,0.0047496576,3.602,0,0
0.006611510000000001,0.0005639228,-0.0015134706000000003,0.0004177146,0.005728914,3.603,0,0
0.0070395580000000004,0.0013089968,-0.0012767892,0.00018798380000000002,0.004669099,3.604,0,0
0.006559402000000001,0.0020144428000000002,-0.0007144272000000001,2.0614199999999976e-05,0.0035645562,3.605,0,0
0.006355573999999999,0.002333502,-9.992059999999994e-05,-0.00043939460000000006,0.0029318086000000004,3.606,0,0
0.004074482,0.002278342,0.000295382,-0.0009573026000000001,0.0001928425999999997,3.607,0,0
0.0011175579999999998,0.001940122,0.0004786616,-0.0011061364,-0.0023575114,3.608,0,0
-0.00027855399999999987,0.0013990158000000003,0.0007773260000000001,-0.0006324220000000001,-0.0033766024000000004,3.609,0,0
-0.0020083180000000003,0.0006821018000000001,0.000962004,-0.00024739040000000003,-0.0050298136,3.61,0,0
-0.00427713,-8.422199999999941e-06,0.0008360604,0.00015741240000000003,-0.0065192320000000015,3.611,0,0
-0.004718020000000001,-0.0005323172,0.00044107980000000004,0.0006127354,-0.0055395800000000005,3.612,0,0
-0.004511036,-0.0008442701999999999,0.00038532256000000005,0.0005482762000000001,-0.0039633212,3.613,0,0
-0.005286768000000001,-0.0009648059999999999,0.00034770216000000004,0.0004038134000000001,-0.0031316270000000005,3.614,0,0
-0.004674454000000001,-0.0009249560000000001,4.941016000000004e-05,0.00024146900000000002,-0.0005204390000000001,3.615,0,0
-0.002540848,-0.0008953522,0.00010427236000000003,-5.709520000000002e-05,0.002907975,3.616,0,0
-0.0012603520000000002,-0.0010747932000000002,0.00012912215999999997,-0.00023346730000000003,0.0043407590000000005,3.617,0,0
0.000293518,-0.0008817024000000002,-6.803279999999999e-05,-8.996930000000003e-05,0.0049667822,3.618,0,0
0.0031940020000000005,-0.00019155240000000003,-0.00024088160000000004,-0.0003576109,0.006189458,3.619,0,0
0.005179734,0.0003823195999999999,-0.00036342160000000004,-0.0008695565,0.00582437,3.62,0,0
0.005632918,0.0009820917999999999,-0.0006573746,-0.0009546891,0.0038740200400000004,3.621,0,0
0.0060238800000000006,0.0015980018,-0.0008832044,-0.001267274,0.00279097404,3.622,0,0
0.005682676,0.001747422,-0.0007468074000000001,-0.0017629620000000003,0.0014101000400000003,3.623,0,0
0.003096688,0.0016849240000000002,-0.0007887902,-0.001512768,-0.00148704796,3.624,0,0
0.000727908,0.0014998414000000002,-0.0010005962000000001,-0.0005738200000000001,-0.0032881819600000003,3.625,0,0
-0.00043579600000000023,0.0012760528000000002,-0.0005276104000000001,0.00017316799999999997,-0.00379474,3.626,0,0
-0.0025139520000000003,0.0014150608,0.00016981560000000001,0.00071287,-0.005033732000000001,3.627,0,0
-0.004516698,0.0012503494,0.00033616019999999997,0.0013920574,-0.005158530000000001,3.628,0,0
-0.004496924,0.0006091394,0.00029710599999999994,0.0014914242,-0.0033626264,3.629,0,0
-0.0040688519999999995,0.00012820999999999997,0.000516352,0.0011471746,-0.0026536764000000003,3.63,0,0
-0.004361568,-0.0005070433999999999,0.000551604,0.0010120926000000002,-0.0026416284,3.631,0,0
-0.002704348,-0.0012465574,0.00013683560000000002,0.0008112990000000001,-0.0008308624000000002,3.632,0,0
-9.564199999999995e-05,-0.0013060668,9.20438e-05,0.0005007831999999999,0.0005856016,3.633,0,0
0.0013040720000000003,-0.0009455710000000001,0.0002011732,-8.145759999999994e-05,0.000661746,3.634,0,0
0.0030694620000000002,-0.0007916437999999999,-0.00018918680000000002,-0.000614346,0.0022295480000000005,3.635,0,0
0.005342996000000001,-0.00042886140000000003,-0.0006971426000000001,-0.0008567328,0.0038996780000000006,3.636,0,0
0.005947788000000001,0.00013564860000000003,-0.0006632464000000001,-0.000917246,0.0031696316000000006,3.637,0,0
0.005340944,0.0003614994,-0.0007160727999999999,-0.0007654121599999999,0.0021449736000000007,3.638,0,0
0.005226930000000001,0.0007583896,-0.0005688708,-0.0006360761600000001,0.0014533036000000006,3.639,0,0
0.0036380440000000004,0.0014716744000000002,0.00016369720000000004,-0.00052136616,-0.0012110244000000001,3.64,0,0
0.0004410099999999999,0.0016969037999999999,0.00043620660000000006,-0.0005886671600000001,-0.0039327444,3.641,0,0
-0.001781798,0.001387148,0.00028431280000000005,-0.0007237057600000002,-0.004642810000000001,3.642,0,0
-0.003571592,0.0010698139999999999,0.00033077600000000013,-0.0007805672000000001,-0.0059189640000000005,3.643,0,0
-0.006166578,0.0007468268000000001,0.000639667,-0.00022114120000000002,-0.0072104940000000005,3.644,0,0
-0.00742427,0.0003957724,0.0004430568,0.0007747828000000001,-0.006589096,3.645,0,0
-0.006473874000000001,0.0002610966,0.0003537832,0.0009579706000000001,-0.0051360668,3.646,0,0
-0.005921616,0.00016802000000000003,0.0010356792,0.0007382980000000001,-0.0045760128,3.647,0,0
-0.005622768,6.185360000000002e-05,0.0011203284,0.0008684852000000002,-0.0031450501999999996,3.648,0,0
-0.00309442,-0.00043062920000000004,0.0003982264,0.0008392932,-0.00016083619999999977,3.649,0,0
-0.0011527299999999998,-0.0009441548000000001,7.786059999999995e-05,-0.00014132480000000002,0.0016201258,3.65,0,0
-0.0004136960000000001,-0.0009845888,7.671860000000001e-05,-0.0008775708000000001,0.0026027546000000003,3.651,0,0
0.001637458,-0.0010561884000000001,-0.0004213636,-0.0006715080000000001,0.0042238246,3.652,0,0
0.003873922,-0.0008016102,-0.0006426234000000001,-0.0010048712000000001,0.005574332,3.653,0,0
0.004495082,-0.00014694220000000002,-0.00040206620000000004,-0.0014876032,0.004019074,3.654,0,0
0.004556204,0.0002034958,-0.0003209348,-0.0010352834,0.003516552000000001,3.655,0,0
0.005286256000000001,0.00010328179999999999,0.00013965119999999993,-0.0005129913999999999,0.0023044700000000007,3.656,0,0
0.003028264000000001,0.00039112740000000004,0.0006036994,-0.0005175341999999999,0.0005710380000000001,3.657,0,0
0.0015940906,0.0009233236000000001,0.0013305586000000001,6.127780000000005e-05,0.006309682,3.658,0,0
-0.0006962633999999998,0.0009146476000000001,0.0016577294000000003,0.0007572998000000001,0.0141272,3.659,0,0
-0.0015905494,0.0007960328000000001,0.00016752400000000006,0.0005061120000000001,0.019323523999999998,3.66,0,0
0.007910066600000001,0.0013051928,-0.001818622,2.6208000000000058e-05,0.02507097,3.661,0,0
0.018907506600000002,0.0019683572,-0.0032643280000000004,-0.000792168,0.027202162,3.662,0,0
0.024218560000000004,0.0020293212000000002,-0.004561854000000001,-0.00223731,0.018103822,3.663,0,0
0.027475136000000004,0.0023469952000000002,-0.0047472446000000005,-0.0032988600000000002,0.005900222,3.664,0,0
0.025229900000000003,0.002970724,-0.0023588326,-0.0032881610000000004,-0.005720638,3.665,0,0
0.0084189,0.00296479,0.0005576334,-0.0024615410000000002,-0.019431358000000003,3.666,0,0
-0.011600720000000002,0.002204428,0.0029093214,-0.0008526630000000005,-0.02918906,3.667,0,0
-0.027162960000000003,0.0007717900000000002,0.0050650334,0.001209163,-0.03348832,3.668,0,0
-0.04006702,-0.0010199160000000003,0.006309572,0.0032130030000000003,-0.03430858,3.669,0,0
-0.04689084,-0.0027965380000000003,0.006537848000000001,0.005006724,-0.031876,3.67,0,0
-0.046883320000000006,-0.004418608000000001,0.005612486000000001,0.006313092,-0.023606636982,3.671,0,0
-0.03956662,-0.005892532000000001,0.004164189800000001,0.007098646,-0.012269416982000002,3.672,0,0
-0.028602522000000002,-0.006555684000000001,0.0020313698,0.007235534000000001,-0.0010442569820000008,3.673,0,0
-0.013796102000000003,-0.006311312,-0.0006583241999999999,0.006375528,0.011303123018000003,3.674,0,0
0.0037651579999999994,-0.005865464,-0.0031430902,0.004434472,0.022440603018000004,3.675,0,0
0.019759058000000003,-0.0047961116,-0.0052706582,0.0017735500000000005,0.028693700000000003,3.676,0,0
0.03272169800000001,-0.0026774016,-0.006841796000000001,-0.0010428800000000002,0.03082532,3.677,0,0
0.042485800000000004,-0.0002382275999999997,-0.007486682000000001,-0.00356403,0.03022804,3.678,0,0
0.04629574000000001,0.0017096344000000004,-0.006689564,-0.005237034000000001,0.024134922,3.679,0,0
0.042456320000000006,0.0037263844000000003,-0.0052740808,-0.005844476,0.013931301999999998,3.68,0,0
0.034213906,0.005123356000000001,-0.0032423008000000003,-0.005643914000000001,0.0037903219999999983,3.681,0,0
0.021716646000000003,0.0053243000000000006,-0.0005599708000000002,-0.004716256,-0.007028658,3.682,0,0
0.005393525999999999,0.00519091,0.0017860792,-0.0032068648,-0.018223198,3.683,0,0
-0.010120494,0.00444976,0.0035945252000000004,-0.0016682448,-0.02544458,3.684,0,0
-0.022598854,0.0030598864000000005,0.004932288,-0.00026107879999999993,-0.028251979999999996,3.685,0,0
-0.03255828,0.0013821964,0.00586004,0.0015312472000000002,-0.029169579999999997,3.686,0,0
-0.037567920000000005,-0.00038955960000000014,0.0057828540000000005,0.0031496872,-0.026100999999999996,3.687,0,0
-0.0356698,-0.0023692315999999996,0.004765515800000001,0.004332206000000001,-0.017969328,3.688,0,0
-0.029288820000000004,-0.0040615236,0.0034253892000000005,0.0051895280000000005,-0.008604088,3.689,0,0
-0.020266862000000004,-0.00505007,0.0014712152000000006,0.0052695,0.0009272320000000014,3.69,0,0
-0.007538982000000002,-0.0053191,-0.0010237088000000002,0.0044036048,0.011629612000000001,3.691,0,0
0.006653917999999999,-0.004658886,-0.0032820988,0.0026901247999999997,0.020040212,3.692,0,0
0.018104598,-0.00313161,-0.0046436326,0.0006195768000000002,0.023821420000000003,3.693,0,0
0.027148218000000002,-0.0011515660000000001,-0.005316442000000001,-0.0015420211999999998,0.025386360000000004,3.694,0,0
0.033796480000000004,0.0006041720000000003,-0.0054161980000000005,-0.0035367592000000005,0.02444276,3.695,0,0
0.03478718,0.002109234,-0.004491554000000001,-0.00514147,0.01890338,3.696,0,0
0.029928040000000003,0.0032996020000000004,-0.003089320000000001,-0.005763346000000001,0.01071038,3.697,0,0
0.022387840000000003,0.0036004280000000006,-0.0014578340000000003,-0.005743488000000001,0.002931799999999999,3.698,0,0
0.011680920000000003,0.0032607480000000004,0.0001896099999999999,-0.005233534000000001,-0.005641259999999999,3.699,0,0
-0.002071739999999999,0.0029663800000000002,0.0018212380000000002,-0.00392569,-0.014282379999999997,3.7,0,0
-0.014452340000000001,0.002421756,0.00327429,-0.002206614,-0.0187671,3.701,0,0
-0.02385854,0.0015415878000000001,0.004224234,-0.00048483200000000004,-0.02027814,3.702,0,0
-0.030639060000000003,0.0005010977999999999,0.0047753760000000004,0.0010100500000000002,-0.02056426,3.703,0,0
-0.03291444,-0.0005863982,0.004696512,0.002344744,-0.016764996,3.704,0,0
-0.029236940000000003,-0.0017655962,0.00433149,0.0028714179999999997,-0.009565708000000001,3.705,0,0
-0.022397634000000003,-0.0026693362000000005,0.0031379000000000003,0.003093774,-0.003172128,3.706,0,0
-0.013293740000000002,-0.0028692394000000006,0.0012643080000000002,0.003110104,0.004141952,3.707,0,0
-0.001373300000000001,-0.0027716354000000003,-0.0006983899999999999,0.0023253418,0.012821452,3.708,0,0
0.009804300000000002,-0.0018998874,-0.00223592,0.0011337898000000001,0.017844348000000003,3.709,0,0
0.01863134,-0.00046171540000000005,-0.003373648,6.377799999999958e-06,0.01976562,3.71,0,0
0.025684494000000002,0.0007515166,-0.004305138,-0.0013143862000000001,0.02114676,3.711,0,0
0.029745820000000003,0.0015665520000000001,-0.004041772000000001,-0.0028549122000000003,0.019344312,3.712,0,0
0.028711880000000002,0.002171034,-0.0032393780000000002,-0.00364633,0.012704406000000001,3.713,0,0
0.024016544,0.0025543280000000002,-0.0024755900000000006,-0.003929378,0.005207886000000001,3.714,0,0
0.017249568,0.0025032100000000005,-0.0013917920000000002,-0.0035200816,-0.0019787140000000016,3.715,0,0
0.007347068,0.002334054,5.720999999999992e-05,-0.0022592555999999997,-0.010276234000000002,3.716,0,0
-0.003938232000000001,0.001940598,0.001424886,-0.0008998135999999997,-0.016448686000000004,3.717,0,0
-0.013263932,0.0014576554000000001,0.002610976,0.0005710524000000002,-0.018594060000000003,3.718,0,0
-0.020101976,0.0007298713999999999,0.0035249620000000004,0.0022025984,-0.01891392,3.719,0,0
-0.025291920000000002,-0.00014655260000000003,0.003808754,0.003536412,-0.0176448,3.72,0,0
-0.02616558,-0.0011236386,0.0036298740000000004,0.0042425660000000006,-0.013027590200000001,3.721,0,0
-0.022515264,-0.0022213246000000004,0.003128182,0.004757794000000001,-0.0069624122,3.722,0,0
-0.017705882000000003,-0.002790746,0.0021234068000000003,0.004787198,-0.0012244321999999998,3.723,0,0
-0.010540621999999998,-0.003204806,0.0006520128000000002,0.0039131572,0.005504207800000001,3.724,0,0
-0.0005154219999999998,-0.003213034,-0.0005675452000000001,0.0024270152,0.0121092078,3.725,0,0
0.008361478,-0.002320566,-0.0016028392,0.0005785771999999998,0.015741458,3.726,0,0
0.014989442000000002,-0.0010636500000000002,-0.0027508192000000003,-0.0009413588,0.01685572,3.727,0,0
0.02084808,0.00034809399999999996,-0.003368766,-0.0023386407999999997,0.016688,3.728,0,0
0.02345192,0.001938376,-0.003227634,-0.0036502059999999996,0.013618872,3.729,0,0
0.021105948000000003,0.003029556,-0.0030440800000000002,-0.004189026,0.007834316000000001,3.73,0,0
0.016733312,0.003436276,-0.0024765774000000003,-0.004128804,0.0022061759999999994,3.731,0,0
0.010785018,0.0035839120000000003,-0.0011829753999999999,-0.003928066,-0.003340664,3.732,0,0
0.0021613580000000004,0.003255484,0.00011059260000000016,-0.0032494926000000007,-0.009478164,3.733,0,0
-0.006337342,0.0025843794,0.0010113586,-0.0017404166000000005,-0.013482956,3.734,0,0
-0.01246059,0.00188461546,0.0017820906,-0.00027086860000000016,-0.014844979999999999,3.735,0,0
-0.017322334,0.0007849174599999998,0.0026405680000000003,0.0009588254000000001,-0.01532156,3.736,0,0
-0.0204211,-0.0004153805399999999,0.00279889,0.0021515854000000003,-0.013770260000000001,3.737,0,0
-0.01931998,-0.0012197225400000001,0.0023947622,0.0028116780000000006,-0.008994374000000001,3.738,0,0
-0.015567756,-0.00192539194,0.0022776182,0.0026176074000000002,-0.00359472,3.739,0,0
-0.011343272000000001,-0.002372658,0.001668265,0.0021127434000000004,0.0015408799999999997,3.74,0,0
-0.0051129899999999995,-0.0022382900000000004,0.00015824300000000019,0.0015495694000000001,0.007390900000000001,3.741,0,0
0.00249729,-0.0018364980000000002,-0.000937439,0.0004456614000000001,0.01156622,3.742,0,0
0.00861043,-0.0017037260000000002,-0.0017558832,-0.0005599685999999999,0.012953274,3.743,0,0
0.013317686000000002,-0.0015237400000000002,-0.0027007372,-0.0008572539999999999,0.013184000000000001,3.744,0,0
0.017388241999999998,-0.0010250026,-0.003073702,-0.001009231,0.012433762000000001,3.745,0,0
0.018261440000000004,-0.0005713354,-0.0029219120000000005,-0.0010831637999999999,0.008897818600000001,3.746,0,0
0.015471830000000002,-0.00045804640000000007,-0.0025422592000000003,-0.0006902412,0.0036259986000000003,3.747,0,0
0.011315694,-0.0005320584,-0.0019191532000000003,-0.00018008460000000005,-0.0009646013999999995,3.748,0,0
0.00532859,-0.0007220884000000001,-0.0009917672000000002,0.0005447214,-0.0060246214,3.749,0,0
-0.00228989,-0.0011595638,0.00024025479999999986,0.0015715044000000002,-0.0111897234,3.75,0,0
-0.00882193,-0.0014854906,0.0014420248,0.0024175592,-0.01318768,3.751,0,0
-0.013359460000000002,-0.0014872595999999999,0.00227198,0.0033240006000000003,-0.012803972000000002,3.752,0,0
-0.016978284,-0.0011876815999999999,0.0030352340000000004,0.003922572000000001,-0.012478788000000001,3.753,0,0
-0.01818472,-0.0008816416000000002,0.0030031780000000004,0.0037790620000000006,-0.00988057,3.754,0,0
-0.015775034,-0.0007858696000000001,0.0022377004,0.00328529,-0.0049381300000000015,3.755,0,0
-0.012280876000000001,-0.0008500860000000001,0.0017366864,0.0024816048000000004,-0.0012835159999999997,3.756,0,0
-0.00792981,-0.0008895472000000001,0.00101011,0.0014259084,0.00245592,3.757,0,0
-0.0012048700000000007,-0.0008971798000000001,-0.00017012000000000006,0.0003081143999999999,0.007613896,3.758,0,0
0.00529549,-0.0003522398,-0.001030218,-0.0009257236,0.010542478,3.759,0,0
0.009658564000000001,0.0005513862000000001,-0.0015304303999999999,-0.0022776016,0.011139512,3.76,0,0
0.013677106000000001,0.0011822382,-0.0020040584,-0.0033661584000000003,0.012159337999999999,3.761,0,0
0.016459960000000003,0.0020123874,-0.0020103820000000002,-0.004151292,0.011550378000000002,3.762,0,0
0.015528288,0.0028821240000000007,-0.0014610296000000002,-0.004423326,0.007595962,3.763,0,0
0.012554254,0.0033731160000000002,-0.0008496040000000001,-0.004304382000000001,0.0037359060000000006,3.764,0,0
0.0091838664,0.003370868000000001,-0.0002243038,-0.0038714860000000004,0.0006605180000000001,3.765,0,0
0.004026918399999999,0.0032168840000000006,0.0005187862000000001,-0.003128218,-0.003717986,3.766,0,0
-0.0020372016000000004,0.0028257140000000004,0.0008904282,-0.002381315,-0.007091350000000001,3.767,0,0
-0.0064565896,0.0020093324,0.0010895538,-0.0012924650000000002,-0.007857358,3.768,0,0
-0.0096380756,0.0009698884000000002,0.0013608602,-0.000181939,-0.008085512000000001,3.769,0,0
-0.012464368,2.559039999999995e-05,0.001561632,0.0008271089999999999,-0.008119484000000001,3.77,0,0
-0.012828352,-0.0006635216,0.0013007896,0.001868553,-0.0061303519999999995,3.771,0,0
-0.010678002,-0.0015757776000000002,0.0008489328,0.002534792,-0.003065411999999999,3.772,0,0
-0.008678366000000002,-0.002317042,0.0005694992000000001,0.0025516000000000002,-0.0008496619999999999,3.773,0,0
-0.005689082,-0.0024671980000000003,-0.00019122280000000006,0.0025384280000000006,0.002156606,3.774,0,0
-0.000651062,-0.0020878672000000003,-0.0009509988,0.002100015,0.005792632,3.775,0,0
0.00349963,-0.0013348432,-0.0011501462,0.0010507390000000002,0.007265306,3.776,0,0
0.0063050599999999995,-0.0004239992,-0.0013384334000000001,0.000326721,0.0074218999999999995,3.777,0,0
0.009745724,0.0005982628000000001,-0.0015463828,-0.00029009699999999996,0.008369106,3.778,0,0
0.01193718,0.0013693548,-0.0010748768000000003,-0.0009315858000000001,0.00742256,3.779,0,0
0.010798806,0.001631954,-0.000632651,-0.0014614208,0.003604684,3.78,0,0
0.008867178,0.001486908,-0.00046974460000000017,-0.0017416948,0.0009629819999999996,3.781,0,0
0.0066021454,0.0013301562,-7.558300000000002e-05,-0.0018329888,-0.0013469160000000003,3.782,0,0
0.0020350793999999997,0.0010861795999999998,0.00018436280000000004,-0.0016030288,-0.005399208000000001,3.783,0,0
-0.0027662206000000004,0.0005738773999999999,0.000311594,-0.0013540972000000001,-0.007790022000000001,3.784,0,0
-0.0056741306000000005,0.00013916980000000002,0.0002788958,-0.0009847864000000002,-0.007819368,3.785,0,0
-0.008097362600000001,-0.0002589382,0.0004105344,-0.00020431960000000005,-0.008470798000000002,3.786,0,0
-0.009971652000000001,-0.000405063,0.0008041988,0.0005199364000000001,-0.008439428,3.787,0,0
-0.009199582000000001,-0.00031453159999999993,0.000870575,0.0010288444,-0.005991062200000001,3.788,0,0
-0.0072414620000000015,-0.0004282734,0.0008897893999999999,0.0012281156,-0.003726882200000001,3.789,0,0
-0.005681028000000001,-0.00030236516000000003,0.001057559,0.0015292008000000001,-0.0018792262000000004,3.79,0,0
-0.0028812500000000006,0.00020956084000000002,0.0006339237999999999,0.0018143240000000002,0.0013174358,3.791,0,0
0.000874058,0.00050404544,-0.0001414262,0.0015276866,0.004406589800000001,3.792,0,0
0.0034479560000000003,0.0006385506400000001,-0.0007234792,0.0009593246000000002,0.005848972000000001,3.793,0,0
0.005246708,0.00088402664,-0.0013508348,0.0006945855400000002,0.006832734,3.794,0,0
0.007421916000000001,0.0009317959999999999,-0.001850936,0.0003539515400000001,0.007500326000000001,3.795,0,0
0.008008298,0.0008253122,-0.0016652056,-0.00038280046000000004,0.006173397000000001,3.796,0,0
0.0063744476,0.0008752162000000001,-0.0012008370000000002,-0.00068741106,0.0035360829999999998,3.797,0,0
0.0045678676,0.0007269048000000001,-0.0008106728,-0.0006050782400000001,0.001309569,3.798,0,0
0.0025524856000000004,0.00039939280000000004,5.620920000000006e-05,-0.0006731599800000001,-0.001367731,3.799,0,0
-0.0008139223999999998,0.0003328128,0.0009363272000000001,-0.00030353398,-0.004632957,3.8,0,0
-0.0037401684,-0.0003278714,0.0010588560000000002,0.00042376802,-0.005887832,3.801,0,0
-0.004786490000000001,-0.0016018794000000002,0.0010430686,0.00099431602,-0.005718304,3.802,0,0
-0.006137144000000001,-0.002286654,0.0015588584,0.0015734292,-0.006115478000000001,3.803,0,0
-0.006861110000000001,-0.002726376,0.0013207032000000002,0.002029894,-0.005329918,3.804,0,0
-0.0053181432,-0.003254828,0.0007484258000000001,0.00198009,-0.0026384900000000003,3.805,0,0
-0.0041898132,-0.003295384,0.0010241086000000001,0.0015212914,-0.0010374220000000005,3.806,0,0
-0.0035270172,-0.003235806,0.0009506480000000001,0.0010100248000000003,0.0002506539999999999,3.807,0,0
-0.0008767492000000001,-0.003365838,0.000357616,0.0003433698,0.0032033600000000006,3.808,0,0
0.0020313368,-0.003093668,-0.00013583680000000002,-0.0004054362000000001,0.005040046,3.809,0,0
0.0036126920000000002,-0.0027520476,-0.0005751594,-0.0009290322000000001,0.005442242000000001,3.81,0,0
0.00572468,-0.0021307614,-0.0011284874,-0.0011631396000000003,0.006034138000000001,3.811,0,0
0.007555078,-0.0009455314,-0.00116273534,-0.0014688010000000003,0.0059435320000000005,3.812,0,0
0.007151560000000001,0.00035096260000000006,-0.0008802719399999999,-0.0017396500000000001,0.0037744140000000007,3.813,0,0
0.0054757370000000005,0.0014796786,-0.00054218014,-0.0015049376,0.0016380560000000004,3.814,0,0
0.0038784132000000008,0.0020334882,0.00015851726000000002,-0.0013133776000000001,0.0006711932800000002,3.815,0,0
0.0014873232,0.002372284,0.0006889632600000001,-0.0011154280000000001,-0.00110126072,3.816,0,0
-0.0015279768000000002,0.0027477680000000003,0.0007904436,-0.000436092,-0.0027110267200000002,3.817,0,0
-0.0030910568000000003,0.0029112900000000004,0.000533705,0.00010184700000000002,-0.00250733412,3.818,0,0
-0.0038944718000000003,0.0028632680000000004,0.00041636319999999996,0.0001020312,-0.00202215612,3.819,0,0
-0.005226726,0.0028878740000000003,0.0003676164,0.00013931640000000003,-0.0027543894000000005,3.82,0,0
-0.005236266000000001,0.0027752460000000003,-9.573200000000026e-06,0.00030961840000000003,-0.0020500594000000005,3.821,0,0
-0.0037147968000000005,0.0022966904000000002,-0.00022160040000000005,4.7126400000000024e-05,-0.0006778354000000001,3.822,0,0
-0.0031294348000000007,0.0017265924000000005,-4.4418000000000495e-06,-1.6824799999999975e-05,-0.0013269900000000001,3.823,0,0
-0.0022999932000000002,0.0013789164000000003,-0.00023851180000000006,0.00037245260000000005,-0.0010921404,3.824,0,0
0.00034585280000000006,0.0010394514000000002,-0.0009627484000000002,0.0005316484,0.0007113415999999999,3.825,0,0
0.0022948508000000005,0.0005882088000000001,-0.0011143508000000001,0.0004947279400000001,0.0008907279999999998,3.826,0,0
0.0030049616000000006,0.0001987864,-0.0011353358000000002,0.00047614094000000004,0.0005206317999999999,3.827,0,0
0.0045663496,-0.0004046736,-0.0014160222,0.00025422054000000005,0.0022277358,3.828,0,0
0.005716090000000001,-0.0007984582,-0.0009006782000000002,-0.00024515746,0.0025127201999999996,3.829,0,0
0.00465863,-0.0008302150400000001,6.635379999999985e-05,-0.0006437464600000001,0.0005436482,3.83,0,0
0.0035349998000000003,-0.00095998244,0.0003412632,-0.0009322216,0.00040943619999999985,3.831,0,0
0.0029699338,-0.00095242444,0.00048679739999999994,-0.0010060490000000002,0.0004041829999999999,3.832,0,0
0.0010843978000000002,-0.00059546624,0.0007919964,-0.0010968338,-0.0014482050000000002,3.833,0,0
-0.0010361521999999999,-0.00062729564,0.0006411532,-0.0011566498,-0.0020755269999999998,3.834,0,0
-0.0019686402,-0.0009015998,0.0003885258,-0.0010247114000000001,-0.0012194016,3.835,0,0
-0.0029071820000000003,-0.0006840246,0.0005201954,-0.0007916654,-0.001733492,3.836,0,0
-0.004259936000000001,-0.00042296779999999995,0.0005725907999999999,-0.00023666700000000003,-0.0025003726,3.837,0,0
-0.004057326000000001,-0.00042610799999999997,0.0002755138,0.0003459084,-0.0012772546,3.838,0,0
-0.00306037,-0.0005854040000000001,8.434460000000002e-05,0.0008947744,-0.0004945565999999999,3.839,0,0
-0.003010008,-0.000728986,-5.613119999999999e-05,0.00149695,-0.000911658,3.84,0,0
-0.0020065826000000004,-0.0010212772000000002,-0.0003583942,0.0017546960000000003,0.0001784780000000001,3.841,0,0
-0.00014305060000000002,-0.0015468160000000001,-0.000631148,0.0013222436,0.001960054,3.842,0,0
0.0002859087999999999,-0.001665326,-0.000706051,0.001047845,0.0019374640000000003,3.843,0,0
0.0004541476,-0.0012252592,-0.0004332683999999999,0.0008434364,0.0016171660000000002,3.844,0,0
0.0022069716000000005,-0.00082156886,-0.00016232919999999994,0.0003891788,0.002775372,3.845,0,0
0.0029778622000000005,-0.00050518686,-5.035719999999994e-05,0.0003133996,0.00240194,3.846,0,0
0.0021408078,-9.360600000000169e-07,7.770260000000001e-05,0.00022117460000000002,0.0003603619999999999,3.847,0,0
0.0022543632,0.00020044254,0.000217036,1.8723600000000032e-05,-4.70262000000001e-05,3.848,0,0
0.0020696846000000002,3.450533999999999e-05,0.00017269299999999997,-0.00023202679999999998,2.361359999999998e-05,3.849,0,0
-2.7723399999999817e-05,9.590699999999999e-05,-3.8838000000000024e-05,-0.0005208112,-0.0011254104,3.85,0,0
-0.0013528154,0.00033988499999999995,-0.00023596800000000003,-0.0008619019999999999,-0.0012818788,3.851,0,0
-0.001089553,0.0002544216,-0.0003459648,-0.0010868746,-0.000221275,3.852,0,0
-0.0018527478,-3.650300000000004e-05,-0.0001512202,-0.001095558,-0.0006138288000000001,3.853,0,0
-0.002429302,7.63940000000002e-06,2.0488600000000026e-05,-0.0009902922,-0.0008106662000000001,3.854,0,0
-0.0013957173200000001,-0.00017998520000000003,0.0002286956,-0.0009378282,0.00021212779999999994,3.855,0,0
-0.0014816173200000002,-0.00039262132000000003,0.0005291376,-0.0009828042,-0.0003113738000000001,3.856,0,0
-0.0024382233200000002,0.00024770928,0.0005824812,-0.0007228532,-0.0009930256000000002,3.857,0,0
-0.0015836553200000002,0.0008576732800000001,0.0004382395999999999,-0.0006934910000000001,5.7398400000000036e-05,3.858,0,0
-0.0004763593200000001,0.00087588004,0.0002522082,-0.0009943278000000002,0.00020949479999999999,3.859,0,0
-0.00019133000000000008,0.0010038775800000003,-4.873220000000001e-05,-0.0011262878,-0.0006211772,3.86,0,0
0.001032558,0.0010692557,-0.0005570222,-0.0010272374,0.00024162280000000001,3.861,0,0
0.00274478,0.0006083951,-0.0005697008,-0.0009518402,0.0013589628,3.862,0,0
0.0030030160000000003,0.0002769135,-0.0003445932,-0.0008801536,0.0004498388,3.863,0,0
0.002684088,0.00033844494,-0.0005087092,-0.0004441250000000001,5.029399999999999e-05,3.864,0,0
0.002959552,0.0003951676,-0.0003969648,0.00023711099999999997,0.000872382,3.865,0,0
0.0022595382000000002,0.0004950192,0.0003515772,0.0008348206,0.0002454344,3.866,0,0
0.0009479642,0.0006978038,0.0006294688,0.0011715544000000001,-0.0005857536,3.867,0,0
0.0008331342,0.0005557422000000001,0.0003969536,0.0014064006000000001,0.0005302484,3.868,0,0
0.0011293561999999998,0.00032809120000000004,0.0006178346,0.001914234,0.0012801104,3.869,0,0
0.0003114222,0.00026192760000000006,0.0007443464,0.002230068,0.00011091239999999993,3.87,0,0
-0.00028705399999999997,-5.0184399999999966e-05,0.0004064824000000001,0.002122024,0.00032930160000000004,3.871,0,0
0.000264818,-0.0003982904,0.00023125340000000009,0.00200309,0.0010115176000000002,3.872,0,0
-0.0002320864,-0.00022266180000000003,0.00023602780000000004,0.001661647,-0.0006141763999999999,3.873,0,0
-0.0013627703999999998,0.000258611,-6.478480000000001e-05,0.0014061149999999999,-0.0012383492,3.874,0,0
-0.0010048024,0.00026625698,-0.00034666340000000007,0.0012852430000000001,-0.0001698712,3.875,0,0
-0.00046712980000000005,0.00014558538,-0.00037442700000000004,0.0011192896,-0.0005630028,3.876,0,0
-0.0010112698000000002,0.00025803058,-0.0001823616,0.0010698176,-0.0011316856,3.877,0,0
-0.0007085034000000001,8.401698e-05,-0.000185682,0.0011496526000000001,0.00034780440000000003,3.878,0,0
0.00048661259999999986,-0.00048252702,-0.00014358680000000002,0.0007728562,0.0009117512000000002,3.879,0,0
0.00047088399999999997,-0.0004595568,4.3247400000000016e-05,0.00022177280000000002,3.7309200000000087e-05,3.88,0,0
0.0004334361999999999,0.00017644520000000002,-0.000127609,0.0001851748,0.0007266032000000001,3.881,0,0
0.0009373591999999999,0.00023073520000000002,-0.000349533,3.46334e-05,0.0013841780000000002,3.882,0,0
0.0006435837999999999,0.0003115374,-0.000381156,-0.0001450578,6.894799999999999e-05,3.883,0,0
0.0001514876,0.0008092834000000001,-0.0002039346,-0.0004438514,-0.000647428,3.884,0,0
0.0003522822,0.0004338792,-4.655800000000001e-05,-0.00064616,-5.118300000000003e-05,3.885,0,0
0.0003495742,-0.0004524648000000001,0.00035625340000000003,-0.0009239748,-0.0006426509999999999,3.886,0,0
-0.00034291679999999997,-0.0005387062,0.0005874912000000001,-0.0014654594000000003,-0.0013682110000000003,3.887,0,0
-0.00029883079999999993,-0.00037580200000000006,0.00040245340000000007,-0.0016046622,-0.00045658000000000005,3.888,0,0
-0.00047237439999999993,-0.0005933367999999999,0.00019210300000000003,-0.0017022422,-0.00010130660000000002,3.889,0,0
-0.0019239344000000001,-0.0002883914,-7.870499999999996e-05,-0.0017074162,-0.0009760436000000001,3.89,0,0
-0.0025513792,0.0003009048,-0.00022965400000000003,-0.001295526,-0.0008152248000000001,3.891,0,0
-0.0022506452000000004,0.00030865460000000004,-0.00015394240000000004,-0.0009391728000000001,-0.00018929880000000002,3.892,0,0
-0.0028707278000000003,0.0002768094,9.835276000000002e-05,-0.0009405748000000001,-0.0010874598,3.893,0,0
-0.003053506,0.0004180128,4.974756000000001e-05,-0.0004686448000000001,-0.0016604632000000001,3.894,0,0
-0.001457956,0.0006390954,-0.00010288763999999998,5.082719999999991e-05,-0.0003038832000000001,3.895,0,0
-0.0006033109999999999,0.0006909784,-5.914763999999997e-05,-0.0001640106000000001,-0.00014192920000000004,3.896,0,0
-0.000828583,0.0005421,-0.00034662004,-0.00018465080000000007,-0.0008558272000000003,3.897,0,0
0.0001419450000000001,0.0003830716,-0.000518545,0.0001750218,0.0007917128,3.898,0,0
0.0010796290000000001,0.00010579260000000001,-4.622099999999999e-05,0.00012857800000000001,0.0017103628,3.899,0,0
0.0006481887600000001,-0.0003820854000000001,0.000249849,-0.0001403854,0.0005009088,3.9,0,0
0.0010593857600000001,-0.0008132226000000002,-0.0001729114,1.3810400000000006e-05,0.0009571100000000001,3.901,0,0
0.00233871176,-0.0009600118,-0.0002258572,2.5719400000000003e-05,0.0018691320000000001,3.902,0,0
0.00212889416,-0.001060491,0.0001937126,-0.00016915280000000002,0.0004343680000000001,3.903,0,0
0.00152499156,-0.0010877104000000001,-6.319769999999998e-05,0.00014163099999999997,-0.00025550399999999993,3.904,0,0
0.0019130538,-0.0009498594000000001,-0.0001468165,0.0003203422,0.0008636380000000002,3.905,0,0
0.0011315038,-0.0008634054000000001,0.0004625095,2.4299199999999993e-05,0.0003309620000000001,3.906,0,0
-0.0004858522000000001,-0.0009128854000000001,0.0007208093000000001,0.00021600659999999997,-0.000718222,3.907,0,0
-0.0008540026000000001,-0.0009547038,0.00026643930000000004,0.00048762240000000003,6.898599999999999e-05,3.908,0,0
-0.000944033,-0.0010288596,0.0002058598000000001,0.00022814240000000003,0.00021781199999999998,3.909,0,0
-0.0018101770000000003,-0.0007008330000000001,0.0006001458,-4.737399999999993e-06,-0.0008957120000000001,3.91,0,0
-0.0019757990000000003,-0.0003500768000000001,0.00036389060000000006,2.901460000000002e-05,-0.000612394,3.911,0,0
-0.0006214690000000001,-0.00018158600000000002,5.407399999999971e-06,-5.4768199999999995e-05,0.0004494799999999999,3.912,0,0
-0.00032350360000000015,0.00021584699999999997,0.00011443039999999999,-0.0001408796,3.5320599999999914e-05,3.913,0,0
-0.0007576386,0.0006382846,5.3900399999999996e-05,0.0001956304,-8.232740000000007e-05,3.914,0,0
0.00015084339999999998,0.000817737,-0.0005858736,0.0004423008,0.0008520066000000002,3.915,0,0
0.00043060480000000007,0.0009703528000000001,-0.0008548504000000001,0.00036483819999999994,0.00020947259999999998,3.916,0,0
-0.0006162851999999999,0.0014047760000000002,-0.0009034688000000001,0.0003482102,-0.0010479334,3.917,0,0
-0.0003409285999999999,0.001455624,-0.0009409448,0.00043702239999999994,-0.00041105999999999993,3.918,0,0
0.0007426914000000001,0.0012673166,-0.0005862550000000002,0.00010205439999999998,0.00037002800000000006,3.919,0,0
0.000204731,0.0010929664,-0.00031637260000000003,-0.00011318180000000003,-0.0004469560000000002,3.92,0,0
2.4957599999999973e-05,0.0008197572,-0.00012436860000000007,0.00030804180000000006,-0.00034248200000000007,3.921,0,0
0.0007983115999999999,0.00030062299999999997,0.00018205659999999998,0.00038851300000000005,0.00044138939999999996,3.922,0,0
0.00016068359999999994,-0.000225841,0.0007070316000000001,7.000600000000006e-05,-0.0007191946000000001,3.923,0,0
-0.0010032364000000002,-0.00042174020000000005,0.0007635216000000001,0.00012997560000000004,-0.0015459346,3.924,0,0
-0.0009174140000000001,-0.000901388,0.0005844188000000001,-1.8084799999999946e-05,-0.0007233106,3.925,0,0
-0.00080968,-0.0011862708000000002,0.0007438392000000001,-0.0007121288,-0.0008980145999999999,3.926,0,0
-0.001574188,-0.001064529,0.000551411,-0.000561963,-0.001467912,3.927,0,0
-0.0010957106,-0.0010542110000000002,-3.413019999999999e-05,-1.3376999999999964e-05,-0.00028852999999999984,3.928,0,0
2.432339999999995e-05,-0.0009005984000000002,-8.667419999999998e-05,-0.0002462873999999999,0.0004169780000000002,3.929,0,0
-0.0001927646,-0.0007401232000000002,0.0003842022000000001,-0.00014632139999999996,-0.00024877199999999986,3.93,0,0
0.00010643900000000002,-0.0005995036000000001,0.00033067260000000005,0.0005881206000000001,0.0006341360000000002,3.931,0,0
0.001585573,-0.00039628120000000013,0.0005013768,0.00038744100000000003,0.002016626,3.932,0,0
0.0020373376,-0.00016522320000000003,0.000894412,-0.00011566779999999999,0.0016773148000000001,3.933,0,0
0.0021194116,0.00010365079999999997,0.00046801680000000003,0.0001770824,0.0017608068,3.934,0,0
0.0037398276000000005,0.0005543456,-0.0002672012000000001,5.8288599999999996e-05,0.0029429288,3.935,0,0
0.004804040000000001,0.000950726,-0.0007041160000000001,-0.0005751354,0.0025329872,3.936,0,0
0.004103888000000001,0.0009742048000000001,-0.0010093432,-0.0006850392000000001,0.0011422391999999998,3.937,0,0
0.003924822,0.0011673328000000001,-0.0012830232,-0.0004703116,0.0011029927999999997,3.938,0,0
0.0037707040000000006,0.0011265588000000002,-0.0010487184,-0.0005667192,0.00020355480000000005,3.939,0,0
0.0017505760000000002,0.0006225048000000001,-0.000722176,-0.00026888120000000007,-0.0022359652000000004,3.94,0,0
-0.00017385800000000015,0.00012607080000000002,-0.0003939178,0.0005163548,-0.0031050936000000004,3.941,0,0
-0.000727552,-0.0001282426,9.51142e-05,0.0006286386,-0.0029390116000000003,3.942,0,0
-0.00204513,-0.00028120061999999997,0.0001245682,0.0003950196,-0.003878328,3.943,0,0
-0.003542944,-0.0005701976200000001,0.0001491442,0.0006844198000000001,-0.003712164,3.944,0,0
-0.0033403580000000003,-0.00050776182,0.0004135562,0.0008886438,-0.001490192,3.945,0,0
-0.0031705660000000005,-0.00039704482,0.00045989044,0.0005834176,-0.00037384799999999987,3.946,0,0
-0.0033791580000000006,-0.0005021938199999999,0.00030056264,0.0006361422,-0.00010804199999999986,3.947,0,0
-0.0020465540000000003,-0.0006386343999999999,0.00024427004,0.0006734178,0.0013789700000000002,3.948,0,0
-0.0005349840000000002,-0.0006961648,0.00010455624,7.32737999999999e-05,0.002115744,3.949,0,0
-0.000368556,-0.00048342420000000005,-0.00044623016000000005,-0.00018239380000000004,0.00111419,3.95,0,0
0.000448544,-0.0003178272000000001,-0.0008179866,-0.00020641200000000006,0.001580896,3.951,0,0
0.0019288660000000002,-3.886759999999998e-05,-0.0009381480000000001,-0.0005414446000000001,0.0030086040000000002,3.952,0,0
0.0018605220000000003,0.000460159,-0.0009163604000000001,-0.0009448740000000001,0.0024900474000000006,3.953,0,0
0.001468297,0.0008987244000000001,-0.0007760208,-0.0011016099999999998,0.0017824894,3.954,0,0
0.002351929,0.001168118,-0.00029520640000000014,-0.0013108884,0.0019911448,3.955,0,0
0.0022364370000000004,0.0013584880000000001,0.0003536456,-0.0016459462,0.00034897279999999997,3.956,0,0
0.00043170299999999997,0.0014218354,0.0006028763999999999,-0.001251678,-0.0023138372,3.957,0,0
-0.0003334909999999999,0.0011750008,0.0010272094000000002,-0.0006055801999999999,-0.0027949966000000003,3.958,0,0
-0.0007419899999999999,0.0006624816,0.0015012760000000002,-0.0003067294000000001,-0.0029146306000000003,3.959,0,0
-0.0026270900000000003,-0.00018783039999999986,0.0017203776000000001,9.378799999999965e-06,-0.00377157,3.96,0,0
-0.003825164,-0.0009229904,0.0014311336,0.00028157999999999997,-0.0028522744000000003,3.961,0,0
-0.0031609971999999997,-0.0012738058,0.0008694139999999998,2.0277799999999943e-05,-0.0008844383999999999,3.962,0,0
-0.0030827612,-0.0013382698,0.0005738446,2.5884199999999944e-05,-0.00041388279999999986,3.963,0,0
-0.0030175851999999998,-0.0008154646000000001,3.325947999999996e-05,0.0006430594,0.0002644572000000002,3.964,0,0
-0.0006930172,7.954940000000008e-05,-0.00052824652,0.0008594732,0.0024272072,3.965,0,0
0.0010579088,0.0006788538,-0.00044408732000000004,0.0007936478000000001,0.0029723896000000004,3.966,0,0
0.0011104026000000001,0.0008998108,-0.00016168151999999998,0.00095938158,0.0024059504,3.967,0,0
0.0022064006,0.0006113233999999999,-0.00025343272,0.00087510498,0.0033865448000000003,3.968,0,0
0.0036592786000000004,0.00018028099999999994,-0.00022462439999999998,0.00016105298,0.0040239588000000005,3.969,0,0
0.0034934586000000003,0.0005141630000000001,-0.0003286464,-0.00028177142000000005,0.0028918296000000005,3.97,0,0
0.0034348706000000002,0.0011706126000000001,-0.0008759216000000001,-0.00027527582000000004,0.0026000096,3.971,0,0
0.004173136,0.0013627456,-0.0010007814000000002,-0.00048655360000000007,0.0030551688,3.972,0,0
0.00296468,0.0015173290000000002,-0.0009431537800000001,-0.0007522712000000001,0.0009457547999999999,3.973,0,0
0.000693424,0.0015720014,-0.00106500838,-0.0007330852000000001,-0.0013052151999999998,3.974,0,0
-0.0005306220000000002,0.0008327726000000001,-0.0006326289800000001,-0.00077227,-0.0014287238,3.975,0,0
-0.002167944,2.06866e-05,0.00026589901999999997,-0.0008125572,-0.0023662118000000003,3.976,0,0
-0.004428826,-0.00015681780000000001,0.00076770702,-0.00045179560000000005,-0.0037312158000000002,3.977,0,0
-0.005213792,-4.527800000000001e-05,0.0007565911000000001,0.0001852684000000001,-0.0026918406000000002,3.978,0,0
-0.004821674,-0.000177156,0.0009867765000000001,0.0007579624,-0.0014725522000000003,3.979,0,0
-0.004795006,-0.00041390320000000004,0.0009663131,0.0009612942,-0.0020257164000000005,3.98,0,0
-0.0037542562000000006,-0.0008327532,0.0002764231,0.0007904574000000001,-0.0011304164000000001,3.981,0,0
-0.0013864062000000003,-0.0012306128000000001,3.565829999999994e-05,0.0005194594,0.0005003216000000001,3.982,0,0
0.0003324338000000001,-0.001079592,2.6858000000000006e-06,0.0003025714,0.0005747742000000001,3.983,0,0
0.0014499678000000002,-0.0010396036,-0.00034702380000000007,9.377959999999999e-05,0.0009649638,3.984,0,0
0.0030180398,-0.0010260016000000001,-0.00041722340000000007,-0.00012751460000000003,0.0023073518000000003,3.985,0,0
0.004246720000000001,-0.0006651840000000001,-4.771219999999998e-05,-0.000126487,0.0021816696,3.986,0,0
0.003986856,-0.0003740748,-0.00014635039999999998,1.8964600000000045e-05,0.0008302636000000001,3.987,0,0
0.003809942,-0.0004904648000000001,-0.0002860422,-0.0003154678,0.0008246816000000002,3.988,0,0
0.0035337680000000005,-0.0002761482,0.0001372034,-0.0007483119999999999,0.000455662,3.989,0,0
0.0014080159999999998,0.0003778178,0.0003086782,-0.000737965,-0.0013536260000000001,3.99,0,0
-0.0006994120000000001,0.0006956182,0.0001687108,-0.00046314460000000007,-0.0018912358,3.991,0,0
-0.0017575140000000004,0.0007324292,0.00013190500000000003,-0.000363458,-0.0012801322000000003,3.992,0,0
-0.003358802,0.0006299068,0.0002861022,-0.00020059239999999998,-0.0023286960000000003,3.993,0,0
-0.004713638000000001,0.00033555380000000005,1.0477400000000023e-05,0.0003639876,-0.0031861024000000003,3.994,0,0
-0.0039098368,-0.0005378102000000001,-0.00033368640000000006,0.0006926464,-0.0017837304,3.995,0,0
-0.0031381736,-0.0012604382,-0.00019938940000000004,0.0006720352,-0.0014597818,3.996,0,0
-0.0034908715999999998,-0.0014367204,8.985739999999996e-05,0.0008011494,-0.0020856014,3.997,0,0
-0.0024390336000000004,-0.0016064784,9.193739999999996e-05,0.0010896322000000002,-0.0007904854000000002,3.998,0,0
-0.0006400576000000001,-0.0018192144000000001,-0.00016931580000000002,0.0010508242000000002,0.00040093459999999997,3.999,0,0
-0.00027079879999999994,-0.0020026704,-0.0003098052000000001,0.001266578,-9.41468e-05,4.0,0,0
0.00019875399999999993,-0.0019719804,-0.0005439976,0.0015800020000000003,0.0006846746,4.001,0,0
0.0021210260000000002,-0.0022280624,-0.0006607660000000001,0.001045326,0.0023135106,4.002,0,0
0.0033052360000000005,-0.002370032,-0.0006035354,0.00043491400000000006,0.0021741746000000003,4.003,0,0
0.0033375020000000004,-0.0017676954,-0.0006803014,-2.3200000000000998e-06,0.0018991738302000002,4.004,0,0
0.0038800980000000002,-0.001050282,-0.0006482434000000001,-0.0006468400000000001,0.0022530912302,4.005,0,0
0.0035669526000000006,-0.0003221680000000001,-0.0004442942,-0.0010746740000000003,0.0011401352302000004,4.006,0,0
0.0016042106000000006,0.0007541500000000001,-0.0005754558000000001,-0.0009829848000000002,-0.0009742747698,4.007,0,0
8.663660000000006e-05,0.001637154,-0.0005101464,-0.0008788328,-0.0018474327698000002,4.008,0,0
-0.0011630574,0.0019128694000000003,0.00024240560000000005,-0.0008506882000000001,-0.002509318,4.009,0,0
-0.0030999374,0.0022288300000000002,0.0008512316000000001,-0.00045541860000000006,-0.0037764160000000003,4.01,0,0
-0.004149742,0.0023108820000000006,0.001080292,-0.00012553259999999996,-0.0038219960000000002,4.011,0,0
-0.003788972,0.0018750838,0.0012653858000000002,-8.346000000000004e-05,-0.0027650904000000006,4.012,0,0
-0.003945516,0.0014358895999999999,0.0014852338000000001,0.000164884,-0.0022952556000000006,4.013,0,0
-0.004189052,0.0009585294,0.0012389412,0.0006477794,-0.0014104735999999997,4.014,0,0
-0.0026653400000000004,0.00047041440000000003,0.0006709812,0.0005609184,0.0008532224,4.015,0,0
-0.0007193660000000004,0.0001826092,0.0003425156,0.00025122240000000003,0.0022504103999999997,4.016,0,0
0.0005141979999999997,-3.4104999999999986e-05,-0.00013050620000000003,0.0005389026,0.0028596707999999998,4.017,0,0
0.00246409,-0.00036685280000000003,-0.0007021962,0.0004979906,0.004576518,4.018,0,0
0.004801584,-0.0002394952,-0.0009884306,0.0002956354,0.00553832,4.019,0,0
0.005275716000000001,-2.7985999999999972e-06,-0.0009125732,0.0005265828000000001,0.004350454720000001,4.02,0,0
0.0048250920000000004,-0.00015804899999999998,-0.0009615586000000001,0.00036616759999999997,0.0033526373200000003,4.021,0,0
0.004857696000000001,7.442380000000003e-05,-0.0008874426,4.156139999999999e-05,0.0027265485200000006,4.022,0,0
0.0034781874000000003,0.0002917018,-0.0003533846,-9.919819999999998e-05,0.0003525785200000001,4.023,0,0
0.0011571034000000002,0.00020123450000000004,-3.331179999999998e-05,-0.000427199,-0.0017389674800000002,4.024,0,0
0.00018934339999999994,0.0001944477,0.00017980320000000004,-0.0006193816,-0.0018463174000000002,4.025,0,0
-0.0008849986,8.293730000000002e-05,0.0005536682000000001,-0.00027603979999999995,-0.002697498,4.026,0,0
-0.0030408466,-0.0002023875,0.00082207106,0.0001485504000000001,-0.0037598092000000003,4.027,0,0
-0.0035732700000000004,-0.00013606830000000003,0.00044741266,0.00041544200000000013,-0.0027302168000000004,4.028,0,0
-0.0026510098000000005,5.53098e-05,0.00033564206,0.0006624632000000001,-0.0016414266,4.029,0,0
-0.0028691998,7.82054e-05,0.00053236366,0.0007070242000000001,-0.0017502572000000001,4.03,0,0
-0.0024951496000000005,0.0005700954,0.00017540906,0.0005169622,-0.0004146792,4.031,0,0
-0.0002561556,0.0009572638,0.0001246208,1.234420000000003e-05,0.0019682308,4.032,0,0
0.0011219324,0.0010434586000000001,0.0004652152,-0.00046349380000000004,0.0025413284,4.033,0,0
0.0018078162,0.0010842644,0.00039854040000000004,-0.000894867,0.0028939222000000002,4.034,0,0
0.0037631801999999997,0.0010894064000000001,-0.00010910560000000003,-0.0013075974,0.004146642000000001,4.035,0,0
0.005057948,0.0012747384000000002,-0.00022133040000000002,-0.0016756840000000002,0.00422029,4.036,0,0
0.004545282,0.0014588184,-0.000398963,-0.001816252,0.0026124380000000003,4.037,0,0
0.004260268,0.0013792626000000002,-0.001003271,-0.0015015512000000001,0.001636262,4.038,0,0
0.003707222,0.00114873568,-0.0009139225999999999,-0.0012904508000000001,0.000752366,4.039,0,0
0.001290884,0.0010073367000000002,-0.0005417782,-0.0011377703999999999,-0.001784464,4.04,0,0
-0.0009498719999999999,0.00048775409999999995,-0.0006697748000000001,-0.0007055533999999999,-0.003315234,4.041,0,0
-0.002032506,-0.00027639190000000005,-0.00030595160000000004,-0.00011049039999999998,-0.003585,4.042,0,0
-0.0037124159999999996,-0.0006184101,0.0005718123999999999,-3.938539999999999e-05,-0.004510082,4.043,0,0
-0.0052745380000000005,-0.0008452471800000001,0.0008568536000000001,0.0001896538,-0.004944156,4.044,0,0
-0.0050542700000000005,-0.0013663286000000002,0.000765883,0.0005351634,-0.0032060320000000006,4.045,0,0
-0.004192412,-0.0016345300000000001,0.0010080016000000001,0.0005376657999999999,-0.0015890740000000002,4.046,0,0
-0.003880428,-0.0015146948,0.0007917811999999999,0.0006702648,-0.0009690862000000001,4.047,0,0
-0.0025526212,-0.0016961008,-9.908280000000007e-05,0.0007642580000000001,0.0012353318,4.048,0,0
-0.0004926672000000001,-0.0019503688,-0.00043781228000000006,0.0008240310000000001,0.0032514298000000004,4.049,0,0
0.0003899648,-0.0016555908,-0.00035790748,0.000784321,0.0031686560000000006,4.05,0,0
0.0011378388000000002,-0.0014866184,-0.0004643948800000001,0.0008882120000000001,0.0032252020000000004,4.051,0,0
0.0028065768,-0.0014704199999999998,-0.0006536596800000001,0.0005094054,0.0039838542,4.052,0,0
0.003831816,-0.001311422,-0.00031757408,-6.721360000000004e-05,0.0029964406,4.053,0,0
0.00374314,-0.0008079696000000002,-0.0003109389,-0.00039063020000000006,0.0016040700000000002,4.054,0,0
0.004245694,0.00013107039999999998,-0.0005658721000000001,-0.0007066502,0.0019145718000000002,4.055,0,0
0.004240904,0.0007676340000000001,-0.00021524150000000006,-0.0010289446000000002,0.0009466818,4.056,0,0
0.0024752740000000004,0.0012235924,4.735833699999999e-05,-0.0008516974,-0.0016077402,4.057,0,0
0.0009262600000000001,0.0017835164000000003,0.000367874737,7.87966e-05,-0.0026596346,4.058,0,0
-0.00021559799999999995,0.0021048040000000005,0.000785115037,0.0006824906000000001,-0.0035699539999999993,4.059,0,0
-0.002506368,0.0016267480000000001,0.0009216140770000001,0.0010282526,-0.005590652,4.06,0,0
-0.004310202,0.0011445840000000001,0.0006648076770000001,0.001240877,-0.005793106,4.061,0,0
-0.004132848000000001,0.0009278658000000001,0.0007325692400000001,0.0012584770000000002,-0.003921536000000001,4.062,0,0
-0.004156922,0.0003841718000000001,0.0006292160400000001,0.0010887930000000002,-0.002749256,4.063,0,0
-0.004230978000000001,-0.0003048122,4.209084000000003e-05,0.0008104464000000001,-0.001302572,4.064,0,0
-0.0020930980000000003,-0.0009256282,-0.00019596959999999998,0.0005280388,0.0015955120000000003,4.065,0,0
0.00033668,-0.0015433542,-0.00018749519999999994,0.0003118434,0.0031665779999999998,4.066,0,0
0.0011430380000000003,-0.0020954940000000003,-0.00024542629999999997,4.271139999999999e-05,0.003448336,4.067,0,0
0.002869828,-0.0019973618,-0.0005853675,-0.000292225,0.0045201600000000005,4.068,0,0
0.005366308,-0.0015350854000000002,-0.0006910403000000001,-0.0007780444,0.004990578000000001,4.069,0,0
0.005760512000000001,-0.0010247554000000002,-0.0006496781000000001,-0.0014542508,0.0030842979999999996,4.07,0,0
0.005224972,-0.000217572,-0.0008856959000000002,-0.0014875578,0.0016557199999999998,4.071,0,0
0.005415996,0.000250088,-0.0013789702,-0.0013688424,0.0012757566000000003,4.072,0,0
0.0038790460000000006,0.00012183380000000001,-0.0014213514,-0.0014315634,-0.0012108914,4.073,0,0
0.00042544200000000027,0.00020310339999999997,-0.0008796034,-0.0007744434000000002,-0.0032650414,4.074,0,0
-0.001756796,0.0003469534,-0.0005136024000000001,0.0002619266,-0.0028260978,4.075,0,0
-0.003189904,0.000308722,-1.1696399999999978e-05,0.0005482332,-0.0030370218,4.076,0,0
-0.005092958,0.0003653018,0.0009495955999999999,0.0008167471999999999,-0.003946886399999999,4.077,0,0
-0.005985664,0.0005767582000000001,0.0014490852,0.0014654186,-0.0028622918,4.078,0,0
-0.005230676,0.0006432742000000001,0.0012266021999999999,0.0015285786,-0.0014675184,4.079,0,0
-0.005084162000000001,0.0005633192000000001,0.0012621849999999999,0.0012614568,-0.001378382,4.08,0,0
-0.005234822,0.00045267120000000004,0.001045129,0.0010836361999999999,-0.00011567400000000007,4.081,0,0
-0.003664466,0.00024772940000000005,0.00035537500000000006,0.0007532654,0.002045304,4.082,0,0
-0.002125702,8.935500000000006e-05,-4.425599999999999e-05,0.00024328179999999998,0.0028185454,4.083,0,0
-0.0011932584,-0.00024635039999999997,-0.00045779100000000004,-0.00034509220000000004,0.0033816720000000005,4.084,0,0
0.0007417576,-0.0004088086,-0.001083563,-0.0007109604000000001,0.004807058,4.085,0,0
0.0029596236,-0.0003335438,-0.001035144,-0.0007633010000000001,0.005075628,4.086,0,0
0.0035398395999999997,-0.0001536458,-0.000508576,-0.000816964,0.0037216124200000005,4.087,0,0
0.0040402616,3.5408199999999984e-05,-0.00017217500000000005,-0.0008692784,0.0030187674200000004,4.088,0,0
0.00466766,-0.0001745344,0.0005685110000000001,-0.0007603866,0.0022282046200000002,4.089,0,0
0.0032091400000000005,-8.982319999999998e-05,0.001210051,-0.00031919660000000004,-0.00029261938000000015,4.09,0,0
0.0011645279999999997,0.00022835599999999998,0.0010946732,0.00011225799999999995,-0.0020074453800000003,4.091,0,0
-0.00019128800000000018,0.0002530862,0.0008467113999999999,0.00025091366,-0.0020898495999999997,4.092,0,0
-0.0020986140000000004,0.0002750602,0.0006798783999999999,0.00022973685999999998,-0.0030125266,4.093,0,0
-0.004074324000000001,0.00045659680000000003,0.00015798140000000002,0.00036166306,-0.0042041858,4.094,0,0
-0.004235054,0.00031775579999999997,-2.24944e-05,0.00026128304,-0.0035475178,4.095,0,0
-0.003943002,-0.00021867000000000002,0.00033418840000000005,-0.00014835136,-0.0030130198,4.096,0,0
-0.004232556,-0.00023714140000000004,0.00016859160000000004,-0.00020434761999999998,-0.003361402,4.097,0,0
-0.0032273678,-0.00012125500000000003,-0.0002238414,-0.00015525382,-0.001705976,4.098,0,0
-0.0012419997999999998,6.149019999999998e-05,-0.00022211260000000002,-0.00021131442,0.0006416319999999999,4.099,0,0
0.00010424020000000041,0.0004305732,-0.0003053202,-0.0004145136,0.0012132154,4.1,0,0
0.0018387042000000005,0.0006627092,-0.0009813582,-0.0004429384,0.0020767754,4.101,0,0
0.0045064062,0.0008253834000000001,-0.0013657836000000002,-0.000627138,0.0034770574,4.102,0,0
0.006210806,0.0007307114,-0.0011399770000000001,-0.0008267466,0.0029317854000000003,4.103,0,0
0.006737394000000001,0.0007501748000000001,-0.0011899840000000003,-0.0005040660000000001,0.0020571814,4.104,0,0
0.007286992000000001,0.0007564808,-0.0012202008000000001,-0.0004226398,0.0022868180000000004,4.105,0,0
0.006938171999999999,0.0005102158,-0.0005893968000000001,-0.0004851186,0.000650582,4.106,0,0
0.004450456,0.00030110680000000004,0.00014755719999999994,-0.00033414340000000004,-0.002233436,4.107,0,0
0.001791126,0.00021747500000000007,0.00043104060000000004,-0.0003118264,-0.003376888,4.108,0,0
-0.00021631800000000028,-0.00021858419999999998,0.0008001158,-0.0005620064,-0.004379826000000001,4.109,0,0
-0.00322275,-0.00056802678,0.00133954,-0.000293364,-0.005888666000000001,4.11,0,0
-0.005723837999999999,-0.00034108798,0.0014547639999999999,0.00037637000000000006,-0.00566634,4.111,0,0
-0.005556424,-0.00025256257999999997,0.0012832898,0.0008811428000000002,-0.00375295046,4.112,0,0
-0.005173924,-0.00021842558000000002,0.0013967018,0.0014337294000000003,-0.0027819596600000005,4.113,0,0
-0.0053148579999999996,4.1553620000000016e-05,0.0012449538,0.0016963114000000004,-0.0020951678600000002,4.114,0,0
-0.00321047,0.00011254000000000003,0.0005261858,0.00180473,0.0003889641400000002,4.115,0,0
-0.000814418,-8.843999999999999e-05,0.00018478330000000004,0.0017472200000000003,0.00210012814,4.116,0,0
0.00011641799999999997,-2.7918399999999987e-05,-1.1298899999999967e-05,0.0015927740000000001,0.0023786426,4.117,0,0
0.002149106,0.00016066000000000002,-0.00046709410000000007,0.0013690498,0.0037935798000000003,4.118,0,0
0.00482122,0.00016917320000000002,-0.0008342741,0.00044303379999999985,0.0051221700000000005,4.119,0,0
0.005508562,1.951540000000002e-05,-0.0010199821,-0.0005351062000000001,0.0037782533999999998,4.12,0,0
0.005508304,-0.0003758206,-0.0012415076,-0.0010712336000000002,0.0024122994,4.121,0,0
0.00596323,-0.0007408956000000001,-0.0012977422,-0.0016835876000000003,0.0026795774,4.122,0,0
0.004496566000000001,-0.0008683636000000001,-0.0008194490000000001,-0.0021751834000000004,0.0012987994000000001,4.123,0,0
0.001537036,-0.0009537168,-5.9959e-05,-0.0017586974000000004,-0.0008101386000000002,4.124,0,0
-0.00045566400000000005,-0.0008886568000000001,0.0005237208,-0.0008574924,-0.0007292144000000002,4.125,0,0
-0.002321734,-0.00037460080000000005,0.0008995812,-0.0005289634,-0.0006440364000000001,4.126,0,0
-0.00497107,5.412399999999996e-06,0.0010918992,-0.00045363140000000005,-0.0020628264,4.127,0,0
-0.006183532,-0.00013233000000000003,0.0005148812,-5.0737800000000055e-05,-0.0021072312000000003,4.128,0,0
-0.0056513480000000005,2.7753679999999987e-05,-6.133100000000005e-05,0.0005684862000000001,-0.0006544771999999998,4.129,0,0
-0.00548956,0.00028952568,-0.00018949540000000006,0.0006182252,-0.00032351079999999995,4.13,0,0
-0.004856066000000001,0.00021854028,-0.00048084440000000005,0.0004819768,0.0005088292000000001,4.131,0,0
-0.002593876,0.00012427927999999995,-0.0005941294000000001,0.0008274818,0.0025253992000000003,4.132,0,0
-0.000556344,0.00033784128,-0.0003010470000000001,0.0005898634000000001,0.003213714,4.133,0,0
0.0008129680000000001,0.0004910752,-7.185540000000004e-05,-0.00012730660000000003,0.0033519220000000002,4.134,0,0
0.003144214,0.00030993260000000006,-0.00038183480000000006,-0.0005293372,0.004561704000000001,4.135,0,0
0.005395644000000001,0.00025784820000000004,-0.0007909482000000002,-0.0006601072,0.0051041260000000005,4.136,0,0
0.005802776000000001,0.00032663060000000005,-0.0008559728,-0.0009001276000000001,0.0037995914000000003,4.137,0,0
0.005445018,0.0009264490000000002,-0.0009353410000000001,-0.0011699168,0.0029214354,4.138,0,0
0.0048005894,0.0014290902000000001,-0.001067625,-0.0011404188,0.0019637294,4.139,0,0
0.0024008894000000004,0.0016860068000000001,-0.0004657770000000001,-0.0010064942,-0.0011177386000000003,4.14,0,0
-0.0006459026,0.0020187786000000004,0.000454081,-0.0007282924000000001,-0.0036511126000000004,4.141,0,0
-0.0025992986,0.0018438846,0.0007355064000000001,-0.0002410610000000001,-0.004301512,4.142,0,0
-0.0045052506,0.0011658124000000001,0.0006652072,0.00045999699999999997,-0.005575294000000001,4.143,0,0
-0.006281864000000001,0.0004758524,0.000532709,0.001245541,-0.006467266,4.144,0,0
-0.006213164000000001,-5.142399999999973e-06,0.00023678036,0.001759827,-0.00472348,4.145,0,0
-0.005530826000000001,-0.0005935744000000001,5.9685600000000064e-06,0.001790062,-0.0032706360000000004,4.146,0,0
-0.0056398360000000005,-0.0008889270000000001,-9.155663999999999e-05,0.00180386,-0.0029504960000000004,4.147,0,0
-0.00449477,-0.0011264928,-0.00011411224,0.002001924,-0.0005130859999999998,4.148,0,0
-0.002153568,-0.0015404148000000002,0.00015067896000000002,0.001807224,0.001876436,4.149,0,0
-0.0009487760000000001,-0.0016481160000000003,0.0002834302,0.0014645656000000001,0.0019297840000000001,4.15,0,0
0.00019055800000000007,-0.0014445268,-6.23388e-05,0.0012012998000000001,0.002952212,4.151,0,0
0.002817528,-0.0012521412,-0.0002424012,0.000657452,0.004567258,4.152,0,0
0.004388122,-0.0010427782000000001,1.5470599999999973e-05,0.00011673300000000002,0.0036482165800000004,4.153,0,0
0.004301968,-0.0005739664,4.698659999999996e-05,-0.00018394600000000002,0.0019326565800000003,4.154,0,0
0.004856772,-0.0003307564,0.00010520999999999998,-0.00031593686000000004,0.0015316615800000004,4.155,0,0
0.004721446,-0.0004186156,0.0006522728,-0.00035383726000000007,3.4507580000000095e-05,4.156,0,0
0.0026332120000000002,-0.00044786580000000004,0.0010764836,-0.00049679746,-0.00247992042,4.157,0,0
0.0009984219999999997,-0.0003296782,0.0009408733440000001,-0.00051621766,-0.0028394070000000004,4.158,0,0
4.510399999999986e-05,-0.00015807,0.000677255344,-0.00057219506,-0.0026297130000000005,4.159,0,0
-0.0022132420000000002,-0.00045599999999999997,0.00041817554399999995,-0.0006564495999999999,-0.003874946,4.16,0,0
-0.0037384460000000003,-0.0008375000000000001,-8.077185599999996e-05,-0.0004460626,-0.004015022,4.161,0,0
-0.0032148520000000007,-0.0009733154000000001,-0.000495538056,-0.0003623046,-0.0024933896,4.162,0,0
-0.003129266,-0.001611318,-0.0003689994,-0.0006762194000000001,-0.0024761616,4.163,0,0
-0.003129504,-0.0023839,-0.00021556379999999997,-0.000992973,-0.0024910376,4.164,0,0
-0.001111332,-0.002451996,-0.00029119759999999997,-0.0011101392,0.0001014824000000001,4.165,0,0
0.0009753359999999999,-0.0019892248,3.094480000000001e-05,-0.0012128992,0.0019097364000000001,4.166,0,0
0.0014470020000000002,-0.0016692574399999997,-1.1200599999999989e-05,-0.0009506323,0.002142704,4.167,0,0
0.0031015760000000004,-0.0011975690400000002,-0.0005570041999999999,-0.0004255633,0.003705856,4.168,0,0
0.005610882,-0.00025479504000000005,-0.0005987677999999999,-0.0002703873,0.004987346,4.169,0,0
0.006040756,0.00061076896,-0.0005659721999999999,-0.0006151593,0.003952694,4.17,0,0
0.0057780900000000005,0.00103364176,-0.0009175148,-0.0009122201000000001,0.0029997152,4.171,0,0
0.006256042000000001,0.0015135844,-0.0007998656,-0.000976968,0.0028896272,4.172,0,0
0.0049504398,0.0023412420000000003,-0.0002622618,-0.0010413654,0.0010672132,4.173,0,0
0.0017589137999999998,0.00271245,3.2977999999999805e-06,-0.0008126994000000001,-0.0012695468000000001,4.174,0,0
-0.00027322420000000015,0.0028197100000000004,0.000210665,-0.0003486654000000001,-0.0019286448,4.175,0,0
-0.0021696302,0.0029596,0.0005522206,7.33446e-05,-0.002588808,4.176,0,0
-0.005044010200000001,0.002790062,0.0010177810000000002,0.00022710360000000003,-0.0036409420000000003,4.177,0,0
-0.006433174000000001,0.002397966,0.0011633192000000002,0.000335962,-0.0031724124000000005,4.178,0,0
-0.005904564000000001,0.0017533237999999998,0.0011364200000000002,0.0007715160000000001,-0.00186597884,4.179,0,0
-0.005543526,0.00117014144,0.0013036708,0.001110298,-0.00189985884,4.18,0,0
-0.0045435020000000005,0.00100181144,0.0008621168000000003,0.0012857,-0.0013688766,4.181,0,0
-0.0017732100000000003,0.0009267454400000001,6.962880000000007e-05,0.001646752,0.0008353074,4.182,0,0
0.000291694,0.00081512744,-0.00024645280000000003,0.001625895,0.0018631137999999998,4.183,0,0
0.001364592,0.0009529376400000001,-0.0007995716,0.001290693,0.00224426024,4.184,0,0
0.0033702280000000003,0.001100736,-0.0014086396,0.0011197295999999999,0.00406381624,4.185,0,0
0.005297334,0.00113922,-0.0011855182,0.0006525098,0.004910851999999999,4.186,0,0
0.005423046,0.0010821752,-0.0009146950000000001,2.0825799999999952e-05,0.003081426,4.187,0,0
0.005381946,0.0008239276000000001,-0.0009799222000000001,-0.0003294312,0.001859026,4.188,0,0
0.005519086,0.0005123113999999999,-0.0005649862000000001,-0.0006504212,0.001277768,4.189,0,0
0.003434558,1.7475400000000006e-05,-7.201999999999664e-07,-0.0008825166000000001,-0.0012222760000000002,4.19,0,0
0.0004394999999999998,-0.0006820206,0.0001946178,-0.0005756610000000001,-0.0031141260000000005,4.191,0,0
-0.0012148740000000003,-0.0014035578,0.0005177578,-0.0003083322000000001,-0.003038484,4.192,0,0
-0.0032288820000000006,-0.0021054042,0.0010394806000000002,-2.060300000000002e-05,-0.0034380879999999997,4.193,0,0
-0.005870358000000001,-0.002732694,0.0011651356,0.00043133500000000003,-0.003666682,4.194,0,0
-0.006555846000000001,-0.0030993,0.001002559,0.000458767,-0.0017641940000000002,4.195,0,0
-0.006346612000000001,-0.003491528,0.0010312568,0.000430541,-0.000322368,4.196,0,0
-0.006657120000000001,-0.0037138900000000005,0.0009337810000000001,0.0006544802,-0.000484634,4.197,0,0
-0.0053306638000000005,-0.0031863300000000002,0.0004627266,0.0007247358000000001,0.0010275460000000003,4.198,0,0
-0.0025538818000000007,-0.0023590378,0.00027262959999999997,0.0003712358000000001,0.002735148,4.199,0,0
-0.0006384238000000002,-0.0014701678000000004,0.00029200259999999996,4.442459999999993e-05,0.002277154,4.2,0,0
0.0014738842,-0.0003889558,-0.0003045666,-0.00032664920000000005,0.00304017,4.201,0,0
0.0044179422,0.0005136772,-0.000829422,-0.0007640862,0.005151328,4.202,0,0
0.0058956,0.0007669046,-0.0009595476,-0.0013754230000000002,0.0045388592,4.203,0,0
0.00587294,0.0007270284,-0.0011789036,-0.0018016290000000001,0.0027304572,4.204,0,0
0.006230470000000001,0.0008817884,-0.0013855417999999997,-0.0015641772,0.0025252741999999997,4.205,0,0
0.006056756,0.0010055004,-0.0009106696000000001,-0.0014130038000000002,0.0009101981999999999,4.206,0,0
0.003566576000000001,0.0011083714,-0.00037972120000000014,-0.0012363810000000002,-0.0024066998000000003,4.207,0,0
0.000911916,0.001435352,-0.00018532320000000008,-0.0006804704000000001,-0.0038050970000000003,4.208,0,0
-0.0006348559999999999,0.001839226,0.0004147628,-4.12806e-05,-0.004207501000000001,4.209,0,0
-0.0032976760000000003,0.0016915134,0.0007455966,0.0004371076,-0.005674652,4.21,0,0
-0.006048828,0.0012685915999999999,0.0009273764000000001,0.0008054302000000001,-0.00608764,4.211,0,0
-0.006204566,0.0007888976000000001,0.0010957900000000001,0.0005321624,-0.0044257036,4.212,0,0
-0.005864598,-0.00022520440000000004,0.0012286198,0.00013227179999999983,-0.0035320516,4.213,0,0
-0.005886982,-0.0006394646000000001,0.0006509177999999999,0.000246942,-0.0031020836000000005,4.214,0,0
-0.003605356,-0.000317724,-0.00031064420000000007,0.000220672,-0.0010262356000000001,4.215,0,0
-0.0005664880000000004,-0.00028815620000000004,-0.0006975460000000002,0.00027251200000000004,0.0006009724000000001,4.216,0,0
0.0008485919999999998,2.529919999999999e-05,-0.0011595468,0.0005695712000000001,0.0011980900000000002,4.217,0,0
0.002844302,0.0007741768000000001,-0.0015358566000000001,0.0008726174200000001,0.0030811020000000005,4.218,0,0
0.005338028,0.0007280498000000001,-0.0015148566000000004,0.0007138872200000001,0.004812116,4.219,0,0
0.0055336560000000005,-4.668020000000002e-05,-0.000681884,0.0002608808200000001,0.004351992000000001,4.22,0,0
0.005045964000000001,-0.00019994240000000002,-0.0001919822,0.00014575482,0.0038173840000000005,4.221,0,0
0.005426314000000001,-0.00025758574000000003,1.9312599999999975e-05,0.00010034542000000003,0.0035948660000000004,4.222,0,0
0.0042104602,-0.0007471213400000001,0.0008019886,-0.0001355828,0.0015014100000000003,4.223,0,0
0.0014113242000000003,-0.00073149514,0.0011023568000000001,-0.0002064152,-0.0010661660000000001,4.224,0,0
-0.00020207180000000012,-0.00036792334000000003,0.0004316522,-8.254980000000003e-05,-0.002050104,4.225,0,0
-0.0016171038000000002,-0.00030972214,-0.0003599918,-0.00038031520000000006,-0.003005526,4.226,0,0
-0.0039410898,-0.00020510419999999997,-0.0003958598,-0.0004550302,-0.004782818,4.227,0,0
-0.005218484000000001,3.4138600000000005e-05,-0.0005129538000000001,7.619579999999999e-05,-0.005004632,4.228,0,0
-0.004636808,-0.0002083092,-7.947800000000012e-05,0.0004180944,-0.0034472420000000005,4.229,0,0
-0.004271946,-0.001060353,0.001356106,0.0007649834,-0.0026362484000000005,4.23,0,0
-0.004428438,-0.002770984,0.0024643399999999998,0.0012212868,-0.0011738804000000003,4.231,0,0
-0.0027167700000000003,-0.00435119,0.0023449162,0.0013447230000000001,0.0018957395999999998,4.232,0,0
-0.00030330000000000005,-0.0036797008000000004,0.0016395862,0.000831779,0.0034090556,4.233,0,0
0.001315862,-0.0016769080000000004,0.0007055682,0.0003596922,0.0036999016,4.234,0,0
0.0034780120000000004,0.00019866200000000027,-0.0013539658,3.882699999999998e-05,0.00491209,4.235,0,0
0.006410782,0.003874672,-0.0031305118,-0.0004362942,0.005140433999999999,4.236,0,0
0.007890227999999999,0.008896276000000002,-0.0032030480000000004,-0.0007300652000000001,0.0035636344,4.237,0,0
0.007891674,0.010382990000000002,-0.0022150360000000005,-0.0008533612,0.0031192924000000006,4.238,0,0
0.007040472,0.007768754,-0.0006606899999999998,-0.0009471724000000001,0.002733567800000001,4.239,0,0
0.004702581999999999,0.007141188000000001,0.001250292,-0.0012251392000000002,1.647580000000001e-05,4.24,0,0
0.0020193019999999997,0.0071650080000000005,0.0026657000000000004,-0.0010705438,-0.0022850262,4.241,0,0
-0.0014034739999999998,-0.00031861200000000024,0.003196978,-0.0006546858000000002,-0.0028270026,4.242,0,0
-0.005258576,-0.008736512000000002,0.0030590920000000002,-0.0003129218000000001,-0.0041904266,4.243,0,0
-0.007365076000000001,-0.009448038,0.002595796,0.00016857620000000002,-0.005390066,4.244,0,0
-0.00729386,-0.009061870000000001,0.001504216,0.0008336662000000001,-0.0038935451999999996,4.245,0,0
-0.00665016,-0.010019878000000001,-0.0005526260000000001,0.0011554220000000001,-0.0024997241999999997,4.246,0,0
-0.005539644,-0.0059594186,-0.002339084,0.0010812716000000002,-0.0022735542,4.247,0,0
-0.0027468840000000002,0.0002494608,-0.0035050300000000006,0.0012498646,-0.0005272262000000001,4.248,0,0
-0.00017241999999999984,0.0018252072000000002,-0.0043292336,0.0010178545999999999,0.0017190798000000001,4.249,0,0
0.0006445400000000001,0.0008194552,-0.0040519378000000005,0.00039678059999999994,0.0022969670000000005,4.25,0,0
0.001293176,-0.00012229480000000003,-0.0025014158,-0.00011650040000000004,0.003076642,4.251,0,0
0.0030005120000000003,-0.0005873982000000001,-0.0010462838000000003,-0.0003933336,0.004514156,4.252,0,0
0.004080914000000001,-0.00038692478000000005,-0.0005758968000000001,-0.0009443906,0.004164930000000001,4.253,0,0
0.003660736,3.118481999999994e-05,-0.00036364540000000003,-0.0013886406,0.002662258,4.254,0,0
0.0033911040000000003,0.00022427382,-8.272780000000005e-05,-0.0011424614,0.001770652,4.255,0,0
0.0031876120000000003,0.00078083382,0.00020799240000000002,-0.001193348,0.0003444419999999998,4.256,0,0
0.001452574,0.0022007038200000002,0.0004194964,-0.0012113418000000002,-0.002149474,4.257,0,0
-0.000625216,0.0028841049999999997,0.0005133124,-0.0007249778,-0.0032920100000000006,4.258,0,0
-0.001338788,0.0029054790000000003,0.0008450926,-0.0005343498,-0.003316648,4.259,0,0
-0.00261033,0.003253582,0.0012635552,-0.000823285,-0.004374326,4.26,0,0
-0.004980066,0.003071984,0.001668675,-0.000802496,-0.004936562,4.261,0,0
-0.005797382,0.0021036838,0.002098997,-0.0005033028,-0.0032847720000000005,4.262,0,0
-0.005725356,0.0014093678000000002,0.0022448249999999998,-0.00047148479999999993,-0.0021547140000000003,4.263,0,0
-0.006469102000000001,0.0009496552000000002,0.0018817821999999999,-0.00014394839999999997,-0.0017899808,4.264,0,0
-0.005276687800000001,0.0004683578000000001,0.0014841759999999998,0.0004951036,0.0008510291999999999,4.265,0,0
-0.0021548198000000004,-8.170200000000026e-06,0.0009084676,0.0007474312000000001,0.0034572252,4.266,0,0
-0.00020933780000000003,-0.0003502,8.08824e-05,0.0007609222000000001,0.0036835152,4.267,0,0
0.0019318482,-0.000769144,-0.00025316659999999997,0.0009440522000000002,0.0045678012,4.268,0,0
0.0053124022,-0.0013114074,-0.0004945688,0.0008777378000000001,0.005886324,4.269,0,0
0.007059346,-0.0015442620000000002,-0.0007993654,0.0005048886000000001,0.0045045008,4.27,0,0
0.006922234,-0.001673018,-0.0011755210000000001,0.00046229720000000004,0.0027584808,4.271,0,0
0.007035940000000001,-0.0016549636000000002,-0.0014560718,5.0292399999999986e-05,0.0021304652,4.272,0,0
0.0056991642000000006,-0.0016305516000000003,-0.0011113848,-0.0006972216,-3.765080000000002e-05,4.273,0,0
0.0023061702,-0.0014402256,-0.0006761278000000001,-0.00067551884,-0.0025469208,4.274,0,0
-0.00031839979999999986,-0.0010546678,-0.00019686499999999995,-0.0004326120399999999,-0.0026991556000000006,4.275,0,0
-0.0024779638,-0.0006144550000000001,0.0006603770000000001,-0.00023963963999999998,-0.0028329256000000007,4.276,0,0
-0.0050420678,-8.681399999999995e-06,0.0011365062600000003,0.00034997836000000005,-0.004015098000000001,4.277,0,0
-0.00637277,0.0008132046000000001,0.0009534396600000001,0.00098174836,-0.003637482000000001,4.278,0,0
-0.005963334000000001,0.00114005986,0.00075452866,0.0014114496000000002,-0.002478984,4.279,0,0
-0.0056780960000000005,0.00072437806,0.00042291286,0.0015985700000000001,-0.0025407300000000006,4.28,0,0
-0.005072261999999999,0.00063492786,4.936108e-05,0.001295158,-0.001829432,4.281,0,0
-0.0026199000000000005,0.0003718110600000001,-8.825579999999998e-06,0.0008520238,0.0007834960000000001,4.282,0,0
-0.00037382400000000025,-0.00037613094,-0.00014222418000000003,0.0008004092,0.002266944,4.283,0,0
0.000731278,-0.0005718984000000001,-0.00031703258,0.00043483780000000004,0.002989896,4.284,0,0
0.0025502600000000004,-0.00047506240000000003,-0.00037853817999999997,-0.0001008844,0.004985460000000001,4.285,0,0
0.004942278,-0.000846671,-0.000334644,-0.0001352598,0.0058932540000000005,4.286,0,0
0.005455092,-0.0007677262,-0.0003260776,-0.0003675876,0.004517018,4.287,0,0
0.005487522000000001,-0.00020457619999999997,-0.0006551534,-0.0007393409999999999,0.0034509822,4.288,0,0
0.005877826000000001,9.147399999999925e-06,-0.0008229740000000002,-0.0007916939999999999,0.0026092672000000003,4.289,0,0
0.00392364,0.000380988,-0.0007236098000000001,-0.0008084736,-0.0002471868,4.29,0,0
0.0009116420000000003,0.00065380824,-0.0008110120000000001,-0.0008345609999999999,-0.0026402948,4.291,0,0
-0.00061166,0.00052547344,-0.000498865,-0.0007414170000000001,-0.0030974268,4.292,0,0
-0.0022776560000000003,0.00065944144,0.000334123,-0.0006866652000000001,-0.004285715,4.293,0,0
-0.004740782000000001,0.0007015322400000001,0.00066432,-0.0005202212,-0.005627264000000001,4.294,0,0
-0.004988790000000001,0.0003578976400000001,0.0007281396,-0.00019002060000000001,-0.00501266,4.295,0,0
-0.0042487900000000006,0.000261158,0.0011361114000000001,-0.00011007960000000006,-0.0038684286000000003,4.296,0,0
-0.004652808000000001,3.702620000000002e-05,0.0013864794,7.035699999999998e-05,-0.0035564062,4.297,0,0
-0.004086350000000001,-0.000337711114,0.0013803534,0.00032564659999999995,-0.0018504242000000003,4.298,0,0
-0.0016660260000000001,-0.0006004917140000001,0.0012209094,3.2902000000000004e-05,0.0008209258,4.299,0,0
5.999800000000002e-05,-0.000981999714,0.001083465,-0.00025140320000000005,0.0016426918,4.3,0,0
0.0010869940000000002,-0.001312670314,0.0007865794000000001,-0.00025782,0.0021233524000000004,4.301,0,0
0.0036039320000000007,-0.0014998097140000001,-0.0001867686,-0.0002820616,0.003508418,4.302,0,0
0.005670334,-0.0015669890000000002,-0.0009048726000000001,-0.00015273900000000002,0.003569272,4.303,0,0
0.005830336,-0.001325437,-0.0008904378000000001,0.00038569000000000006,0.0021504140000000002,4.304,0,0
0.005923742,-0.0008662344,-0.0011761258,0.0008858504,0.0017793586,4.305,0,0
0.005952042,-0.0007054044,-0.0014440018,0.0010104464,0.0009243066,4.306,0,0
0.00353654,-0.0005916108,-0.0009349582,0.0008043994,-0.0016033014000000003,4.307,0,0
0.00041249600000000004,-0.0006693894,-0.0006099952000000001,0.00020108739999999994,-0.0028063034,4.308,0,0
-0.001442558,-0.000466219,-0.0004389592,-0.0004074714,-0.0028732154000000003,4.309,0,0
-0.003973358,0.0005628103999999999,0.0001565068,-0.0005870406,-0.0038012340000000006,4.31,0,0
-0.006326624,0.0014714324,0.0005817044,-0.0001683940000000001,-0.0038666460000000005,4.311,0,0
-0.006319474,0.0020310808,0.0005337477,0.000529782,-0.001766144,4.312,0,0
-0.00544101,0.002347342,0.0004328223,0.001286958,-0.00036726200000000004,4.313,0,0
-0.005030017999999999,0.0020415729999999997,0.00024618910000000004,0.0018117668,0.000617464,4.314,0,0
-0.0029499739999999997,0.0012675120000000002,-0.00043592890000000007,0.0017838122000000001,0.0034562040000000005,4.315,0,0
-5.053999999999996e-06,0.000828916,-0.0007679751,0.0011529724,0.00571048,4.316,0,0
0.0014493420000000002,0.0006075234000000001,-0.0005796072000000001,0.0003856403999999999,0.005705112000000001,4.317,0,0
0.0032903200000000002,0.00044905808,-0.0005837976000000001,-0.00016448320000000009,0.0061265040000000005,4.318,0,0
0.006172054,0.00042750328,-0.0007255522,-0.0006582514,0.0066156140000000006,4.319,0,0
0.007473146000000001,0.0004794110800000001,-0.0006287862,-0.0009368400000000001,0.004549504,4.32,0,0
0.007055404000000001,0.00054675308,-0.0006555502,-0.0009826417999999999,0.0022360080000000003,4.321,0,0
0.006886538000000001,0.00057265708,-0.0010055754,-0.0010115698,0.0011277479999999998,4.322,0,0
0.005344471000000001,0.00057711832,-0.0008768786,-0.0011236142000000003,-0.0014219880000000001,4.323,0,0
0.001646513,0.00057467712,-0.0002533385999999999,-0.001062257,-0.005099052,4.324,0,0
-0.0012990750000000002,0.00068125032,0.0004530814,-0.0007582673999999999,-0.006978352,4.325,0,0
-0.003489915,0.00051207952,0.0009085616000000001,1.291020000000016e-05,-0.008048642000000002,4.326,0,0
-0.006381759000000001,6.471611999999999e-05,0.0011793004,0.0007898142000000001,-0.009456488,4.327,0,0
-0.008076765999999999,-0.00035175780000000007,0.0013242994,0.0011550214,-0.008818592,4.328,0,0
-0.007707678000000001,-0.0005785668,0.0012615454,0.0016599164000000001,-0.006372309800000001,4.329,0,0
-0.007321414000000001,-0.0009272574,0.0014207074,0.0019853832000000004,-0.004507489800000001,4.33,0,0
-0.006829206000000001,-0.0011541818,0.0014605474000000003,0.0018189152,-0.0030838612000000003,4.331,0,0
-0.004113662000000001,-0.0006768955999999999,0.0013028882000000002,0.0018824592,-0.0007796731999999998,4.332,0,0
-0.0014703379999999999,-4.060159999999999e-05,0.0012508676000000001,0.0019999440000000005,0.0007060648000000001,4.333,0,0
-0.00025862800000000017,0.0003232202,0.0008089148,0.001457527,0.0008666420000000002,4.334,0,0
0.001932092,0.0002738926,-0.0002262132,0.0008149334,0.002620954,4.335,0,0
0.004041954,2.939580000000004e-05,-0.0009750712,-0.0001179086000000001,0.0041750874,4.336,0,0
0.004344056,-0.0002299628,-0.0009832094,-0.0010794286,0.0038624574,4.337,0,0
0.003562608,-0.00048607280000000005,-0.0012127698,-0.0016673426,0.0032185758,4.338,0,0
0.0039056200000000003,-0.0004011228,-0.00105937768,-0.001735138,0.0033874784,4.339,0,0
0.001493794,-0.0004091502,-0.00047376448000000003,-0.0008430704000000002,0.0059005664000000005,4.34,0,0
-0.00110688,-0.0009528022000000001,-0.00092845448,-0.0002156561999999999,0.0111601504,4.341,0,0
0.003504874,-0.0011572318,-0.00175171748,-0.0003956202,0.0168981104,4.342,0,0
0.011033218000000001,-0.0006771338000000002,-0.00260574148,-0.0008281882000000001,0.021835522,4.343,0,0
0.018634306000000003,-0.00034513360000000017,-0.0040499828,-0.0019192898,0.02545294,4.344,0,0
0.027720458000000003,0.000612856,-0.00484122,-0.0040224198000000004,0.022986682,4.345,0,0
0.03301142,0.0025704680000000002,-0.0041669766,-0.005602306000000001,0.014101401999999999,4.346,0,0
0.028102840000000007,0.003729442,-0.0030044306,-0.006128588000000001,0.0032702219999999997,4.347,0,0
0.017386480000000003,0.0038440099999999997,-0.0010750806000000002,-0.006032144000000001,-0.008325938000000001,4.348,0,0
0.0023836199999999986,0.0032570587999999996,0.0017809214000000001,-0.005029592,-0.020755238,4.349,0,0
-0.015133640000000002,0.0017457267999999996,0.004315301400000001,-0.003226094,-0.03090008,4.35,0,0
-0.02920532,-0.00038119720000000007,0.006028082000000001,-0.0004959579999999999,-0.03564034,4.351,0,0
-0.0400534,-0.0025415512000000005,0.007011564,0.0022974040000000003,-0.03638696,4.352,0,0
-0.04688176,-0.004126767200000001,0.007345666000000001,0.004607928000000001,-0.03341638,4.353,0,0
-0.04700626000000001,-0.00481962,0.006520150000000001,0.006436046,-0.025039894800000004,4.354,0,0
-0.04037786,-0.004851374,0.004625370000000001,0.006966984,-0.013514834800000002,4.355,0,0
-0.030025494000000003,-0.00460143,0.002598328,0.0062575980000000005,-0.002284034800000001,4.356,0,0
-0.015777734,-0.004252172,0.00023296800000000006,0.005018034,0.009252985200000001,4.357,0,0
0.0016756059999999988,-0.00399292,-0.0023570680000000004,0.003415042,0.020146465199999998,4.358,0,0
0.017444746,-0.0032878532000000004,-0.004341994,0.0013665899999999998,0.02656362,4.359,0,0
0.029888566000000002,-0.0020392452,-0.005884258,-0.000520114,0.0290398,4.36,0,0
0.03932378,-0.00047765320000000004,-0.007006905999999999,-0.002174566,0.0293932,4.361,0,0
0.04299746,0.0012572608,-0.00669574,-0.003999862,0.024885010000000003,4.362,0,0
0.039433760000000005,0.0029996828000000003,-0.00529470142,-0.005397806,0.015693470000000004,4.363,0,0
0.031425672,0.004319732,-0.0035639514199999997,-0.0055789080000000005,0.00614047,4.364,0,0
0.019798572000000004,0.004467602,-0.00092713742,-0.005007638,-0.003971870000000001,4.365,0,0
0.004669052,0.004041674,0.0018985205800000002,-0.0040684742,-0.01487153,4.366,0,0
-0.010367828,0.0032319178800000003,0.00410430658,-0.0017814222,-0.02230058,4.367,0,0
-0.022581568000000003,0.0018447658800000003,0.005715896,0.0010399838,-0.025359640000000003,4.368,0,0
-0.031988459999999996,8.443387999999992e-05,0.006563266,0.0030537498,-0.026384,4.369,0,0
-0.03744998,-0.0012599721200000002,0.006420835999999999,0.0047549418,-0.023588864,4.37,0,0
-0.03681164,-0.00202837612,0.0052868908,0.006110046,-0.01576854,4.371,0,0
-0.030974851999999997,-0.002775182,0.0034963548,0.006370546,-0.0065509600000000015,4.372,0,0
-0.021707068,-0.003092176,0.0013794787999999998,0.0057499100000000004,0.0026751199999999996,4.373,0,0
-0.008977388,-0.002892548,-0.0009599212000000003,0.004943978,0.01290202,4.374,0,0
0.005212972000000001,-0.0021313414000000003,-0.0031437752,0.0036463702,0.021169244,4.375,0,0
0.017529852000000002,-0.0009491293999999999,-0.004466952,0.0018690202,0.02487814,4.376,0,0
0.026979364,0.0006545306000000002,-0.0055043539999999995,5.722819999999995e-05,0.02643794,4.377,0,0
0.033812840000000004,0.0023498886000000003,-0.006049176000000001,-0.0019593378000000005,0.02574784,4.378,0,0
0.03544672,0.0038705226000000006,-0.00534933,-0.0038753278,0.0197034708,4.379,0,0
0.030952120000000003,0.0050678780000000005,-0.0041908094,-0.004975888,0.0102685308,4.38,0,0
0.0233158074,0.005087536,-0.0025886394,-0.005275246,0.0009232907999999996,4.381,0,0
0.012821207400000001,0.0044064622,-9.358340000000008e-05,-0.005091882000000001,-0.008953049200000002,4.382,0,0
-0.0005637725999999999,0.0036556862,0.0020493386,-0.004084756,-0.018374629200000003,4.383,0,0
-0.013052172600000002,0.0025044776000000004,0.0034681026,-0.0026455981999999995,-0.023297720000000004,4.384,0,0
-0.022253312600000002,0.0009948716,0.004831148,-0.0010991082000000002,-0.024479620000000004,4.385,0,0
-0.02937814,-0.00044301440000000007,0.005448306,0.0005946178,-0.023881060000000003,4.386,0,0
-0.03242404,-0.0017159506000000001,0.004979808,0.0019671618,-0.019218048,4.387,0,0
-0.029904060000000003,-0.0028829866,0.004172390000000001,0.0029685578,-0.010873768,4.388,0,0
-0.024302558,-0.0036106180000000003,0.0033835704000000004,0.0033815900000000003,-0.002745668000000001,4.389,0,0
-0.015926858000000002,-0.0037745520000000005,0.0016323324000000004,0.0031771340000000003,0.005121152,4.39,0,0
-0.004542218000000001,-0.0032664092,-0.0008126175999999998,0.0024606849999999998,0.013366532,4.391,0,0
0.006920822,-0.0023822612,-0.0024957696000000003,0.001256695,0.01827308,4.392,0,0
0.016291962,-0.0015227828000000001,-0.0039167456,5.275100000000013e-05,0.01946362,4.393,0,0
0.02433656,-0.00046448079999999997,-0.005695790000000001,-0.0009011430000000001,0.01952862,4.394,0,0
0.02960182,0.00022449919999999998,-0.006081436,-0.002007437,0.017375498,4.395,0,0
0.0298153,0.0008520404,-0.0047115834,-0.0028006240000000003,0.011783804000000002,4.396,0,0
0.025673288000000002,0.0018025184,-0.0035106385999999997,-0.002819948,0.005000044,4.397,0,0
0.018903216,0.002252556,-0.0020482766,-0.002688234,-0.0015295959999999998,4.398,0,0
0.009316476,0.00211215,0.0002013873999999999,-0.0022097780000000003,-0.008709456,4.399,0,0
-0.0020935040000000012,0.001859477,0.0018038034,-0.0010669720000000002,-0.014642074000000001,4.4,0,0
-0.011750404,0.0015359496000000002,0.0025395928,0.00018194399999999996,-0.017369680000000002,4.401,0,0
-0.018753392,0.0006899412,0.00325612,0.0013806780000000002,-0.01803502,4.402,0,0
-0.02382624,-0.0003126128000000001,0.0035884459999999995,0.00246795,-0.0171673,4.403,0,0
-0.02519436,-0.0009092968,0.0030842832000000002,0.0033258420000000003,-0.0131501084,4.404,0,0
-0.021841592,-0.0014300178,0.0025345289999999993,0.0037242280000000004,-0.006716842400000001,4.405,0,0
-0.0165534318,-0.0021589744000000003,0.001920619,0.0033374082,-0.0011885244000000008,4.406,0,0
-0.009354125799999998,-0.0021610048,0.0006852229999999998,0.0024841034000000007,0.0047048156,4.407,0,0
0.0004993542000000014,-0.0013952296000000002,-0.000484855,0.0013403394000000002,0.0111991956,4.408,0,0
0.009174294200000002,-0.0008007576000000002,-0.0013214482,-0.00010844660000000004,0.014563244,4.409,0,0
0.0151636062,9.276639999999996e-05,-0.002286362,-0.0015396286000000001,0.015554198,4.41,0,0
0.020447906000000002,0.0011901664,-0.003065022,-0.0025627228,0.016651100000000002,4.411,0,0
0.023177340000000005,0.0018203372,-0.003057492,-0.003311486,0.014951898,4.412,0,0
0.020862925999999997,0.002324926,-0.002201228,-0.0037397780000000005,0.009341878,4.413,0,0
0.016512956,0.002801168,-0.0011222880000000001,-0.003997374,0.004479882,4.414,0,0
0.01097616,0.0028322860000000003,-0.00010785800000000006,-0.004093452,-0.00046098600000000047,4.415,0,0
0.0022756399999999998,0.0026237940000000005,0.001241198,-0.0033219090000000005,-0.007100226,4.416,0,0
-0.00682354,0.0022272924,0.002068154,-0.002026265,-0.011291644,4.417,0,0
-0.013215826000000002,0.0011543124000000001,0.0019579560000000003,-0.000582141,-0.012425584000000002,4.418,0,0
-0.017902856,-0.00033262760000000004,0.002152578,0.001067351,-0.013392188000000001,4.419,0,0
-0.02096636,-0.0016473596000000004,0.002397954,0.002638355,-0.012867246,4.42,0,0
-0.01995474,-0.0027909576000000004,0.0021059440000000002,0.003751518,-0.00844398,4.421,0,0
-0.01578018,-0.0037875420000000005,0.0017673968,0.004027526,-0.003491348,4.422,0,0
-0.010768068,-0.004008342000000001,0.0013562318,0.003751382,0.0009145919999999997,4.423,0,0
-0.004024688,-0.0035068100000000004,0.0002986837999999999,0.0032426100000000004,0.006886632,4.424,0,0
0.0037447519999999996,-0.0027128598,-0.0006825662,0.0022511836,0.011797278000000001,4.425,0,0
0.009686492000000001,-0.0016550336,-0.0014036902,0.0006859016,0.013389472000000001,4.426,0,0
0.014106152,-0.0007954596000000001,-0.002550349,-0.0007313704000000001,0.013537420000000001,4.427,0,0
0.0182168,-1.239660000000001e-05,-0.00319573,-0.0017486464,0.013376402,4.428,0,0
0.019059120000000002,0.0006982314,-0.0029095184,-0.0028311124000000003,0.010488948,4.429,0,0
0.016153204,0.0011369192000000002,-0.0023652611999999996,-0.0031350760000000005,0.005558520000000001,4.43,0,0
0.012691858,0.001152985,-0.0016309252000000002,-0.0025483572000000007,0.0013887959999999999,4.431,0,0
0.007448358,0.0010441612000000001,-0.0002931112,-0.002022587,-0.003460644,4.432,0,0
-0.0003359019999999999,0.0010219294000000001,0.0008134728,-0.0013337498,-0.009056706000000001,4.433,0,0
-0.007006242000000001,0.0005247242,0.0014472812,-4.844780000000013e-05,-0.011987772,4.434,0,0
-0.011422546,8.801999999999378e-07,0.001774162,0.0009471462000000001,-0.012253426,4.435,0,0
-0.0156379,-0.0002538714,0.001689486,0.0012247294,-0.012508742,4.436,0,0
-0.01788268,-0.0001907344,0.0017794160000000002,0.0018656152000000002,-0.010624282000000002,4.437,0,0
-0.016505972,-0.00028720140000000003,0.0019204579999999999,0.002505694,-0.006108154000000001,4.438,0,0
-0.013978086000000002,-0.0005558822,0.0016602316,0.00248634,-0.002818992,4.439,0,0
-0.010235482600000002,-0.000567481,0.0011396917999999998,0.002594032,0.00043400200000000017,4.44,0,0
-0.0037536625999999994,-0.0004591976,0.0007014234,0.002801422,0.005190122,4.441,0,0
0.0030032974,-0.00024889339999999995,-0.00012077259999999999,0.0021663796,0.008303082000000002,4.442,0,0
0.0077941294000000005,4.2762400000000036e-05,-0.0009971106,0.0011918436,0.009180160000000001,4.443,0,0
0.0124257034,0.0006508644,-0.0015507702000000002,0.0006110495999999999,0.010142306,4.444,0,0
0.016065760000000002,0.0009646848,-0.0017805064000000002,-0.00029418240000000007,0.009963858,4.445,0,0
0.015623762000000001,0.0009365357999999999,-0.0016469686000000004,-0.0011025244,0.006826634,4.446,0,0
0.01266959,0.000864703,-0.0013864972000000003,-0.001311518,0.002977246000000001,4.447,0,0
0.0094595312,0.000774995,-0.0008430942000000001,-0.0015272800000000002,-0.00016613799999999992,4.448,0,0
0.004406587200000001,0.0008106630000000001,-1.1014200000000014e-05,-0.0018094500000000002,-0.004449386,4.449,0,0
-0.0019902928000000005,0.0009587074000000002,0.0007003797999999999,-0.001884652,-0.008679490000000002,4.45,0,0
-0.0062705548000000005,0.0010525744,0.0012334984000000001,-0.0014537865999999999,-0.010282126,4.451,0,0
-0.0088868028,0.0007720376000000001,0.0018896190000000002,-0.0007778926000000001,-0.010917758000000001,4.452,0,0
-0.011533624000000001,0.00048008060000000023,0.0020910240000000004,-0.000244902,-0.011453358,4.453,0,0
-0.011938114000000001,9.634600000000052e-06,0.0015413488000000002,0.00043548,-0.009632862,4.454,0,0
-0.009567612,-0.0008325534000000001,0.0007918308000000002,0.001205432,-0.006089382000000001,4.455,0,0
-0.007222418000000001,-0.0013436792000000003,0.00013505900000000004,0.0011511520000000001,-0.003422876,4.456,0,0
-0.004126668000000001,-0.0012567142,-0.000806317,0.0009176464000000002,-5.495200000000004e-05,4.457,0,0
0.0011048320000000003,-0.0011260166,-0.001533387,0.0009045526000000002,0.004270226,4.458,0,0
0.0054679260000000006,-0.0007715503999999999,-0.0015395978,0.0003461386000000001,0.006471758,4.459,0,0
0.007905124000000001,9.913160000000001e-05,-0.0013998478000000001,-5.8891399999999997e-05,0.007015462000000001,4.46,0,0
0.010667030000000001,0.0006560316000000002,-0.0016207580000000001,-0.00029111699999999997,0.007853958000000001,4.461,0,0
0.012145340000000003,0.0008457854000000002,-0.0015267520000000001,-0.0008109014,0.007258348,4.462,0,0
0.010299914000000002,0.0010998228000000001,-0.0009202734000000001,-0.0013089002,0.004268132000000001,4.463,0,0
0.00773945118,0.0013080266,-0.0008010546,-0.0012485862,0.0020953160000000003,4.464,0,0
0.00518192118,0.0012695866,-0.0004478116,-0.0011852085999999999,0.0002784660000000002,4.465,0,0
0.00048854118,0.0013087406,0.0003736624,-0.0013066763999999998,-0.003276296,4.466,0,0
-0.00437597882,0.0011733418000000001,0.0009419464000000001,-0.0009275564,-0.005688464,4.467,0,0
-0.00697787282,0.00021746980000000003,0.0011455378,-0.00037240980000000003,-0.005983516,4.468,0,0
-0.00913589,-0.0008906982000000002,0.001619211,0.0002304182,-0.006519796000000001,4.469,0,0
-0.011178800000000001,-0.0018050222000000004,0.001929638,0.0006820445999999999,-0.006312436000000001,4.47,0,0
-0.010858322,-0.0027069722000000003,0.0013782352,0.0011421926,-0.003413881999999999,4.471,0,0
-0.008829236000000002,-0.003333218,0.0009648294000000001,0.0014837385999999998,-0.0003948720000000001,4.472,0,0
-0.007060394,-0.0030780780000000006,0.0004935932000000001,0.001182108,0.001025004,4.473,0,0
-0.004574512,-0.002218553,-0.00025728479999999993,0.0004366160000000001,0.0033983360000000005,4.474,0,0
-0.0009000039999999996,-0.001287345,-0.0007651402,-0.00022554400000000008,0.006052662,4.475,0,0
0.002195322,-5.9497000000000044e-05,-0.0008406594,-0.000754758,0.006544388,4.476,0,0
0.004415044,0.000966769,-0.0010005335999999998,-0.0012339368000000002,0.006467716,4.477,0,0
0.006983402,0.0014418884,-0.0013937794,-0.0012246888,0.00713401,4.478,0,0
0.008453276000000001,0.0014658472000000002,-0.0013328304,-0.0011859548,0.005826842160000001,4.479,0,0
0.007972215999999999,0.0012264126,-0.0012439066,-0.0013101108,0.00249943416,4.48,0,0
0.00697541,0.0009872646000000003,-0.00101522128,-0.0012481128,0.0005496241599999995,4.481,0,0
0.004711519999999999,0.0010132706,-0.00040579127999999993,-0.0011388648,-0.0015220178400000002,4.482,0,0
0.0011074600000000004,0.0010442326000000002,0.00029093871999999997,-0.0009307286600000001,-0.00448598184,4.483,0,0
-0.0015846360000000002,0.0008809837600000001,0.00075069572,-0.00045242326,-0.005377754,4.484,0,0
-0.00320387,0.00083726636,0.00099911132,0.00035983073999999997,-0.0049270419999999995,4.485,0,0
-0.005210402,0.00034304716,0.0015794980000000001,0.00099889674,-0.005284158,4.486,0,0
-0.00622367,-0.00031512884000000003,0.0017944480000000001,0.00135127354,-0.004604881999999999,4.487,0,0
-0.005445018,-0.00070250024,0.0015373492000000002,0.0017917154000000003,-0.0020303660000000005,4.488,0,0
-0.0046021892,-0.0010905012,0.0011311346,0.0019145440000000002,-0.0006809959999999999,4.489,0,0
-0.0036194592000000003,-0.0014195032,0.0006987266000000001,0.0015318970000000004,4.059759999999995e-05,4.49,0,0
-0.0010832792,-0.00149541,0.00023909159999999997,0.0009381090000000003,0.0023196296000000003,4.491,0,0
0.0016973968000000002,-0.0012398184,-0.0004077726,0.00036025300000000016,0.0040444416,4.492,0,0
0.0030193508000000003,-0.000902907,-0.0007928818000000001,-0.00015259299999999997,0.004187887600000001,4.493,0,0
0.004272392,-0.000288335,-0.0009842412000000001,-0.0004905288,0.005165291600000001,4.494,0,0
0.005950642,0.0005535890000000001,-0.0011425772000000002,-0.0008413044,0.006420770000000001,4.495,0,0
0.006177256000000001,0.001479077,-0.0012810393140000001,-0.0010956543999999999,0.00513908554,4.496,0,0
0.005313908,0.0020731854,-0.0012058635140000003,-0.0008776218,0.00295737954,4.497,0,0
0.004869534,0.002353266,-0.000806435514,-0.0007222192,0.0013759775400000005,4.498,0,0
0.0032189960000000004,0.002453386,-0.00018189351400000003,-0.0007793568,-0.00153807246,4.499,0,0
0.00031433200000000007,0.00190194444,0.00023982868600000003,-0.0006518422000000001,-0.00441823246,4.5,0,0
-0.0016200560000000001,0.0008080824400000001,0.0003532648,3.598780000000002e-05,-0.0045977173999999996,4.501,0,0
-0.00342985,-0.0005398875599999999,0.0004539692,0.0005571592000000001,-0.0041238554,4.502,0,0
-0.005843262,-0.00107277916,0.00030969,0.0006599670000000001,-0.004252491400000001,4.503,0,0
-0.006258714,-0.0006820751599999999,-0.00011490660000000003,0.0011078864000000001,-0.0026301636000000002,4.504,0,0
-0.0052465392,-0.00017626359999999995,-0.0004082568,0.0014267163999999999,-0.0004472696,4.505,0,0
-0.0051165352,0.0005880804000000001,-0.00036701560000000004,0.0012217487600000001,-0.0006161202000000001,4.506,0,0
-0.004009301200000001,0.0013936441,-0.0003857598,0.0012069967600000001,-0.0004402792000000001,4.507,0,0
-0.0013175151999999999,0.0011628217,-0.00029564559999999997,0.0015127443600000002,0.0011975108,4.508,0,0
0.0003942647999999998,0.00023346369999999997,-8.078539999999998e-05,0.00109142336,0.0011874042,4.509,0,0
0.0011991559999999998,-0.00027569488600000003,-6.362539999999996e-05,0.00063578536,0.0008045042000000001,4.51,0,0
0.003008562,-0.000742523886,-0.0001367926,0.0005782008,0.0021045702,4.511,0,0
0.004340254,-0.0009809235860000001,-0.0001195484,-0.0001526432,0.0026493812,4.512,0,0
0.0036374690000000004,-0.000506316786,-8.099319999999996e-05,-0.0009552892000000001,0.0011663652,4.513,0,0
0.0026303202,-4.596478599999996e-05,-9.442819999999998e-05,-0.000980614,0.00041932000000000015,4.514,0,0
0.0021744942,-3.534135999999993e-05,0.0003442498,-0.000867316,0.0002215092,4.515,0,0
0.00045455819999999994,0.00039833964000000004,0.0008084768000000001,-0.0009615414,-0.0012409108,4.516,0,0
-0.0018248618000000002,0.0009928936400000002,0.0010560768,-0.0007000250000000001,-0.0017804206000000002,4.517,0,0
-0.0024108968000000003,0.0009306508400000001,0.0010971512,-0.00037630220000000003,-0.0005583146000000001,4.518,0,0
-0.0026944340000000003,0.00079805664,0.0012337166000000001,-0.00018890080000000004,-0.00029082460000000006,4.519,0,0
-0.00391732,0.0009332950000000001,0.0017137686,9.930520000000001e-05,-0.0011086678,4.52,0,0
-0.003848334000000001,0.0006894062,0.0019332226,0.0003937614,-0.000631301,4.521,0,0
-0.0024459390000000003,-8.302579999999997e-05,0.0024552126000000002,0.000555158,-0.0005883657999999999,4.522,0,0
-0.002292527,-0.0007685318,0.002660416,0.0005634782,-0.0010417916,4.523,0,0
-0.0017090422,-0.0016541176,0.0019434520000000002,0.0005025041600000001,0.0008423384000000001,4.524,0,0
0.00018558979999999995,-0.0031336328,0.0003432540000000002,0.00028504076,0.0028099124000000005,4.525,0,0
0.0008175278,-0.004232004,-0.002214568,-3.894204000000001e-05,0.0024483676,4.526,0,0
0.0011102528000000002,-0.0035260559999999996,-0.00395696,-0.00052609904,0.0017209942,4.527,0,0
0.0029048288,-0.001934178,-0.0040863900000000005,-0.00116711604,0.0011166499999999998,4.528,0,0
0.003949566,-0.00044098599999999977,-0.0037664016,-0.0019062336,-0.0018341920000000001,4.529,0,0
0.0036049280000000003,0.0015732300000000001,-0.0028222622,-0.0025279362000000002,-0.005196702000000001,4.53,0,0
0.004011662,0.0028358820000000005,-0.000861317,-0.002584792,-0.005874352,4.531,0,0
0.0037385742000000007,0.002267306,0.00018150700000000002,-0.0025956580000000003,-0.005632316000000001,4.532,0,0
0.0016854462,0.00099066,-3.2539799999999996e-05,-0.0024438980000000003,-0.0053061898000000005,4.533,0,0
-0.00012279579999999993,-0.000579026,-7.114819999999998e-05,-0.0011809540000000001,-0.0023007638,4.534,0,0
-0.0009706738000000001,-0.001884654,0.0001794964,0.00020920200000000013,0.0021088361999999994,4.535,0,0
-0.0019793438,-0.002111704,0.00018822799999999997,0.000889076,0.0038283842,4.536,0,0
-0.002665746,-0.0016230679999999999,-3.531840000000006e-05,0.0021378900000000004,0.00436501498,4.537,0,0
-0.0021006096,-0.0008326599999999998,0.0001553382,0.003503828,0.00525638678,4.538,0,0
-0.0018622936,-0.00013245239999999992,0.0005192218000000001,0.0034948,0.00389586278,4.539,0,0
-0.0022044296,0.00019440360000000004,0.0002827242,0.002955948,0.0015078493800000001,4.54,0,0
-0.0015627396,0.00013523660000000005,0.0001897084,0.002489084,0.00161571138,4.541,0,0
-0.0004150716,-0.0002870738,0.0004471096,0.0018034022,0.0024847586000000003,4.542,0,0
4.763e-05,-0.0008546366,0.0003000872,0.0011499222000000001,0.0025220346,4.543,0,0
0.000700772,-0.000556817,0.00020028599999999999,0.0007803162,0.0033483526,4.544,0,0
0.0019908219999999997,0.00023884100000000005,0.0002628524,0.0005825098600000001,0.004383034,4.545,0,0
0.002093614,0.00055704,0.00015048620000000004,0.00048533586,0.0035310064000000003,4.546,0,0
0.001339152,0.0006659814,-3.44768e-05,0.00029050526,0.0023248844000000003,4.547,0,0
0.001703702,0.0005927621999999999,0.00031819780000000005,-0.00020239474000000005,0.0021285444,4.548,0,0
0.0018187420000000001,0.000211569,0.0006078674,-0.0007264947400000001,0.0005239244000000001,4.549,0,0
0.0007649140000000002,-0.0004127792,0.000389009,-0.0009782744,-0.0016825156,4.55,0,0
0.0009592140000000001,-0.0008595832000000001,0.0003997722,-0.0014266984000000003,-0.0019561680000000003,4.551,0,0
0.0017827840000000004,-0.00081384,0.0005580482,-0.002203518,-0.001926818,4.552,0,0
0.0008272940000000001,-0.000311472,0.0005515822,-0.002451764,-0.0034288020000000003,4.553,0,0
0.0003888150000000001,-0.00010181800000000002,0.0001597112,-0.002461174,-0.0035465899999999996,4.554,0,0
0.001271773,-1.2985800000000034e-05,2.857879999999997e-05,-0.002716472,-0.0023655972,4.555,0,0
0.000468441,0.0005474562,0.0001908776,-0.002744188,-0.0034318332,4.556,0,0
-0.000453933,0.000874288,0.000139258,-0.0024300840000000003,-0.0047413852,4.557,0,0
0.000435895,0.0009016520000000001,-0.0001625266,-0.002361326,-0.0042506552,4.558,0,0
0.000367246,0.0010493532000000001,-7.381680000000001e-05,-0.002771332,-0.0040030332000000005,4.559,0,0
-0.00058136,0.0010788832000000002,0.0003716152,-0.0030907260000000002,-0.0039687498,4.56,0,0
6.6366e-05,0.0009791572,0.00010015699999999997,-0.00304872,-0.0018047977999999998,4.561,0,0
0.000741492,0.0009428212,-3.694400000000003e-05,-0.003057682,0.0005862502000000001,4.562,0,0
-0.00012494799999999994,0.0006837465999999999,0.00015498179999999995,-0.002382332,0.0015223722000000002,4.563,0,0
5.087600000000151e-07,0.0006595841999999999,-0.00015830500000000002,5.120800000000007e-05,0.0029792462000000006,4.564,0,0
0.0008785227600000001,0.0007113925999999999,-0.0005399132,0.0032174580000000003,0.004099654,4.565,0,0
-0.0008395212400000001,0.0002877674,-0.0004556392,0.006133606000000001,0.0032918654000000003,4.566,0,0
-0.00461902924,6.779159999999998e-05,-0.0006859804,0.008967500000000002,0.0025481974000000004,4.567,0,0
-0.00751966124,0.0002755302,-0.0012663156,0.010626406000000001,0.0023313054000000002,4.568,0,0
-0.009266518000000001,0.00046703940000000007,-0.0011688186,0.009995012000000001,0.0007527714000000001,4.569,0,0
-0.010523560000000001,0.000682169,-0.0010136784,0.008371510000000002,-0.0011862385999999998,4.57,0,0
-0.008291818,0.0012106262,-0.0009430868000000002,0.006573298000000001,-0.001812346,4.571,0,0
-0.002604578,0.0012244508,-0.00044618200000000015,0.0038740080000000004,-0.00226211,4.572,0,0
0.002277162,0.0005732908,0.00016778780000000003,0.0009547860000000002,-0.003233866,4.573,0,0
0.005880192000000001,0.00011019319999999995,0.00039618400000000005,-0.0008369400000000002,-0.002404954,4.574,0,0
0.008995742000000001,-0.0001910172,0.00037647560000000007,-0.0018476340000000001,0.0003417259999999999,4.575,0,0
0.00960159,-0.0005967754,0.0003981178,-0.0026180436000000002,0.0021317180000000003,4.576,0,0
0.008307336,-0.0007512020000000001,0.000476823,-0.0028092776,0.002980472,4.577,0,0
0.007934858,-0.0005407554000000001,0.0004704902,-0.0026922456000000004,0.00462016,4.578,0,0
0.006602348,4.796199999999959e-06,0.0005294944000000001,-0.0029177776,0.004666864000000001,4.579,0,0
0.004115826,0.0015953166,0.0010754708,-0.0031987556,0.0023994220000000004,4.58,0,0
0.0032786760000000003,0.0036908988,0.0015927384000000001,-0.003489748,0.0017113760000000001,4.581,0,0
0.0024810728,0.0047950366,0.0020709824,-0.004068656,0.0014092788,4.582,0,0
0.0004762808,0.004675098,0.0026986674,-0.0045614620000000005,-0.0007428072000000001,4.583,0,0
0.00025817479999999996,0.003396224,0.00282847,-0.0047615980000000006,-0.0020758552,4.584,0,0
0.0013339028,0.0007554940000000002,0.001881322,-0.005034434,-0.0023206032,4.585,0,0
0.0006084736,-0.0018778999999999996,3.883400000000018e-05,-0.005053421999999999,-0.0037579512000000003,4.586,0,0
-0.0003722051999999999,-0.0036376159999999998,-0.0019508980000000002,-0.003672884,-0.004365652,4.587,0,0
-0.0001954491999999998,-0.004896816,-0.0032928880000000003,-0.00153079,-0.0030117438,4.588,0,0
-0.0011464151999999999,-0.004678054,-0.0035308900000000005,0.0007879479999999999,-0.0027038138,4.589,0,0
-0.0033351112,-0.0034778838,-0.002857546,0.0029823280000000002,-0.0030367358,4.59,0,0
-0.0041102280000000005,-0.003074739,-0.0014294978000000001,0.00459029,-0.0020775090000000004,4.591,0,0
-0.004199856,-0.0026097969999999996,0.0003099082,0.005620192,-0.0018408089999999999,4.592,0,0
-0.005428506,-0.001414469,0.0014373322,0.0054584180000000005,-0.0030994292,4.593,0,0
-0.006270122,-0.0008708048,0.0017582862,0.004333358,-0.0028460791999999997,4.594,0,0
-0.005423186,-0.001027938,0.0017205402,0.002322686,-0.0015931892,4.595,0,0
-0.004965392000000001,-0.0010435276,0.0014012578,-0.00015665199999999996,-0.0019829820000000003,4.596,0,0
-0.00502395,-0.0007824006,0.0006271237999999999,-0.0026508980000000005,-0.0017443108040000003,4.597,0,0
-0.003015986,-0.00031766020000000006,-0.00015715739999999997,-0.005001768,0.0005476111960000002,4.598,0,0
-0.000831232,-9.466960000000001e-05,-0.0009544494,-0.006773914000000001,0.0019266731960000001,4.599,0,0
-0.0004913431999999998,-0.00014519039999999998,-0.0017549454,-0.007476192,0.0026437371960000003,4.6,0,0
0.0007559828000000003,-4.9950599999999996e-05,-0.0019437492000000001,-0.007102458000000001,0.004494165196000001,4.601,0,0
0.0030216168000000007,7.612679999999998e-05,-0.0019035732000000003,-0.006417234,0.005339464,4.602,0,0
0.0031165368000000003,0.0002842764,-0.0015645670000000002,-0.004951144,0.0037816160000000002,4.603,0,0
0.0026072988,0.0005219436,-0.0009768974000000001,-0.0028387440000000002,0.0022418900000000003,4.604,0,0
0.003252096,0.0008799214,-0.0005121982000000001,-8.822599999999984e-05,0.0011769276000000006,4.605,0,0
0.0021163379999999997,0.0014125124,5.542579999999998e-05,0.002824102,-0.0010621224000000001,4.606,0,0
-0.0003378140000000001,0.0010486260000000002,0.0004126822,0.00490565,-0.0028814864,4.607,0,0
-0.00118015,-0.0005827900000000001,0.00039276180000000005,0.00641304,-0.00249139662,4.608,0,0
-0.0020465500000000003,-0.0025989760000000002,0.0005424562,0.0067755260000000005,-0.00198391222,4.609,0,0
-0.003876964,-0.004009216,0.0008409962,0.005620124000000001,-0.00235075582,4.61,0,0
-0.0037471724,-0.004836284,0.0005941914,0.0036941599999999997,-0.0009134438200000002,4.611,0,0
-0.0020170203999999997,-0.004841214,0.000308201,0.001586428,0.0007457001800000001,4.612,0,0
-0.0014465414,-0.00324901,0.00020952379999999998,-0.0009134080000000002,0.0005518976,4.613,0,0
-0.00025756939999999984,-0.000432298,-0.00019420380000000005,-0.003241606,0.0012795592,4.614,0,0
0.0025779286000000004,0.002404446,-0.00020632380000000007,-0.005459944000000001,0.0026406532000000003,4.615,0,0
0.003971095,0.00464287,0.000257233,-0.007655744000000001,0.0023091212,4.616,0,0
0.004526953,0.006340948000000001,0.0004988502000000001,-0.009471746000000001,0.0024770651999999997,4.617,0,0
0.006109694000000001,0.006760972000000001,0.0004889735,-0.011327352,0.004056784000000001,4.618,0,0
0.006976942000000002,0.005817560000000001,0.0006512234,-0.013225582,0.003983734,4.619,0,0
0.00614038,0.0039875068,0.0006999252000000001,-0.015016459999999999,0.0029542976000000005,4.62,0,0
0.0053395840000000005,0.0019386126000000004,0.0003184092,-0.01631734,0.0025117838000000003,4.621,0,0
0.004378975,0.0005659857999999999,0.0003684906,-0.01723866,0.0009517618000000002,4.622,0,0
0.0017281330000000002,7.889520000000001e-05,0.0006276859000000001,-0.016288260000000002,-0.0020376062,4.623,0,0
-0.0007207369999999999,0.00015282319999999997,0.00044914139999999993,-0.010946488,-0.0033352322,4.624,0,0
-0.001733781,0.0003602352,0.00026304324000000004,-0.0006883680000000017,-0.0027016078,4.625,0,0
-0.0030996490000000003,0.0002171873999999999,0.00040002704,0.013203152,-0.0027019634,4.626,0,0
-0.004972308,-0.0004862118000000001,0.00039353184000000003,0.029057372,-0.0018009013999999999,4.627,0,0
-0.0062611900000000015,-0.0008977652000000001,0.00020906504,0.04384371200000001,0.0010822086,4.628,0,0
-0.008855892,-0.0008039552000000001,0.00051537184,0.05397422,0.0023903366,4.629,0,0
-0.012829982,-0.0006464540000000001,0.000840307,0.058787280000000004,0.0015954306,4.63,0,0
-0.014163278000000001,-0.00048335100000000003,0.0008593632000000001,0.05896412000000001,0.0021263740000000003,4.631,0,0
-0.01249036,-0.00018809299999999996,0.0009096042000000001,0.0556984,0.00242596,4.632,0,0
-0.009234764,-0.00026470100000000005,0.000517265,0.05056134,0.0005806440000000001,4.633,0,0
-0.002593324,-0.00043620139999999997,-0.0002745275999999999,0.04359942000000001,5.445100000000001e-05,4.634,0,0
0.006315916000000001,-0.0003405813999999999,-0.0007902639999999999,0.033295785999999994,0.001820149,4.635,0,0
0.012777016000000002,0.0001755636,-0.0008457323999999999,0.019540326000000004,0.0022101250000000003,4.636,0,0
0.016390756000000003,0.0010178496000000001,-0.0011339342000000001,0.002853826000000001,0.002169589,4.637,0,0
0.019056840000000002,0.0008188216000000002,-0.0015846222,-0.017133454,0.004660465,4.638,0,0
0.019131179999999998,-0.0004454379999999998,-0.0018328062000000003,-0.037967934,0.006093362,4.639,0,0
0.016170548,-0.002206322,-0.0031329418000000005,-0.0562308,0.0045461456,4.64,0,0
0.012285338000000003,-0.004071872000000001,-0.004892629400000001,-0.07137740000000001,0.0032951736,4.641,0,0
0.005760398000000002,-0.0066626540000000005,-0.005417614,-0.08188778000000002,0.0017677116,4.642,0,0
-0.004160682000000001,-0.007992854,-0.004419566,-0.08532066,-0.0024590464000000005,4.643,0,0
-0.012803602,-0.005682388000000001,-0.0026451540000000003,-0.08303371999999999,-0.006488488400000001,4.644,0,0
-0.01780995,-0.00051292,-0.00031482600000000036,-0.07668724,-0.007915410000000001,4.645,0,0
-0.02025162,0.005835076000000001,0.0019266880000000002,-0.06458676,-0.009419752,4.646,0,0
-0.017536318,0.010945736000000001,0.002234572,-0.04626662,-0.011034506000000001,4.647,0,0
-0.008801617999999999,0.013523806000000001,0.0013856660000000002,-0.022595279999999995,-0.009571944,4.648,0,0
-0.00037547799999999897,0.011752724,0.00033179839999999977,0.0052623400000000025,-0.0070497039999999995,4.649,0,0
0.004911506000000001,0.005250124000000002,-0.0005080437400000001,0.03254988,-0.0055852712,4.65,0,0
0.009146246,-0.0037044560000000005,0.00076623226,0.052912680000000004,-0.0023535452000000004,4.651,0,0
0.011149868,-0.010766116,0.00500794626,0.06353134,0.0018766888000000003,4.652,0,0
0.00944458,-0.014002052000000001,0.010323596260000002,0.064626,0.0035726428000000003,4.653,0,0
0.006909704000000001,-0.013797522000000001,0.01461783786,0.0570842,0.004518676800000001,4.654,0,0
0.0049153342000000004,-0.010177954,0.018095364000000003,0.045131840000000006,0.005684492000000001,4.655,0,0
0.0019297262000000002,-0.0032166740000000005,0.017748772,0.03404688,0.004179398000000001,4.656,0,0
-0.0007816077999999996,0.007732046000000001,0.013540278,0.025985599999999998,0.002318898,4.657,0,0
-0.0017658181999999998,0.017656346000000003,0.010183762,0.019749100000000002,0.002924008,4.658,0,0
-0.0022477756000000002,0.022263428000000002,0.005808644,0.013593252000000002,0.003453924,4.659,0,0
-0.0022173298000000004,0.0212443106,0.000982314,0.007550486,0.0033258280000000003,4.66,0,0
-7.692379999999985e-05,0.014306710600000001,-0.004444538,0.002218066,0.004964164,4.661,0,0
0.0030035062,0.004001070600000001,-0.013904084,-0.0027250839999999996,0.006612054000000001,4.662,0,0
0.0046917666,-0.0053741674,-0.021223708,-0.008237924,0.005666558,4.663,0,0
0.005993162,-0.010851715400000001,-0.02201649,-0.013490716,0.0048326820000000005,4.664,0,0
0.008217202,-0.010986872,-0.021926910000000004,-0.01814651,0.00412803,4.665,0,0
0.008612120000000001,-0.00682853,-0.019350258000000002,-0.02354005,0.00048288200000000045,4.666,0,0
0.006673383999999999,-0.0030873220000000004,-0.011052086,-0.029119100000000002,-0.004085062,4.667,0,0
0.00519053316,-0.0013805220000000003,-0.006470994000000001,-0.03235476,-0.0072668920000000005,4.668,0,0
0.0021995011599999998,-0.001112476,-0.006740146000000001,-0.03244518,-0.010184786000000001,4.669,0,0
-0.00489193884,-0.0023761060000000002,-0.005928758,-0.0290316,-0.011493474,4.67,0,0
-0.01271815484,-0.004429648,-0.004417094000000001,-0.021086094,-0.00840814,4.671,0,0
-0.01908455884,-0.007417336,-0.0022009100000000004,-0.010780414,-0.0038540399999999995,4.672,0,0
-0.025925450000000003,-0.011279778,0.001094888,-0.001586914,-0.0011146051999999997,4.673,0,0
-0.0302078,-0.014553776000000001,0.00387097,0.005826106000000001,0.0015598628000000002,4.674,0,0
-0.0290798,-0.016180080000000003,0.005061612,0.010210012000000001,0.0030424568000000005,4.675,0,0
-0.025593900000000003,-0.016480380000000003,0.00578868,0.009692568,0.0005385748,4.676,0,0
-0.021195904,-0.013870339200000002,0.0057428240000000005,0.006667630000000001,-0.0030132252,4.677,0,0
-0.014731276000000001,-0.007721719200000001,0.0038081140000000005,0.004753182000000001,-0.004368842,4.678,0,0
-0.0076756379999999985,-0.0024908492000000003,0.0015795600000000003,0.004690882,-0.005745424000000001,4.679,0,0
-0.0014801179999999999,0.0011478867999999997,4.897600000000016e-05,0.006285416,-0.0064659140000000006,4.68,0,0
0.0058925620000000005,0.0067653868,-0.0010816866,0.009368014000000001,-0.002976078,4.681,0,0
0.014448386,0.011894426,-0.0012221726,0.011813672,0.0014288220000000002,4.682,0,0
0.022626778,0.015808686,-0.0017203086,0.012453381999999999,0.0036391660000000005,4.683,0,0
0.030077819999999998,0.024133356,-0.0011647246,0.011240368,0.005674994000000001,4.684,0,0
0.0363139,0.03452646,0.0021385794000000004,0.0080202108,0.006814186000000002,4.685,0,0
0.03985098,0.041011099999999995,0.006648798000000001,0.0042434628,0.004694564,4.686,0,0
0.040195020000000005,0.042813220000000006,0.010016804,0.0012189848,0.0015997980000000004,4.687,0,0
0.03732506000000001,0.034224540000000005,0.013529560000000001,-0.0004524567999999998,0.00042608200000000015,4.688,0,0
0.030949496000000007,0.015181580000000004,0.01695926,-0.0008042647999999997,-0.00104831,4.689,0,0
0.021243124000000002,-0.00402168,0.014983132000000001,0.00016623040000000042,-0.0036989759999999997,4.69,0,0
0.009123544,-0.02363246,0.009806356000000002,0.0011457468000000005,-0.004155382,4.691,0,0
-0.0037211760000000014,-0.040694480000000005,0.004857462000000002,0.0005578748000000006,-0.00302679,4.692,0,0
-0.016722676000000002,-0.04184298,0.002601618,-0.0025910456,-0.0029460892,4.693,0,0
-0.027636872,-0.031691976,0.0035638780000000004,-0.008557603600000002,-0.0018746571999999997,4.694,0,0
-0.03420708,-0.020768936,0.006775046000000001,-0.014582561600000002,0.0013860148000000004,4.695,0,0
-0.03842628,-0.008674795999999999,0.00802745,-0.01799639,0.0030711628000000004,4.696,0,0
-0.039457400000000004,-0.0005212160000000001,0.0023486040000000015,-0.014856832,0.0038559748,4.697,0,0
-0.03410136,-0.002212016,-0.005822352,-0.004047072000000001,0.0064901080000000005,4.698,0,0
-0.02651011,-0.010195520000000001,-0.011838858,0.009010827999999999,0.007676226,4.699,0,0
-0.019345254,-0.01936186,-0.015003142000000002,0.021429528,0.006882274000000001,4.7,0,0
-0.009826542,-0.02635952,-0.01345284,0.03269456800000001,0.007074232,4.701,0,0
0.0003636379999999999,-0.025740952,-0.006315694000000002,0.03899312,0.006560962,4.702,0,0
0.008263418000000002,-0.016288792,0.00012840199999999968,0.039247840000000006,0.00361227,4.703,0,0
0.014933328000000001,-0.0011752120000000019,0.00382109,0.038015400000000005,0.002162586,4.704,0,0
0.020890972,0.014882128000000001,0.004916194,0.03634586,0.002439282,4.705,0,0
0.023734200000000004,0.023137008,0.005770824,0.03348654,0.0011909686000000001,4.706,0,0
0.02115221,0.02270894,0.006323306,0.029095340000000004,-2.347939999999978e-05,4.707,0,0
0.015611404,0.019963316000000002,-0.0017369699999999991,0.021430880000000003,-0.00042555739999999994,4.708,0,0
0.011739440000000002,0.015475776,-0.013970412,0.01064212,-0.0021809693999999998,4.709,0,0
0.00968298,0.009169836,-0.024240972,-0.003921859999999999,-0.0044610334,4.71,0,0
0.010579600000000002,0.008649816,-0.034834652,-0.02189442,-0.004681036,4.711,0,0
0.014687470000000001,0.013450896,-0.035091146,-0.039817740000000004,-0.00340908,4.712,0,0
0.01673169,0.014447040000000001,-0.015469105999999996,-0.055352040000000005,-0.001951132,4.713,0,0
0.011146314000000001,0.012452064000000002,0.009373194000000003,-0.06674614000000001,0.00016877600000000015,4.714,0,0
-0.0023651259999999995,0.009745026,0.029410474000000002,-0.07246588,0.0028544060000000003,4.715,0,0
-0.020791806000000003,0.004430506,0.040788534,-0.07239882,0.0035999540000000003,4.716,0,0
-0.041246726000000004,-0.0030738140000000002,0.0350757,-0.0664601,0.002261606,4.717,0,0
-0.055524300000000006,-0.009784954000000002,0.014829519999999999,-0.05451798,0.0010123060000000001,4.718,0,0
-0.05767668000000001,-0.015913198000000003,-0.00911814,-0.037350448,-0.001056466,4.719,0,0
-0.048569548000000004,-0.02184328,-0.0316111,-0.016094907999999998,-0.0045632039999999995,4.72,0,0
-0.028884828000000005,-0.022223420000000004,-0.046231760000000004,0.006064691999999999,-0.006364300000000001,4.721,0,0
-0.0015839279999999983,-0.01464372,-0.041168784,0.024106932,-0.006357440000000001,4.722,0,0
0.023584492000000002,-0.005379680000000002,-0.020663584000000006,0.037095752,-0.0074593540000000005,4.723,0,0
0.040699332000000005,0.004472680000000001,0.0007296359999999953,0.04729846000000001,-0.007827224,4.724,0,0
0.05259296000000001,0.0201816,0.017819355999999998,0.05516404000000001,-0.006925004000000001,4.725,0,0
0.051924040000000005,0.03377144,0.028335738000000003,0.06018304,-0.007450094000000001,4.726,0,0
0.03228762,0.037992120000000004,0.023018502,0.06281034,-0.007747202,4.727,0,0
0.0061144000000000025,0.037955520000000006,0.013004606,0.06143634,-0.005129366000000001,4.728,0,0
-0.01514374,0.0303881,0.019007826000000002,0.0537875,-0.002083758,4.729,0,0
-0.03253432,0.011849740000000003,0.040877066000000004,0.040431303999999994,0.0008749880000000002,4.73,0,0
-0.04155144,-0.005335999999999999,0.067698664,0.022270864,0.005376436,4.731,0,0
-0.03331445,-0.01818176,0.081418344,0.002579623999999999,0.008132346,4.732,0,0
-0.014195510000000001,-0.02782194,0.07033912,-0.015218536000000001,0.008044500000000001,4.733,0,0
0.006666890000000001,-0.02933104,0.0334203,-0.030437136,0.008113836,4.734,0,0
0.02579503,-0.02794802,-0.017922300000000002,-0.041134580000000004,0.00842261,4.735,0,0
0.03924651,-0.02537278,-0.061739980000000014,-0.04657726,0.0069007040000000006,4.736,0,0
0.04508348,-0.019531424,-0.08015480000000001,-0.04790818,0.005362456600000001,4.737,0,0
0.04471132,-0.014521105800000001,-0.07656492000000001,-0.04396926,0.0055604986,4.738,0,0
0.03974118,-0.009929015800000001,-0.06169782000000001,-0.035336320000000004,0.0046004506,4.739,0,0
0.031012340000000006,-0.0012885458000000002,-0.037182286,-0.024941682,0.0018241266000000003,4.74,0,0
0.02184502,0.0045378542,-0.014639986,-0.013558682,0.0005762345999999999,4.741,0,0
0.014283378,0.0053268162,-0.0005085860000000001,-0.0026059220000000005,0.0005849356,4.742,0,0
0.006720617999999998,0.007643138,0.008937894,0.004201858,-0.0009639664000000002,4.743,0,0
-0.001744042,0.009608188,0.015993034000000003,0.005671448,-0.0024142244,4.744,0,0
-0.010982002000000001,0.006973466,0.011020720000000001,0.004287826,-0.0027204843999999997,4.745,0,0
-0.021543322,0.0012624660000000003,-0.009853319999999999,0.0020735228000000002,-0.0046541264,4.746,0,0
-0.03227004,-0.0010398539999999998,-0.02581584,-0.00010379780000000009,-0.00733291,4.747,0,0
-0.041801420000000006,-0.0031518820000000004,-0.03061826,-0.0005268238000000001,-0.007698380000000001,4.748,0,0
-0.0488687,-0.005451799614,-0.034279286,0.0021794862,-0.007403456,4.749,0,0
-0.048805720000000004,2.3592386000000423e-05,-0.033644606,0.0056049102,-0.007028966000000001,4.75,0,0
-0.038647332000000006,0.009955312386,-0.023163866,0.0080207134,-0.003403538,4.751,0,0
-0.021781672000000002,0.017336134386,-0.013902425999999999,0.009569376000000001,0.001376922,4.752,0,0
-0.0025337719999999992,0.020913342386000004,-0.007688746000000001,0.009305066,0.003508508,4.753,0,0
0.016141308,0.019677410000000003,0.002514119999999999,0.00749801,0.005776034,4.754,0,0
