bandpass 1,bandpass 2,bandpass 3,bandpass 4,bandpass 5,time,onset,mark
-0.0003724676000000001,-0.0010501596000000001,-0.00045716488,-0.0006188616,-0.00034626920000000003,4.236,0,0
-0.0013102416000000004,-0.0020247996,-0.00124747088,-0.0012456056,-0.0001432632,4.237,0,0
-0.0022669636000000005,-0.0028409976,-0.00246212088,-0.0016600036000000002,0.00014657680000000004,4.238,0,0
-0.0034896656000000005,-0.004162186,-0.0037791894,-0.0018260150000000003,0.0006867940000000001,4.239,0,0
-0.004536686,-0.005501268,-0.005398714000000001,-0.0018931906000000003,0.0011557686,4.24,0,0
-0.004545614000000001,-0.005494964,-0.0062613140000000005,-0.0013656754000000004,0.0011738566,4.241,0,0
-0.003944604,-0.00481002,-0.006110356000000001,-0.0008124780000000002,0.0010499868,4.242,0,0
-0.003186085000000001,-0.0044618900000000005,-0.0058868079999999995,-0.000713642,0.0009914208,4.243,0,0
-0.0017704630000000001,-0.003016578,-0.0055471620000000004,-0.0006503570000000001,0.00012018480000000007,4.244,0,0
0.000162955,-0.0007869200000000001,-0.004506578000000001,-0.000495962,-0.0009845272,4.245,0,0
0.0019423550000000002,0.0009750719999999999,-0.003694384,-0.0007902531999999999,-0.0012967258000000001,4.246,0,0
0.003465623,0.002178392,-0.0032563400000000004,-0.0007322866,-0.001648766,4.247,0,0
0.004868178000000001,0.003211624,-0.0013459560000000001,-0.00021419459999999998,-0.002169102,4.248,0,0
0.005223780000000001,0.003383518,0.0017971700000000003,-0.00035423499999999994,-0.0018815406000000001,4.249,0,0
0.003998108,0.002243722,0.004477322000000001,-0.00018024959999999994,-0.0009988348,4.25,0,0
0.00248493,0.0010833739999999998,0.00630394,0.0004512944,-0.00045109520000000006,4.251,0,0
0.0009153339999999999,-6.287200000000003e-05,0.00694464,0.0006588944000000001,2.2640799999999988e-05,4.252,0,0
-0.001046492,-0.0015399720000000001,0.0056800800000000005,0.0006842884,0.0006316268,4.253,0,0
-0.0026689440000000004,-0.002590156,0.002949582,0.0010296502,0.0009758576000000001,4.254,0,0
-0.0032011500000000003,-0.0024646100000000003,0.00055583,0.0009909868,0.0011239138,4.255,0,0
-0.003371214,-0.002459064,-0.0010222080000000001,0.0006720958,0.0010454116,4.256,0,0
-0.003767668,-0.002642098,-0.0022178320000000003,0.0007735018000000001,0.0005552876,4.257,0,0
-0.003231786,-0.0016995354000000004,-0.0019921872,0.0006744812000000001,-0.0002669164000000001,4.258,0,0
-0.0022647626,-0.0005410874000000002,-0.0009883272,0.00044250240000000003,-0.0008118626000000001,4.259,0,0
-0.0013762846,0.0005397686000000001,-0.00037003919999999997,0.00032587600000000006,-0.0011466250000000003,4.26,0,0
0.0001307474,0.0019999166000000002,0.0007156368,0.00041393060000000006,-0.0013324188000000002,4.261,0,0
0.0019102913999999999,0.0035297246000000008,0.0019971268000000004,6.561200000000008e-06,-0.0008299528,4.262,0,0
0.0030422254,0.00454079,0.0021140000000000004,-0.0005806182,-3.3908000000000354e-06,4.263,0,0
0.003611616,0.00473243,0.001381354,-0.0004926058000000001,0.00044080000000000004,4.264,0,0
0.004265018000000001,0.004720468,0.000793354,-0.00031641480000000005,0.0004937644,4.265,0,0
0.0038653620000000007,0.004319906,-0.00017238119999999992,-0.00048279040000000006,0.0004248352,4.266,0,0
0.0027470040000000004,0.0031408210000000002,-0.0006767124,-0.0004863332,4.0046000000000016e-05,4.267,0,0
0.0020614920000000003,0.0019192820000000005,0.00010560759999999995,-6.74652e-05,-0.00039491799999999996,4.268,0,0
0.00109008,0.0006597339999999999,0.0013851016,-2.511978000000001e-05,-0.0004878972,4.269,0,0
-0.00046682200000000004,-0.001040294,0.0023057976,8.014062000000002e-05,-0.00037302500000000003,4.27,0,0
-0.0014827520000000002,-0.002757738,0.0025589278,0.00057130462,-8.332340000000003e-05,4.271,0,0
-0.0017329620000000002,-0.0036010950000000003,0.0023009410000000004,0.00087879142,0.0001637242,4.272,0,0
-0.002607962,-0.004021048,0.000733647,0.00093806198,0.000330297,4.273,0,0
-0.002649414,-0.004227156,-0.001039203,0.00104810456,0.0003404758,4.274,0,0
-0.0013814860000000001,-0.00361907,-0.0016441834000000002,0.00082033818,-6.362840000000006e-05,4.275,0,0
-0.0006597380000000002,-0.002810894,-0.0016932835999999998,0.00018372418000000003,-0.0008482104000000001,4.276,0,0
0.00014039399999999996,-0.0017018900000000002,-0.0013744404,8.456677999999999e-05,-0.0012466468000000002,4.277,0,0
0.001740872,-0.0001455279999999999,1.8449600000000014e-05,0.00017347741999999998,-0.0009548336000000001,4.278,0,0
0.0028565220000000002,0.00134972,0.0014448476000000002,-0.00022229598,-0.000533342,4.279,0,0
0.002821778,0.0024160580000000004,0.0013152012,-0.0006575056000000001,0.00034065200000000004,4.28,0,0
0.002820224,0.003127774,0.0012603524,-0.0007500016,0.001478906,4.281,0,0
0.0022824356,0.0031200304,0.0015111432,-0.0009674936,0.0019349478,4.282,0,0
0.0005997836000000002,0.0018279864000000001,0.0008325736000000001,-0.0012799368,0.0017759861999999999,4.283,0,0
-0.0008369564000000001,0.0006583563999999998,-4.164839999999995e-05,-0.00112183,0.0014253332000000003,4.284,0,0
-0.0017666924,-2.3781799999999996e-05,-0.0005195996,-0.0006612304,0.0008863442,4.285,0,0
-0.0027331584000000004,-0.0009116118000000002,-0.0011993076,-0.00043681279999999997,0.0006253982,4.286,0,0
-0.0034364680000000002,-0.0019607742000000003,-0.0020613876,-0.000426217,0.0007951544,4.287,0,0
-0.0036129580000000003,-0.0023094882000000002,-0.0026281,-8.573800000000003e-05,0.001025962,4.288,0,0
-0.0035578380000000007,-0.0021801322000000005,-0.0031751039999999998,4.9015020000000006e-05,0.001299579,4.289,0,0
-0.0036029340000000008,-0.0026881860000000004,-0.00334121,-5.626718000000002e-05,0.0013286256000000001,4.29,0,0
-0.003376914,-0.0023558714000000004,-0.002951978,0.00030196122,0.0009158228,4.291,0,0
-0.0024462254000000004,-0.0009634254,-0.0024500582000000003,0.00028274682000000004,0.00024538680000000005,4.292,0,0
-0.0012956494,-4.108340000000008e-05,-0.0014981022000000004,-6.028017999999997e-05,-0.0005014172000000001,4.293,0,0
-3.650139999999979e-05,0.0008760706,0.00022627180000000006,3.771740000000003e-05,-0.0012849872,4.294,0,0
0.0015684786,0.0025565946,0.0019294818,0.00012626440000000006,-0.0021710588000000003,4.295,0,0
0.0030462346000000003,0.003622332,0.0030891138000000004,0.00014515440000000007,-0.002812476,4.296,0,0
0.00337992,0.003725802,0.0038545940000000002,0.0005415778000000002,-0.002848364,4.297,0,0
0.003248394,0.004131984,0.004374828000000001,0.0009321826000000001,-0.0026525286,4.298,0,0
0.0030521360000000004,0.004086564,0.004252514000000001,0.0009312730000000001,-0.0022924238,4.299,0,0
0.0019215574000000003,0.0027402290000000003,0.0034701239999999998,0.0008565002000000001,-0.0014866718,4.3,0,0
0.0007646242000000001,0.001074661,0.0025348296,0.0007365922000000001,-0.0004582830000000001,4.301,0,0
0.0001648629999999999,-0.000211349,0.0015482536,0.00047321620000000006,0.000539029,4.302,0,0
-0.0008397890000000001,-0.001785469,0.0004634696,0.00023585020000000003,0.0016480176,4.303,0,0
-0.0023052970000000004,-0.003099805,-0.0009044484,0.00018285840000000004,0.0028269908,4.304,0,0
-0.0030394324,-0.003194928,-0.0015525824,0.00030840380000000006,0.0035328808000000002,4.305,0,0
-0.003519605200000001,-0.0031479360000000005,-0.00167296,6.524180000000001e-05,0.0037344720000000004,4.306,0,0
-0.004048450000000001,-0.0030388600000000004,-0.002118804,-7.73302e-05,0.00350315,4.307,0,0
-0.0035687,-0.0021110880000000005,-0.0019713616000000002,0.00028583700000000005,0.0026415216,4.308,0,0
-0.0025958476,-0.0014613298,-0.0013527163999999998,0.00024096188000000002,0.0015295420000000003,4.309,0,0
-0.0017626129400000001,-0.0012493718,-0.0008425732000000001,0.00026428128,0.000567992,4.31,0,0
-0.00056609494,1.8224199999999913e-05,0.0004425468,0.00048376128000000005,-0.00011455600000000003,4.311,0,0
0.00096173506,0.0015240962,0.0025754068,0.00024713127999999995,-0.000826656,4.312,0,0
0.00220126306,0.0021718362,0.0032733204000000003,-0.00029749871999999993,-0.0015882616,4.313,0,0
0.0033226186600000002,0.0028960340000000005,0.0025570532,-0.0004656268,-0.0021636940000000003,4.314,0,0
0.004349736,0.0036632160000000004,0.0017834800000000003,-0.0005791071999999999,-0.0025590300000000003,4.315,0,0
0.004284724,0.003313198,0.00018536999999999991,-0.0009256498000000001,-0.0028186400000000003,4.316,0,0
0.0036107368,0.0021623802000000003,-0.001907274,-0.0006696526000000001,-0.0027993360000000004,4.317,0,0
0.0032700567999999998,0.0012309082,-0.002746736,-0.000622618,-0.0022118640000000005,4.318,0,0
0.0023221714,-0.0002406057999999999,-0.0015434099999999998,-0.0009203868000000001,-0.0014804776000000004,4.319,0,0
0.0010017234,-0.0021524358,0.0002363920000000001,-0.0010930332,-0.0006190112000000001,4.32,0,0
6.577740000000002e-05,-0.0032737018000000002,0.0015548460000000004,-0.0008801928,9.871279999999999e-05,4.321,0,0
-0.0004473934,-0.003487464,0.0021034408,-0.00024639400000000004,0.00045625360000000004,4.322,0,0
-0.0010057578,-0.003422704,0.0012196727999999998,9.264400000000002e-05,0.0006402288,4.323,0,0
-0.0015402504,-0.002860308,-0.0007802951999999999,0.000595004,0.0006590396,4.324,0,0
-0.0010277704,-0.0015945074,-0.0028670712,0.0010529444,0.0005499314000000001,4.325,1,1
-0.00037084339999999996,-0.000815655,-0.0043004272,0.0010992552,0.0004643840000000001,4.326,0,0
0.00013636980000000004,-0.0005228568000000001,-0.004674754000000001,0.0010677092,0.0005798132000000001,4.327,0,0
0.0014041622,0.00029826919999999995,-0.003094098,0.0011525066,0.000170416,4.328,0,0
0.0025783902,0.0013750232,-0.0004828179999999999,0.0011506046000000002,-0.0004188292,4.329,0,0
0.0028983242000000004,0.0018989946,0.0015891200000000003,0.0009738936000000001,-0.0006436956,4.33,0,0
0.0035890572,0.0030433102,0.0030364240000000002,0.0008093134,-0.0007920642000000002,4.331,0,0
0.004071786,0.00430745,0.003836744,-8.876599999999989e-06,-0.0007472314000000001,4.332,0,0
0.0028889388599999998,0.003815745,0.0033543284,-0.0008260666000000001,-0.00011303340000000004,4.333,0,0
0.0015963148599999998,0.0029784958,0.0014026543999999998,-0.0008436820000000001,0.0007161546000000001,4.334,0,0
0.0006501988600000001,0.0023142302,-0.0008553716000000002,-0.0007892276,0.0011142688000000001,4.335,0,0
-0.00097623314,0.0003327302000000001,-0.0027624896,-0.0009505480000000001,0.0013897988000000003,4.336,0,0
-0.00260704314,-0.0020613798,-0.0043451276,-0.00046830600000000004,0.0014449280000000003,4.337,0,0
-0.0032873500000000005,-0.0030071688,-0.005172516,0.0003043666,0.0010457344000000001,4.338,0,0
-0.0033254820000000003,-0.0031870716,-0.004932230000000001,0.00016464860000000003,0.0005323594000000001,4.339,0,0
-0.0034558040000000003,-0.00346706,-0.004175648,8.331200000000008e-06,0.0003163152,4.34,0,0
-0.0028122624000000004,-0.003066936,-0.0026592460000000005,0.0002786188,-2.989960000000002e-05,4.341,0,0
-0.0011450584000000001,-0.0017440770000000001,-0.0007146019999999999,0.00011656040000000001,-0.0005292816,4.342,0,0
0.00012488160000000018,-0.0005618730000000001,0.0001837254000000002,-0.0002631242,-0.0005961382,4.343,0,0
0.0012389576,4.921900000000003e-05,0.0009332514000000001,-0.00034728700000000005,-0.0007545152,4.344,0,0
0.0027265656000000004,0.001020759,0.0019180974,-0.00038217920000000003,-0.001061667,4.345,0,0
0.003544936,0.002165143,0.0021998734,-0.0006776508,-0.0009370862000000001,4.346,0,0
0.0031806700000000005,0.002466064,0.0023573434,-0.0010316964,-0.000530217,4.347,0,0
0.0025443358000000003,0.002489738,0.0030912759999999996,-0.0008253266600000001,-0.00018775880000000003,4.348,0,0
0.0014911938000000003,0.002477678,0.0034104659999999996,-0.00075110766,0.0005761832,4.349,0,0
-0.00015371220000000004,0.0016799864000000002,0.0028751176,-0.00110058546,0.0016532812,4.35,0,0
-0.0015199421999999999,0.0007429584,0.0021352600000000004,-0.0008966562600000001,0.0019136512000000002,4.351,0,0
-0.0026832241999999997,-0.00011687760000000008,0.0009635399999999999,-0.00057672546,0.002028538,4.352,0,0
-0.0037860299999999997,-0.0014644896,-0.00018318200000000005,-0.0007434252000000001,0.00240157,4.353,0,0
-0.004332812,-0.0024079216,-0.0009344080000000001,-0.0008004940000000001,0.00237118,4.354,0,0
-0.0042647480000000005,-0.0024637178,-0.0011828556000000002,-0.0005876528000000001,0.002099156,4.355,0,0
-0.0043040280000000005,-0.0028971978,-0.0010004216,-0.000495499,0.0017620560000000001,4.356,0,0
-0.004196016,-0.0033789058,-0.0007934887999999999,-0.00010975180000000011,0.0014398286,4.357,0,0
-0.0026213860000000003,-0.0021157078000000004,-0.00024602620000000006,0.0005759381999999999,0.0008496373,4.358,0,0
-0.0005409459999999998,-0.0011771137999999999,0.0005390458,0.0009788741999999999,-5.309070000000002e-05,4.359,0,0
0.0005999520000000001,-0.00118856,0.0010464938,0.0010897469999999999,-0.0007976787,4.36,0,0
0.002091504,0.00031990400000000003,0.0016955754,0.0011861314,-0.0011305967000000002,4.361,0,0
0.0037980740000000002,0.002424582,0.0028194646,0.0010624994,-0.0019367933000000001,4.362,0,0
0.00419596,0.0032382,0.003420752,0.0007868694000000001,-0.003254704,4.363,0,0
0.0042181020000000005,0.0034443520000000004,0.00365171,0.0008646194000000001,-0.0034397560000000004,4.364,0,0
0.004521764,0.0039187480000000005,0.003783256,0.0012007914,-0.0029495759999999998,4.365,0,0
0.0035362154000000002,0.0032910846000000003,0.002989316,0.001295666,-0.0023555226,4.366,0,0
0.0019729794000000007,0.001948493,0.0018446702000000001,0.0014400580000000001,-0.0012771686,4.367,0,0
0.0008985874,0.0007278591999999999,0.0008437762,0.0015227620000000002,-0.0002145066,4.368,0,0
-0.0010054486,-0.0005845368,-0.0004297758,0.00091766,0.00020090140000000005,4.369,0,0
-0.0029015346,-0.0016562488000000002,-0.0015593438000000002,0.000470602,-0.00025805920000000006,4.37,0,0
-0.0036231199999999996,-0.0022864534,-0.0027403778,0.00026087140000000006,-0.0009882366000000002,4.371,0,0
-0.0037603700000000003,-0.0022519784,-0.004111028,-0.00031664059999999996,-0.0016389906000000003,4.372,0,0
-0.003953456,-0.0021431866000000003,-0.005062802000000001,-0.0006302444000000001,-0.0014422406,4.373,0,0
-0.0035451680000000005,-0.0016305666000000002,-0.005386534,-0.00022563099999999995,-0.0007888326,4.374,0,0
-0.0022677100000000005,-0.0005367686,-0.004917518000000001,-0.00019621679999999998,-0.00041915539999999986,4.375,0,0
-0.0011967934,0.00013610339999999994,-0.0036312362000000004,-0.0005435241999999999,0.00022425960000000002,4.376,0,0
-0.0001103174,0.00029459359999999994,-0.0008527001999999999,-0.0003655776,0.00067598222,4.377,0,0
0.0015909266,0.0006764976000000001,0.0026843218,-0.0004303218,0.00047809622,4.378,0,0
0.0030959146,0.0014433256,0.004801933800000001,-0.0010594712,0.00020159462,4.379,0,0
0.0035078585999999998,0.0015538636,0.005176725400000001,-0.0015149794,0.00047531002,4.38,0,0
0.003632234,0.001273471,0.0048170696,-0.0014125734,0.0006664250199999999,4.381,0,0
0.0032784454399999996,0.001385294,0.0031707836,-0.001323692,0.0008244016,4.382,0,0
0.00151073344,0.0008430478000000001,0.00028636160000000037,-0.0013160688,0.0013738056,4.383,0,0
-0.00036451656,-0.0005436041999999999,-0.0015505444000000002,-0.0006864426,0.0015113632,4.384,0,0
-0.0017854525599999998,-0.0014046301999999999,-0.0022107540000000005,0.0002196894,0.0008674619999999999,4.385,0,0
-0.0032135765600000005,-0.0017595236,-0.002653132,0.0006792894,0.00038064800000000003,4.386,0,0
-0.004428056,-0.0025581962,-0.003227094,0.0006997426,0.000144698,4.387,0,0
-0.004935302000000001,-0.002895096,-0.003718306,0.0006005252,-0.000610236,4.388,0,0
-0.004856964,-0.002410214,-0.003777962,0.0004945795399999999,-0.0010894504000000002,4.389,0,0
-0.004932436,-0.0022561860000000003,-0.0036903700000000005,0.00013615574000000005,-0.0008948981400000001,4.39,0,0
-0.00418554,-0.0017836204000000002,-0.0030933576000000003,-0.00011382754,-0.0009996981400000001,4.391,0,0
-0.002380422,-0.00045751639999999996,-0.0020253118000000004,-6.525754000000001e-05,-0.0014014513400000001,4.392,0,0
-0.0010738079999999999,0.0007567836,-0.0010898254000000001,7.846059999999997e-06,-0.0012735253400000001,4.393,0,0
0.00011863400000000017,0.0019147716000000002,-0.0004893486,0.00020486552,-0.0012018283400000002,4.394,0,0
0.0021430620000000003,0.0029853336000000004,0.00015413540000000002,0.00041274252000000005,-0.001333872,4.395,0,0
0.00385072,0.0035893080000000003,0.000501731,0.0005930782,-0.0008916974,4.396,0,0
0.004358132000000001,0.0036123860000000004,0.00041186680000000005,0.0006630630000000001,0.00010329859999999992,4.397,0,0
0.005097361999999999,0.0030587478000000004,0.0007022644000000001,0.0007602166000000002,0.0010167706,4.398,0,0
0.005797896,0.0019769438000000004,0.0007677448,0.0005453886,0.001614746,4.399,0,0
0.00492395,0.0005200457999999999,0.0003558688,0.00016805340000000007,0.0023132106,4.4,0,0
0.0034134326000000003,-0.0009888602,0.0007642108,8.280200000000023e-06,0.002720734,4.401,0,0
0.002173976,-0.0026656862,0.0020758172000000003,-0.0003694432,0.0024374340000000005,4.402,0,0
0.000647758,-0.0035891760000000003,0.0025012572000000003,-0.0005517038,0.0020375468,4.403,0,0
-0.00134208,-0.0037325080000000003,0.0021084780000000004,-0.00044599560000000007,0.0018265768000000002,4.404,0,0
-0.002316894,-0.0034426400000000003,0.0017378620000000002,-0.0002210496,0.0012700118000000002,4.405,0,0
-0.0026481626,-0.0026606912,0.0005155300000000003,-0.000103175,0.0005709018,4.406,0,0
-0.003429898,-0.0018728372,-0.0009624318000000001,-0.00013181960000000002,0.000268949,4.407,0,0
-0.0034157980000000003,-0.0010773812,-0.0012669898,-0.000210282,-0.0002923558,4.408,0,0
-0.0027011140000000006,-0.0002610771999999999,-0.00047094780000000004,-0.00048635240000000004,-0.0010321798,4.409,0,0
-0.0021331776,0.0006396728,0.0005021362000000001,-0.0007526983999999999,-0.0009697871999999999,4.41,0,0
-0.0010605996,0.001356692,0.0013625842,-0.0009131061999999999,-0.0006978946,4.411,0,0
0.0011302424000000002,0.002356318,0.001866778,-0.0007134471999999999,-0.0004544302000000001,4.412,0,0
0.0028422244,0.003436542,0.001961842,-0.0005857646000000001,0.0004567178,4.413,0,0
0.0034869824,0.004066058000000001,0.002209944,-0.0004268544,0.0011422238,4.414,0,0
0.004271742,0.004416992,0.0025721380000000003,-0.00010105560000000002,0.0011577738,4.415,0,0
0.004234898,0.0038527088,0.002566086,-0.0003645196,0.0015491512,4.416,0,0
0.0027652616,0.0024507008,0.001928798,-0.0005173316,0.0017945156000000002,4.417,0,0
0.0012336216,0.0006067248000000002,0.001259896,-0.0001352342,0.00127205038,4.418,0,0
-5.813239999999994e-05,-0.0015784812000000001,0.0006740601999999999,6.717020000000009e-05,0.0007761363800000002,4.419,0,0
-0.0016489704000000002,-0.0035957332000000003,-0.00023935180000000003,3.478800000000011e-05,0.00033316078,4.42,0,0
-0.0029382044,-0.004864338,-0.0011422358,0.00047065880000000005,-0.00027766901999999995,4.421,0,0
-0.003313936,-0.005000986,-0.0016774678,0.0008583918000000002,-0.0009266010200000001,4.422,0,0
-0.0034498619999999997,-0.0044495708,-0.0024015818,0.0006215866000000001,-0.0009964110000000002,4.423,0,0
-0.0031727840000000005,-0.0033457898000000003,-0.00307317,0.0006212272000000001,-0.0008414218,4.424,0,0
-0.0017998700000000003,-0.0016624698,-0.0026060120000000004,0.00048576680000000016,-0.0010948858000000001,4.425,0,0
-0.00022517400000000019,-4.87838e-05,-0.001380368,8.027799999999998e-05,-0.001406086,4.426,0,0
0.0010299039999999999,0.0010827162000000001,0.00032934800000000014,0.00012574600000000007,-0.001863644,4.427,0,0
0.002697938,0.002152877,0.0025354320000000002,0.00013470220000000007,-0.0024001768,4.428,0,0
0.004564762,0.0033046280000000004,0.00442106,-7.47116e-05,-0.0025112000000000003,4.429,0,0
0.00537603,0.0036915340000000002,0.005054318,-2.8764199999999978e-05,-0.00191802294,4.43,0,0
0.005770026,0.003879708,0.0047137640000000005,1.81778e-05,-0.0013651065400000003,4.431,0,0
0.005744176,0.003756178,0.004031316,-0.00021877716000000003,-0.0008139843400000001,4.432,0,0
0.0044887600000000005,0.0026545460000000002,0.002459062,-0.00010745036000000006,0.00021404165999999996,4.433,0,0
0.002408772,0.0006609279999999999,0.0007862780000000001,0.00030195244,0.00111686566,4.434,0,0
0.000402488,-0.001007894,-0.000491432,0.00055529144,0.0013303086,4.435,0,0
-0.001680772,-0.002228054,-0.001893016,0.0005119974400000001,0.0012434286,4.436,0,0
-0.0035494940000000003,-0.003147332,-0.0036220720000000005,0.00023787840000000004,0.0016474203999999998,4.437,0,0
-0.004395654000000001,-0.003130766,-0.004794668,0.00024061700000000004,0.0014772884000000001,4.438,0,0
-0.004383276,-0.0024269978,-0.005100488,0.00030516700000000007,0.0001723584000000001,4.439,0,0
-0.0041224980000000005,-0.0015117894,-0.0053490280000000005,0.00046750240000000004,-0.0007924456,4.44,0,0
-0.004031822,-0.001093819,-0.0042617382,0.0011611784000000003,-0.0009521658000000001,4.441,0,0
-0.002278228,0.000602369,-0.002935970000000001,0.0017053164000000003,-0.0013568398000000001,4.442,0,0
-0.0015821367999999999,0.001182493,-0.0012190979999999998,0.0013908668,-0.0012267658,4.443,0,0
-0.00012164879999999986,0.0024446068,-0.00060363354,0.0008161546000000002,0.0003154122,4.444,0,0
0.0008429352,0.0028757364,-0.0040335675400000005,0.00037187020000000007,0.0013006322000000002,4.445,0,0
-0.0054005648,-0.003017226000000001,-0.008339207340000002,0.000108528,0.0010297480000000003,4.446,0,0
-0.012168712800000002,-0.008712854000000003,-0.01075501954,0.000403708,-1.2833999999999979e-05,4.447,0,0
-0.014634324,-0.010743506,-0.01257296554,0.0008401612,-0.0017626540000000002,4.448,0,0
-0.016592728,-0.012179128,-0.012872699999999999,0.0011062700000000001,-0.0036062080000000005,4.449,0,0
-0.014743679999999999,-0.010247672000000001,-0.007425485999999999,0.0012194993800000002,-0.004769612,4.45,0,0
-0.00333258,9.53879999999992e-05,0.0004133539999999999,0.0006151295800000001,-0.00480323,4.451,0,0
0.008902060000000002,0.010856827999999999,0.007078314,-0.00051062442,-0.0036456720000000004,4.452,0,0
0.01818378,0.018473032,0.013279594,-0.00141127842,-0.0021275504000000003,4.453,0,0
0.02640712,0.024039900000000003,0.019353154,-0.00225052102,-0.0004664983999999999,4.454,0,0
0.02973402,0.02492142,0.02395752,-0.0030105500000000003,0.0015770476,4.455,0,0
0.02821016,0.021564062000000002,0.02436314,-0.003231416,0.0032084676,4.456,0,0
0.022961402000000002,0.014263865999999998,0.021319125999999997,-0.0031734520000000002,0.0045847676,4.457,0,0
0.014685656000000002,0.005195406,0.015286600000000001,-0.00299054,0.005850636,4.458,0,0
0.0034941960000000006,-0.005176954,0.006183840000000001,-0.0024604474000000003,0.006566664,4.459,0,0
-0.007793044,-0.014708374000000001,-0.00381388,-0.0015919944000000004,0.0064329700000000005,4.46,0,0
-0.017111084,-0.021663196000000003,-0.011973560000000001,-0.0004884624000000002,0.005488186,4.461,0,0
-0.024451066,-0.02588812,-0.017720746,0.00042213159999999984,0.0043048693999999995,4.462,0,0
-0.02846956,-0.0265436,-0.0207415,0.0013509496,0.0029261204,4.463,0,0
-0.02817144,-0.023307122000000007,-0.020977460000000003,0.0025094970000000003,0.0006835063999999999,4.464,0,0
-0.024241440000000003,-0.0170234366,-0.019154320000000002,0.0031110440000000003,-0.0015751516,4.465,0,0
-0.017811492400000004,-0.0091926586,-0.0150539782,0.002956454,-0.0027851156,4.466,0,0
-0.0089533724,-0.0003694585999999998,-0.008865902200000001,0.0027971520000000002,-0.004126543,4.467,0,0
0.0010181876000000005,0.0083178814,-0.0013928622000000009,0.002264804,-0.005458154000000001,4.468,0,0
0.0105722876,0.015915143399999998,0.0061954778,0.0009143420000000001,-0.005388596000000001,4.469,0,0
0.0186818476,0.021530938000000003,0.012674737799999999,-4.9934000000000014e-05,-0.004830844000000001,4.47,0,0
0.02444016,0.02474152,0.017098336000000002,-0.0008889659999999999,-0.004495324,4.471,0,0
0.0263533,0.02461216,0.018636720000000002,-0.002211884,-0.0031117920000000004,4.472,0,0
0.023756508,0.020920596,0.017334326,-0.002843638,-0.0009878360000000002,4.473,0,0
0.018281963999999998,0.014658658000000001,0.013918838000000001,-0.002859766,0.000907352,4.474,0,0
0.010065446,0.006147778,0.008495554000000002,-0.003020286,0.002946048,4.475,0,0
0.0002692859999999988,-0.003166482,0.0018663939999999995,-0.0026494312,0.0044589,4.476,0,0
-0.008480014000000001,-0.011278982000000002,-0.004205386,-0.0015576094,0.004623124000000001,4.477,0,0
-0.015687142,-0.017285118000000002,-0.009662352,-0.0005521194,0.003994870000000001,4.478,0,0
-0.021313778000000002,-0.0209678,-0.014128004000000001,0.0002840066000000001,0.0026743724000000005,4.479,0,0
-0.023815020000000003,-0.021474760000000002,-0.01589472,0.0013979946000000003,0.0009706284,4.48,0,0
-0.02248974,-0.018666324,-0.015266906000000002,0.0021455878000000003,-0.0007323436000000001,4.481,0,0
-0.018969240000000002,-0.0138594748,-0.012985650000000001,0.0022460410000000003,-0.0020957256000000003,4.482,0,0
-0.012909914,-0.0075313428,-0.008810432,0.002466217,-0.0029982276,4.483,0,0
-0.004998954000000001,-0.00017776279999999955,-0.003292062000000001,0.002605509,-0.0036879080000000006,4.484,0,0
0.0032032260000000004,0.0069071572,0.002095358,0.00199254,-0.0036643300000000004,4.485,0,0
0.011041026,0.0127733612,0.006816084,0.0012794926,-0.0029705144,4.486,0,0
0.017184686,0.016968932,0.010821108,0.0010706648,-0.0022052804,4.487,0,0
0.0209984,0.01851456,0.013315929999999998,0.00026229280000000007,-0.0012692724000000002,4.488,0,0
0.021249320000000002,0.016929644,0.013490926,-0.0007440512,0.00040741359999999985,4.489,0,0
0.018125472000000004,0.012777638000000001,0.011671386,-0.0010611302,0.0017521276,4.49,0,0
0.012449586000000002,0.006675862000000001,0.008753510599999998,-0.0010847284,0.002798674,4.491,0,0
0.004875046,-0.00045033800000000065,0.0045544086,-0.00099081202,0.004248274,4.492,0,0
-0.0030452739999999997,-0.007660838000000001,-0.0002680794,-0.00063393602,0.004847924,4.493,0,0
-0.009660334,-0.013487662000000001,-0.0043805454,-0.00021955202,0.004255546,4.494,0,0
-0.014461566,-0.016869856000000003,-0.0079164054,3.947557999999999e-05,0.0033564762000000002,4.495,0,0
-0.017619620000000003,-0.01837512,-0.010803730000000001,0.0005171371800000001,0.0023516976,4.496,0,0
-0.01781288,-0.017720180000000002,-0.011832548000000002,0.0010931856000000002,0.0007525156,4.497,0,0
-0.015417432,-0.014055794,-0.011122302000000002,0.0015512136000000003,-0.0005500484000000002,4.498,0,0
-0.0115356908,-0.008505944,-0.00924978,0.0017578836,-0.0013095324,4.499,0,0
-0.0057169988,-0.0023991840000000013,-0.0058707,0.0017480672000000001,-0.0022019866000000006,4.5,0,0
0.0012529211999999994,0.004165296000000001,-0.001608198,0.0014245018200000003,-0.002846866,4.501,0,0
0.007573521200000001,0.010622316,0.002667742,0.00077142882,-0.0028341119999999997,4.502,0,0
0.0127570932,0.01558711,0.006617004000000001,0.00011165681999999999,-0.0026554480000000004,4.503,0,0
0.016834692,0.018094060000000002,0.009865162,-0.00030289318,-0.002455914,4.504,0,0
0.01828068,0.01814818,0.012019542000000001,-0.00084810838,-0.0017575196,4.505,0,0
0.016627874,0.015810065999999998,0.012430054,-0.001426051,-0.0008975235999999999,4.506,0,0
0.013468954000000002,0.011440816,0.010961728,-0.001688664,0.00010014840000000002,4.507,0,0
0.008890234,0.005683256000000001,0.007903586,-0.0021184460000000004,0.0011497964000000002,4.508,0,0
0.0029292040000000004,-0.0009953040000000007,0.00375248,-0.0022280520000000003,0.0020144444000000004,4.509,0,0
-0.0027781160000000006,-0.006919324000000001,-0.0007577320000000001,-0.0016504786000000001,0.002671586,4.51,0,0
-0.007571250000000001,-0.01112611,-0.004986906000000001,-0.0011532424000000002,0.002831852,4.511,0,0
-0.011750730000000001,-0.014026160000000001,-0.00826346,-0.0011411924000000002,0.002469232,4.512,0,0
-0.014590430000000001,-0.014996460000000001,-0.010406538,-0.0006834282000000001,0.0018227574,4.513,0,0
-0.01501562,-0.01326678,-0.011097816,-0.00012756620000000006,0.0009106034000000002,4.514,0,0
-0.013447926,-0.01018821,-0.010806634000000002,-6.282220000000004e-05,-8.136659999999991e-05,4.515,0,0
-0.0101738138,-0.00654776,-0.009768596000000001,0.0002468496,-0.0008640746,4.516,0,0
-0.005020975800000001,-0.0016924080000000005,-0.007556972000000001,0.0008554856,-0.0023492486,4.517,0,0
0.0010621241999999999,0.003414932,-0.004223036,0.0012060654,-0.004035326,4.518,0,0
0.0065816442,0.007663092,-0.000298282,0.0009515154000000001,-0.004474442,4.519,0,0
0.0109219502,0.011000362,0.004151448,0.000508196,-0.004240398,4.52,0,0
0.014143298,0.013206312000000001,0.00910105,8.888299999999989e-05,-0.0036695628,4.521,0,0
0.015051000000000002,0.012732236000000001,0.011660886,-0.00046680300000000006,-0.0022892838,4.522,0,0
0.013273772,0.0100175708,0.011028577999999999,-0.0011497210000000002,-0.0003982318,4.523,0,0
0.010282808,0.006816958800000001,0.008616944,-0.0014017550000000002,0.0011615502,4.524,0,0
0.006056008000000001,0.0024793828000000003,0.004274176000000001,-0.001160327,0.0023832061999999998,4.525,0,0
0.0007410080000000005,-0.0025797972,-0.0009161500000000003,-0.0006899460000000001,0.0032025070000000003,4.526,0,0
-0.003934252,-0.0066556132,-0.004051802,-0.00025260020000000003,0.0032603120000000005,4.527,0,0
-0.007759844,-0.009742268,-0.004734676,6.598699999999998e-05,0.0033790300000000003,4.528,0,0
-0.01124138,-0.012231616,-0.004690978,0.0004671326,0.0034307239999999996,4.529,0,0
-0.013011560000000002,-0.013174460000000002,-0.003995432,0.0008436886,0.0020154419999999997,4.53,0,0
-0.012481164000000003,-0.011483344000000001,-0.0035190260000000006,0.0010018526000000001,-0.00015036599999999987,4.531,0,0
-0.010879728000000002,-0.008090292000000002,-0.0036176280000000003,0.0011868508,-0.0015195879999999999,4.532,0,0
-0.008025036600000002,-0.003945804000000001,-0.003134696800000001,0.0017563776000000001,-0.002522282,4.533,0,0
-0.0037196386000000006,0.001180736,-0.0018109528000000005,0.00199364,-0.0034034488,4.534,0,0
0.0009200414,0.006005916,0.0002640391999999996,0.0017815154000000001,-0.0034675528,4.535,0,0
0.005018925400000001,0.009244760000000001,0.0030834592,0.0014317942000000002,-0.0028160848000000002,4.536,0,0
0.0087388094,0.011270768000000002,0.0059422372000000005,0.0007949302,-0.0018425504000000002,4.537,0,0
0.011535198,0.012107000000000001,0.007674394,-0.0002467457999999999,-0.001156007,4.538,0,0
0.011968658,0.010875936000000001,0.007845266,-0.0010561478,-0.0007146481999999999,4.539,0,0
0.01051721,0.0084123342,0.006737148,-0.0014336752,0.0004736277999999999,4.54,0,0
0.00793892304,0.0052636482,0.004582974,-0.0019020740000000001,0.0018479498,4.541,0,0
0.0038161670399999995,0.0010409102000000009,0.001152318,-0.00205622,0.0025171994,4.542,0,0
-0.0011210729599999997,-0.0034250898000000004,-0.0025350800000000003,-0.001800772,0.002785696,4.543,0,0
-0.00520445096,-0.007013265800000001,-0.005565994,-0.0015037778,0.0027904080000000003,4.544,0,0
-0.00835354296,-0.009158784000000001,-0.007894146000000001,-0.0010594950000000001,0.0024626220000000002,4.545,0,0
-0.010846256,-0.010507418000000001,-0.008780762000000001,-0.00026396899999999997,0.0018785160000000002,4.546,0,0
-0.01220294,-0.010393114000000002,-0.007722682,0.000622173,0.0011108,4.547,0,0
-0.011755554000000001,-0.008423620000000001,-0.005625492,0.0012429790000000002,0.000393932,4.548,0,0
-0.00982096,-0.0058725222,-0.0033799380000000003,0.001412967,-8.093780000000006e-05,4.549,0,0
-0.007009012,-0.0030307942,-0.0006632040000000001,0.0014711402000000002,-0.0005927692,4.55,0,0
-0.0030912779999999994,0.0005395298,0.00187064,0.0014178922,-0.0010087232,4.551,0,0
0.0012744780000000001,0.0039906658,0.0035559320000000004,0.0009533842000000001,-0.0011174912,4.552,0,0
0.005324752,0.0063285138,0.004537426000000001,0.0007002974,-0.0012061132,4.553,0,0
0.008678738000000002,0.007934610000000002,0.005423512,0.0007983932,-0.0013198774,4.554,0,0
0.01054939,0.008448482,0.0058751,0.0004873824,-0.0012085360000000003,4.555,0,0
0.010030254,0.007023623600000001,0.005279954000000001,5.1419600000000005e-05,-0.0006214500000000002,4.556,0,0
0.008111091418000002,0.004677939599999999,0.004487698000000001,-0.00031685640000000004,0.00017533399999999992,4.557,0,0
0.0054062174180000006,0.0021628916,0.0031397160000000007,-0.0009852836000000002,0.001013114,4.558,0,0
0.0015291534179999995,-0.0010373944000000002,0.001132328,-0.0012950016,0.001744834,4.559,0,0
-0.0020514725819999998,-0.0035668864,-0.000715966,-0.0012322842,0.0018597766,4.56,0,0
-0.004494264582,-0.004748438000000001,-0.00223843,-0.0013065232,0.0015465886,4.561,0,0
-0.006195364,-0.005507182000000001,-0.00371097,-0.0013653072000000001,0.0012790056,4.562,0,0
-0.007287296,-0.0056637680000000004,-0.0047595860000000005,-0.0009502721999999999,0.0007020244,4.563,0,0
-0.007032458,-0.004348272,-0.004680078000000001,-0.0003839341999999999,-5.914760000000005e-05,4.564,0,0
-0.005838698,-0.0025683200000000002,-0.004340590000000001,-0.00011937279999999992,-0.0003899442,4.565,0,0
-0.0044363832,-0.0010517960000000002,-0.003765234,0.00022313700000000015,-0.0009352882,4.566,0,0
-0.0020082792,0.0014496259999999999,-0.0021300880000000005,0.000941915,-0.0017201592,4.567,0,0
0.0011559827999999997,0.004145134,-7.463400000000007e-05,0.0014788140000000002,-0.002069512,4.568,0,0
0.0038333448,0.0055622,0.001712552,0.001305162,-0.002276518,4.569,0,0
0.0059997868,0.006510838,0.0033193120000000005,0.0009140556,-0.0025625279999999997,4.57,0,0
0.00786551,0.0076640779999999995,0.004632720000000001,0.0004240296,-0.0024507,4.571,0,0
0.008394782,0.007153654,0.004638228,-7.590440000000001e-05,-0.0016748592000000004,4.572,0,0
0.007379508,0.0050531932,0.003704176000000001,-0.0006120466,-0.0009022411999999999,4.573,0,0
0.00587418,0.0033166032000000005,0.0025532954000000003,-0.0009827752,-0.0002548502,4.574,0,0
0.0038534430000000002,0.0009710512000000004,0.0010180094,-0.0009423912000000001,0.0009376858000000001,4.575,0,0
0.0012429190000000003,-0.0024068507999999997,-0.0005334625999999999,-0.0006724212,0.0019570818,4.576,0,0
-0.0009946249999999998,-0.0050563128,-0.0017894926,-0.00023970119999999995,0.0018835464000000002,4.577,0,0
-0.002853945,-0.006854968,-0.0025473106,0.00012446400000000002,0.0017338448,4.578,0,0
-0.004690513,-0.008252298,-0.003458112,0.0004885046,0.0016718198,4.579,0,0
-0.005573896,-0.00845358,-0.004183574,0.0007371264000000001,0.0007377957999999997,4.58,0,0
-0.0051503880000000005,-0.007238476,-0.00413442,0.0008008806000000001,-0.00019598220000000005,4.581,0,0
-0.004740054,-0.005563212600000001,-0.0036563988,0.0005363528000000001,-0.0005238876000000001,4.582,0,0
-0.003916336,-0.0034312177999999997,-0.0024871828000000004,0.00039777260000000005,-0.0009276820000000001,4.583,0,0
-0.0018589600000000002,-0.0006882557999999999,-0.00040348679999999983,0.0004316486,-0.0011682112,4.584,0,0
3.0709999999999874e-05,0.0016970342000000001,0.0017836832000000002,5.222720000000003e-05,-0.0008877748,4.585,0,0
0.001261596,0.0036230042,0.0030893732,-0.000420619,-0.0006091688,4.586,0,0
0.0028797320000000003,0.0053127088,0.004024154,-0.0007461872,-0.00041217740000000004,4.587,0,0
0.004414202,0.006520784000000001,0.004522222,-0.001205388,0.00030067859999999996,4.588,0,0
0.004638502,0.006393474000000001,0.003828934,-0.001665254,0.0011435778,4.589,0,0
0.004588486,0.005329678,0.0026634856000000004,-0.00141420646,0.0016227514,4.59,0,0
0.0045616120000000005,0.004144538,0.0017276906,-0.00092846246,0.0018835114,4.591,0,0
0.0034290582,0.0022622420000000002,0.00032214860000000006,-0.00063089026,0.002125872,4.592,0,0
0.0016763282,-0.0001655440000000001,-0.0012711294,-0.00026223666,0.002370652,4.593,0,0
0.0002514841999999999,-0.0019995060000000003,-0.0023991034000000002,0.00026468934,0.0019191940000000002,4.594,0,0
-0.0015767577999999999,-0.0031215600000000007,-0.0034315230000000006,0.0005358218000000001,0.0013502808,4.595,0,0
-0.0037629618000000003,-0.004497222,-0.004252452,0.0005407032000000001,0.0012649768,4.596,0,0
-0.004919614,-0.005021096000000001,-0.004209854000000001,0.0009803750000000001,0.0009287370000000001,4.597,0,0
-0.005097012,-0.0040719618,-0.003731636,0.0013898894,0.00023113100000000006,4.598,0,0
-0.00520512,-0.0031791154000000003,-0.00337385,0.0014941554000000002,-9.893019999999996e-05,4.599,0,0
-0.004679608000000001,-0.0019062894000000002,-0.0024125734,0.0017082314,-0.00021681979999999996,4.6,0,0
-0.002662088,0.00020985459999999987,-0.0009965514000000002,0.0016680282,-0.0005897838,4.601,0,0
-0.0006598540000000002,0.0017281366000000001,0.00034726860000000007,0.0012817162000000003,-0.0006063494,4.602,0,0
0.0005657700000000002,0.0026385784,0.0017801226,0.0011542462,-0.0004050982,4.603,0,0
0.002192826,0.0036478060000000004,0.0034347386,0.0006492836,-5.942699999999997e-05,4.604,0,0
0.003835476,0.004016686,0.00473741,-0.0002237824,0.00031760560000000003,4.605,0,0
0.0040774800000000005,0.0034138120000000004,0.004989604,-0.0002160382,0.0006783798000000001,4.606,0,0
0.003917818,0.0028305606000000004,0.00402821,-0.00013695560000000003,0.0007325292000000001,4.607,0,0
0.003726888,0.0019082844000000005,0.0020309660000000004,-0.0008624316,0.00030999,4.608,0,0
0.0021557679999999997,0.0002750843999999999,-9.734399999999953e-05,-0.001246175,6.406e-05,4.609,0,0
8.905200000000005e-05,-0.0008963496,-0.0017880259999999999,-0.000881685,-0.0006145418,4.61,0,0
-0.001286138,-0.0016593936,-0.002991474,-0.0006241274000000001,-0.002008198,4.611,0,0
-0.002548634,-0.0026755902,-0.0026138470000000003,-0.00036218199999999996,-0.0031117840000000003,4.612,0,0
-0.0034838780000000006,-0.0033867380000000002,-0.0006139049999999999,0.000471364,-0.0034921820000000004,4.613,0,0
-0.0031066080000000003,-0.0031505220000000002,0.0016053490000000003,0.0010828506,-0.003826962,4.614,0,0
-0.0026063939999999997,-0.00268947,0.0029259890000000004,0.001034968,-0.0034838324000000006,4.615,0,0
-0.002468502,-0.0020902304000000003,0.0033059844000000002,0.0009442955999999999,-0.0023078836000000004,4.616,0,0
-0.0016192044,-0.0009054244000000003,0.0033748274000000005,0.0006642922000000001,-0.0016323856,4.617,0,0
-0.00028357839999999985,0.0005073015999999999,0.0026257774000000003,0.00020211439999999996,-0.0012955496000000002,4.618,0,0
0.0009297056000000002,0.0015535896,0.0014384920000000002,-7.05506e-05,-0.0004994676000000001,4.619,0,0
0.0020453676000000004,0.0019741836000000002,0.0005832964,-0.00028209199999999995,-2.3703199999999987e-05,4.62,0,0
0.0032636196,0.00233628,0.00047367300000000003,-0.0007204876,4.1358000000000006e-05,4.621,0,0
0.0035719880000000003,0.0022248254000000003,0.00031837240000000006,-0.0011735002000000001,0.0008944440000000001,4.622,0,0
0.002769618,0.001511895,-0.0004089996,-0.001103512,0.00157448,4.623,0,0
0.002290644,0.001246293,-0.000652254,-0.0006571276000000001,0.0011848948000000002,4.624,0,0
0.0015213295999999999,0.000529575,-0.0008248508,-0.0001900174,0.0006729708000000001,4.625,0,0
-0.0001658384000000001,-0.001113083,-0.0013822868,0.00017008319999999998,0.0005077676,4.626,0,0
-0.0014834484000000002,-0.0020485424,-0.0021862842,0.0003047972,0.000296744,4.627,0,0
-0.0024359244,-0.0022590460000000002,-0.0030693382000000005,-3.795520000000001e-05,0.000214502,4.628,0,0
-0.0038464364000000005,-0.0026427412,-0.0043110544,-0.0005211876,0.0003440772,4.629,0,0
-0.004631682,-0.0024251648000000003,-0.005151884000000001,-0.0005108078000000001,0.000653838,4.63,0,0
-0.004109532,-0.0010749167999999998,-0.004897272,-0.0005359722000000001,0.0012854272,4.631,0,0
-0.0036648439999999996,-7.907120000000007e-05,-0.004422052,-0.0006728382,0.0018408947999999999,4.632,0,0
-0.003163152,0.0003738504,-0.0031295964000000003,-0.0004674428,0.0017359507999999998,4.633,0,0
-0.0022942830000000003,0.0010223676000000001,-0.0009394284,-0.0002222482,0.0012324048000000002,4.634,0,0
-0.0016105042000000003,0.0012759692000000001,0.0010190756000000001,-0.0005752406000000001,0.0005473340000000001,4.635,0,0
-0.0010615805999999999,0.0010872372,0.0025033016,-0.0007720114000000001,-0.00063538,4.636,0,0
-0.00016813059999999994,0.0011364336,0.0038708036,0.00011581660000000002,-0.0015884160000000003,4.637,0,0
0.0010827294000000003,0.0014042260000000002,0.004694154000000001,0.0007946032000000001,-0.0018899944000000002,4.638,0,0
0.0017281824000000001,0.0007783798000000001,0.004132302000000001,0.0007960386,-0.0015671970000000002,4.639,0,0
0.0021832016000000003,-4.426219999999984e-05,0.0031104864000000006,0.0007551560000000001,-0.0006127890000000001,4.64,0,0
0.0025639420000000005,-0.0002845285999999999,0.0024988584,0.0004696926000000003,0.000566579,4.641,0,0
0.00206365244,-0.0009403905999999999,0.0016318564000000002,-0.0003451774000000001,0.001301685,4.642,0,0
0.0011187404399999998,-0.0017146526,0.0007031226,-0.0007885104000000001,0.0017238053999999998,4.643,0,0
0.0007240562399999998,-0.0016321844,0.0005384332,-0.000424732,0.00197508,4.644,0,0
0.00019080023999999997,-0.0012623644000000001,0.0004899808,-0.00021347556000000004,0.00189127,4.645,0,0
-0.00095522376,-0.001606196,-0.00019024720000000004,0.00021346183999999997,0.00178684,4.646,0,0
-0.0012947002,-0.0015061400000000002,-0.0006534052,0.00113364184,0.0012978568,4.647,0,0
-0.0010303775100000002,-0.0009301096000000001,-0.0005989696,0.0012372900400000003,0.0005680068000000001,4.648,0,0
-0.00129923811,-0.0010499196000000003,-0.0009921702,0.0005699080400000002,-0.00016456519999999994,4.649,0,0
-0.00122508291,-0.0010541756000000003,-0.0013688642,0.0002857886,-0.0008209612000000001,4.65,0,0
-0.00022663890999999992,-0.0003368576,-0.0012298602,2.8751200000000024e-05,-0.0012782074,4.651,0,0
0.00045542509000000004,0.00016085679999999997,-0.0012640602,-0.0005435437200000001,-0.0015497682,4.652,0,0
0.0008076084,1.253179999999998e-05,-0.0013617556,-0.0006150065200000001,-0.0013279896000000001,4.653,0,0
0.0015181032000000003,0.00046005979999999997,-0.0009134366,-0.00032717392000000006,-0.0009311982,4.654,0,0
0.0020359440000000005,0.0013496518000000002,-0.0002574838,-0.00023428112000000004,-0.0006701902,4.655,0,0
0.0017173056000000001,0.0016013078,3.509199999999998e-05,-0.00024994312000000004,-0.00038051260000000005,4.656,0,0
0.0014233224000000002,0.0018444554,0.00040264980000000004,-0.000396994,-0.0001374012,4.657,0,0
0.0013314384,0.002087198,0.0006662988000000001,-0.0007093724,-0.0001131294,4.658,0,0
0.0007916602,0.00170109,0.0005350464,-0.001037825,-0.00011170699999999999,4.659,0,0
0.00047871900000000006,0.0011239334,0.0003662774,-0.000803641,-0.00034325699999999997,4.66,0,0
0.0010571674,0.0006700494000000001,0.000383581,-0.000246915,-0.0007351403999999999,4.661,0,0
0.0015978346000000002,0.00025808382,0.0001703888,-0.0001299856,-0.0006161718,4.662,0,0
0.0013308806,3.204221999999999e-05,-0.0004511566,7.39624e-05,-0.00046607403999999997,4.663,0,0
0.0015373404,0.00043251822,-0.0005975498,0.0006550164,-0.00066457384,4.664,0,0
0.0017816236000000002,0.0006927288200000001,-0.0005744496000000001,0.0006080600000000001,-0.00035340934,4.665,0,0
0.0012309749999999998,0.00016890481999999997,-0.001112831,0.000233143,0.00018505666,4.666,0,0
0.0009759930000000001,-0.00033174560000000003,-0.0015878666,0.00048433540000000005,0.00010076186,4.667,0,0
0.00099722576,-0.0006861160000000001,-0.0017375126,0.0006150278,0.0001416641,4.668,0,0
0.00033060216000000006,-0.001325516,-0.00225866,0.0004200566,0.0005683801000000001,4.669,0,0
-0.00014798404000000007,-0.0017373036,-0.002463616,0.0003875482,0.00057851264,4.67,0,0
0.00016883256000000004,-0.0009947816,-0.0015012139999999998,0.0005312064,0.00032689444,4.671,0,0
-1.0468040000000025e-05,-0.00019544959999999993,-4.1746000000000166e-05,0.00038060240000000004,0.00062784524,4.672,0,0
-0.0002179672,0.0001418244,0.001447938,-0.00011467999999999998,0.00103043084,4.673,0,0
0.00029704019999999995,0.0008617864000000002,0.0027713219999999997,-0.00048312079999999997,0.0011869208400000003,4.674,0,0
0.0002367464,0.0013948100000000002,0.0031213606,-0.0008249468000000001,0.0016437178,4.675,0,0
-0.0007135716000000001,0.0012221006000000003,0.0023885625999999997,-0.001255238,0.0022300260000000004,4.676,0,0
-0.0008707981200000001,0.0009248009400000001,0.0016960193999999997,-0.0014542148,0.002349132,4.677,0,0
-0.00021986771999999994,0.0010544523400000002,0.0009971494,-0.0010085178,0.0017263784000000001,4.678,0,0
-0.00017124012,0.0007820917400000001,0.00019536959999999997,-0.0005793694000000001,0.0011575024,4.679,0,0
-0.00029271212000000005,0.00011107174000000007,6.881399999999998e-05,-0.0003152654,0.0008654716,4.68,0,0
0.00042977188,-5.599886000000001e-05,0.000273626,0.00025769860000000004,0.0002689066,4.681,0,0
0.0003655012000000001,-0.0004743392,-0.00011189679999999999,0.0008804394,-0.00038954140000000006,4.682,0,0
-0.0008392728,-0.0009511386,-0.0006777768,0.0011315964,-0.0007555278,4.683,0,0
-0.0009077710400000001,-0.000758664,-0.0006088720000000001,0.0010038956,-0.0010728078000000001,4.684,0,0
-0.0003801396400000001,-0.0004397947999999999,-0.0006281990000000001,0.00114057,-0.001446444,4.685,0,0
-0.0007789390400000001,-0.0002218579999999999,-0.001043377,0.0010377154,-0.0011632830000000002,4.686,0,0
-0.0007241883400000001,0.00047672600000000007,-0.0009749476000000001,0.0006573406000000001,-0.000735099,4.687,0,0
0.00034767166000000005,0.0013663300000000002,-0.0004748708,0.0006313006,-0.0011152290000000001,4.688,0,0
0.0004375275,0.0012918760000000002,-0.0003778598,0.0007099984,-0.001591909,4.689,0,0
0.0001858171,0.0010704846000000002,-0.0003071894,0.0009416800000000001,-0.0020006860000000002,4.69,0,0
0.00047404529999999997,0.0012260438,0.00032488260000000007,0.0009975026000000001,-0.002737142,4.691,0,0
0.00047818321999999996,0.0008177614000000001,0.0003383610000000001,0.0005332774,-0.002497882,4.692,0,0
0.00026006022,9.419959999999998e-05,4.167860000000006e-05,-5.720600000000035e-06,-0.0008963119999999998,4.693,0,0
0.00046211362,0.00019143760000000005,0.0007255806000000001,-0.00040430200000000005,0.00015349419999999994,4.694,0,0
0.0008122906199999999,0.0006287118000000001,0.0014247962000000002,-0.0008529624000000001,0.0006775696,4.695,0,0
0.00082064442,0.0006651298,0.0015514122000000001,-0.00101923754,0.0014361416,4.696,0,0
0.0012635236,0.0009008834,0.0019914424,-0.0006069263400000001,0.0012187208000000002,4.697,0,0
0.0014487046,0.0009641228000000001,0.0022010784,-2.3128340000000023e-05,0.00044021519999999995,4.698,0,0
0.00048109460000000004,0.0004060848,0.0006427624000000001,-5.486634000000004e-05,0.000702647,4.699,0,0
-0.0005519154000000001,-0.0003026432,-0.0015637276000000002,-0.00028360994,0.0010693416,4.7,0,0
-0.000987086,-0.0009805832000000002,-0.0033086656,1.9313199999999983e-05,0.0006870356,4.701,0,0
-0.00200333,-0.0015135944000000002,-0.0048994616,-9.161919999999999e-05,0.0008650924,4.702,0,0
-0.0032112000000000004,-0.001765496,-0.005486470000000001,-0.000549324,0.001448548,4.703,0,0
-0.0029851580000000003,-0.0016826784,-0.0043854459999999994,-0.0001570868,0.001317449,4.704,0,0
-0.0020577280000000004,-0.0014316766,-0.0018400220000000008,9.472219999999998e-05,0.001353077,4.705,0,0
-0.0018117716,-0.0015604966,0.0014099479999999996,-0.0004001534,0.0019764730000000003,4.706,0,0
-0.0015349416000000002,-0.0014761526,0.00431113,-0.0001314002,0.002026335,4.707,0,0
-0.00042494820000000004,-0.0008396526,0.00578074,9.32992e-05,0.0013680954,4.708,0,0
0.0002563118,-0.00048211619999999995,0.0053376555999999995,-0.000239334,0.0007239063999999999,4.709,0,0
0.0005419038000000001,-0.00022040500000000001,0.003914267599999999,-3.296199999999996e-05,-0.00011894559999999995,4.71,0,0
0.0013709074000000001,0.0007236990000000001,0.0025159296000000003,5.745960000000005e-05,-0.0011777756,4.711,0,0
0.0021508034000000003,0.0014533410000000001,0.0011850476,-0.0004528464,-0.0018836016000000001,4.712,0,0
0.00216948,0.001365757,0.0003613578000000001,-0.0007650990000000001,-0.0020235780000000003,4.713,0,0
0.0021071607999999997,0.001461983,0.0007857702000000002,-0.0005722638000000001,-0.0019234960000000002,4.714,0,0
0.0018444768000000001,0.0012792984,0.0012949598,-0.0005998170000000001,-0.0020386860000000005,4.715,0,0
0.0007151388000000001,0.0003247784000000001,0.0005773258,-0.0004646600000000001,-0.001973518,4.716,0,0
-1.0983200000000014e-05,1.6058600000000016e-05,-0.00021563220000000017,-0.00014016240000000002,-0.0016865580000000001,4.717,0,0
-0.00035988199999999995,0.00029503860000000006,-0.0008469884000000002,-0.0001402764,-0.0013126062,4.718,0,0
-0.0009651868000000001,3.7235999999999723e-06,-0.0020634164000000003,-0.0003671756,-0.0006385461999999999,4.719,0,0
-0.0014419188000000002,-5.826720000000002e-05,-0.0030854100000000007,-0.0006071934,0.00013078079999999997,4.72,0,0
-0.0014383848,0.00030093219999999997,-0.0027573692000000005,-0.00041303840000000004,0.00033303,4.721,0,0
-0.0013411153999999998,0.00016106319999999999,-0.0020289852,-0.000396909,0.0001900278,4.722,0,0
-0.0015299746,-0.00032769852,-0.0017942712000000001,-0.00022383939999999998,8.970139999999995e-05,4.723,0,0
-0.001184402,3.530447999999998e-05,-0.0008072198000000001,0.0004910446,-0.0004750746,4.724,0,0
-0.000689826,0.00077143888,-0.00019768980000000005,0.0007237118600000001,-0.0007880178000000001,4.725,0,0
-0.0005576600000000001,0.00097160706,-0.0011213225999999999,0.00052972326,-0.0007407410000000001,4.726,0,0
-0.0002839776,0.00118472626,-0.0017698546,0.00063420066,-0.0008559948,4.727,0,0
0.0002954604,0.00130394278,-0.0016886126,0.00059265286,-0.0008138408199999999,4.728,0,0
0.0003245222,0.0009963607799999999,-0.0015647542,0.00031281306,-0.0005929894200000001,4.729,0,0
1.3005800000000003e-05,0.00057630898,-0.0006870381999999999,0.0005011478,-0.00059770202,4.73,0,0
0.0001442918,0.0005641061199999999,0.0007976238000000002,0.0005917240000000001,-0.0007606580199999999,4.731,0,0
-0.00019422000000000002,3.2349720000000035e-05,0.0016085898000000002,0.0003480522000000001,-0.00032843621999999997,4.732,0,0
-0.0008613480000000001,-0.0011523110800000002,0.0020166298,0.0001913764000000001,0.0004522844000000001,4.733,0,0
-0.0011322724,-0.0021431150800000002,0.002305914,-2.077019999999998e-05,0.0012768470000000002,4.734,0,0
-0.0013602840000000002,-0.00322080528,0.0017095688000000001,-0.00025400440000000003,0.0019869738000000002,4.735,0,0
-0.0018162240000000002,-0.004303594,0.0005292588000000002,-6.601000000000003e-05,0.0023086590000000002,4.736,0,0
-0.0020198200000000003,-0.00491138,-0.0002337272,0.0006141314000000001,0.0021919108000000003,4.737,0,0
-0.0017114566,-0.00439228,-0.0005468933999999999,0.0012859194,0.001457162,4.738,0,0
-0.0014239654000000003,-0.0033509056,-0.0011023334,0.0014400122000000001,0.0004764823999999999,4.739,0,0
-0.0011749544,-0.0026084606,-0.0012626135999999999,0.0013043576000000001,-0.00038350760000000004,4.74,0,0
-0.00036684040000000003,-0.0014545538,-2.3929599999999995e-05,0.0008955486000000001,-0.0006333768000000001,4.741,0,0
0.0003278156,-0.00021770780000000004,0.0012354244,-9.09994e-05,-0.0005279222000000001,4.742,0,0
0.0002402846,0.00020172540000000004,0.0017679026,-0.0008010054000000001,-0.0005892954,4.743,0,0
0.0004524098,0.000611327,0.0023766066,-0.0007076882,-0.0006756938,4.744,0,0
0.0014998308,0.0016628240000000002,0.002801914,-0.000736181,-0.0003973768,4.745,0,0
0.0020954508000000003,0.0023327692000000002,0.002307225,-0.0009442319999999999,-0.00021699560000000003,4.746,0,0
0.0022930248,0.0028482832,0.0015034952,-0.0005824624,-0.00048804240000000003,4.747,0,0
0.0028839864,0.003799128,0.0009124583999999999,-0.0005236364,-6.651439999999997e-05,4.748,0,0
0.002514723,0.003866958,-0.0004036796000000001,-0.00069888272,0.0005778536000000001,4.749,0,0
0.001098051,0.0031274694000000005,-0.0017258156,-0.00012642311999999992,0.0006960796,4.75,0,0
-5.779099999999996e-05,0.002291537,-0.0022077726,0.00036213488,0.000686454,4.751,0,0
-0.000853651,0.0009026489999999998,-0.0026453928,0.0004582544800000001,0.0009711874,4.752,0,0
-0.001683057,-0.0006882750000000001,-0.0025969666,0.0007033448800000001,0.0009123773999999999,4.753,0,0
-0.0018853680000000001,-0.0016408290000000001,-0.0016456756,0.0006578440000000001,0.00036422820000000004,4.754,0,0
-0.001652662,-0.0018834486,-0.0008492016,-3.553199999999996e-05,0.0002855251999999999,4.755,0,0
-0.002167746,-0.0017861265,-0.0006937708000000001,-0.000604866,0.0005537876,4.756,0,0
-0.00239776,-0.0009210945000000001,-0.00042739760000000003,-0.0003656012,0.0001751848,4.757,0,0
-0.0018547634,0.0003088775,-0.000326499,-1.829559999999992e-05,-0.0006404312,4.758,0,0
-0.0011727354,0.0006097505,-0.0005314352000000001,-0.00020675999999999992,-0.0005666404,4.759,0,0
0.00023783660000000037,0.0004729207,-0.00018036380000000004,-0.00045897000000000006,-0.0006406044,4.76,0,0
0.0025474406000000004,0.000813985,0.0003576954,-0.0005797880000000001,-0.0012290724,4.761,0,0
0.004181620600000001,0.000803069,0.0010933461999999999,-0.001163198,-0.0013414284000000001,4.762,0,0
0.004788120000000001,9.241099999999995e-05,0.0018899602,-0.0016668288,-0.0008806304000000002,4.763,0,0
0.005458320000000001,2.6972599999999946e-05,0.0024089214,-0.0012439952,-0.0004673960000000001,4.764,0,0
0.0052710859999999995,0.0001343936,0.002581338,-0.0006376050000000001,-0.00025870120000000003,4.765,0,0
0.0037854700000000004,-0.00041367700000000004,0.001994952,-0.00028812740000000003,0.0002806322,4.766,0,0
0.0024840400000000003,-0.0007900978,0.000531022,6.678599999999995e-05,0.0005693208,4.767,0,0
0.0016523242000000002,-0.0008812838000000001,-0.001384816,0.00022482839999999997,0.00025771079999999997,4.768,0,0
0.0003782522,-0.0011903224,-0.0028520480000000003,-6.368900000000002e-05,0.00019732880000000003,4.769,0,0
-0.0009833458,-0.0015047274000000003,-0.0038312980000000003,-5.774800000000004e-06,0.0005223820000000001,4.77,0,0
-0.0013814938000000002,-0.0014038562000000003,-0.0045184019999999995,0.0005032476000000001,0.0002579114000000001,4.771,0,0
-0.0015464938000000002,-0.0011814680000000002,-0.004635194,0.0006793102000000001,0.00023150300000000006,4.772,0,0
-0.002003564,-0.0010349746000000003,-0.003193734,0.0008417278,0.0008428070000000002,4.773,0,0
-0.0019690880000000003,-0.0006264999760000001,-0.000604872,0.0012383236,0.0006780874000000001,4.774,0,0
-0.0016683696,0.00023767602399999996,0.0014324940000000003,0.0012282308,0.00020923060000000007,4.775,0,0
-0.0016079656,0.000956347424,0.00307916,0.0010294692,0.00036779600000000004,4.776,0,0
-0.0013925362,0.001516784024,0.004838798,0.0010775992000000001,0.00014345180000000006,4.777,0,0
-0.0005352742000000001,0.002412794624,0.00545495,0.0008482258,-0.000334101,4.778,0,0
0.0001369298,0.002902324,0.004487939999999999,0.00042719979999999996,-0.0001227814,4.779,0,0
0.0003353118000000001,0.002714,0.0034967820000000004,0.00034375460000000003,-6.207919999999997e-05,4.78,0,0
0.0009875278,0.0022540465999999998,0.0029555620000000006,0.00042478620000000004,-0.00038892340000000003,4.781,0,0
0.0011019976000000002,0.0013899426,0.0021766918000000004,1.8560599999999973e-05,-0.00022573260000000001,4.782,0,0
9.972360000000001e-05,0.0001007286,0.0010586722000000002,-0.0004421052,0.00022191420000000007,4.783,0,0
-0.0007335724,-0.0009717094,2.998419999999984e-05,-0.0003351012,0.00015903020000000004,4.784,0,0
-0.0012016208,-0.0014378194,-0.0009941858000000001,-0.0001624292,2.012140000000006e-05,4.785,0,0
-0.0019316748000000003,-0.0017548248,-0.0017823258000000002,-0.00026620859999999997,0.00024863200000000004,4.786,0,0
-0.002232078,-0.0018372468000000001,-0.0019904974000000005,-5.0496e-05,0.00034555940000000003,4.787,0,0
-0.0016899866000000003,-0.0014340948,-0.0021001358,0.00044639616,5.941140000000002e-05,4.788,0,0
-0.0013289682000000003,-0.0009947784000000001,-0.0025468638,0.00017885016,2.7664000000000215e-06,4.789,0,0
-0.0007450242000000002,-0.0008185998,-0.0027772338000000003,-0.00027670824000000004,0.0003732038,4.79,0,0
0.0006702918000000001,-0.0004905339999999999,-0.0024948138000000005,-0.00060684304,0.000315513,4.791,0,0
0.0021719518000000004,6.480400000000001e-05,-0.0026153980000000005,-0.0014169200400000002,4.5936800000000004e-05,4.792,0,0
0.0032442604000000002,0.0006678360000000001,-0.0024360946,-0.0016002834000000002,-0.00011622859999999997,4.793,0,0
0.004166206,0.0014481556000000002,-0.0013295586000000002,-0.0009966874000000001,-0.00027031843999999995,4.794,0,0
0.004816124,0.0021940730000000004,-0.0005017634,-0.0006422896000000002,-0.00027758044,4.795,0,0
0.00422414,0.0023397820000000003,-5.3971400000000017e-05,-0.00037261620000000005,-0.00016328263999999996,4.796,0,0
0.003055424,0.0018573860000000001,0.0005990226,0.00015278179999999997,0.00019151136,4.797,0,0
0.001996434,0.001346143,0.0009476072000000001,0.00020661800000000007,0.0006423527600000001,4.798,0,0
0.00012875999999999968,0.00046279899999999996,0.0008211404000000001,-0.000362254,0.0010855696,4.799,0,0
-0.0019748240000000005,-0.0008444350000000002,0.0006825418000000001,-0.0004805308,0.0008633906,4.8,0,0
-0.00308892,-0.0016821270000000003,0.0005226558,-0.00027518999999999997,0.000512743,4.801,0,0
-0.003999152000000001,-0.0021371009999999998,0.00039395980000000004,-0.0001633368,0.0005179701999999999,4.802,0,0
-0.0048670960000000004,-0.002872692,-4.5426199999999955e-05,-8.232240000000004e-05,0.0003345602,4.803,0,0
-0.004440258,-0.003220052,-0.0007091573999999999,0.00037610560000000005,-0.00027396060000000005,4.804,0,0
-0.0037048780000000004,-0.0027489161999999998,-0.001037168,0.00048724380000000005,-0.0007496316000000002,4.805,0,0
-0.0036633980000000004,-0.0023624256,-0.001301232,8.902200000000018e-06,-0.000537317,4.806,0,0
-0.0031851920000000003,-0.0015344202,-0.0014781192,0.000376257,-0.0007318670000000001,4.807,0,0
-0.0018505840000000004,0.00015900180000000003,-0.0011051028,0.0006693916000000001,-0.0009774308000000003,4.808,0,0
-0.0006735,0.0014793878000000002,-0.00041942440000000014,0.00045377982,-0.000844504,4.809,0,0
0.00011764600000000006,0.002077148,0.0004056916,0.00088253862,-0.0006339220000000001,4.81,0,0
0.0015047360000000002,0.0027369494,0.0016233596,0.0015284802200000002,-0.0006992188,4.811,0,0
0.0025759700000000003,0.0030974139999999997,0.0025971468,0.00113952462,-0.0003123840000000001,4.812,0,0
0.00228366712,0.0025984800000000002,0.0028492624,0.0005864986200000001,0.0005232578000000001,4.813,0,0
0.0017241366600000002,0.002275936,0.003138052,0.00042683620000000006,0.0007753318,4.814,0,0
0.00132885466,0.0018354976,0.003330744,-0.0003790058,0.0009832438000000002,4.815,0,0
0.00031794666000000007,0.0005133856000000002,0.0021560200000000002,-0.0010787738000000002,0.0010326438,4.816,0,0
-0.00076152534,-0.0007367963999999999,0.000643832,-0.0010223272,0.0005324278000000001,4.817,0,0
-0.00130195846,-0.0018589423999999998,0.000112636,-0.0008568436000000001,-0.000165845,4.818,0,0
-0.001790684,-0.0031830904,-0.0006372160000000001,-0.000788317,-0.000204669,4.819,0,0
-0.0022948120000000002,-0.004039028,-0.0014602119999999998,-0.000226797,-0.00029644899999999995,4.82,0,0
-0.0024270740000000004,-0.0037353179999999996,-0.0012866592000000002,0.00035166900000000004,-0.0006032968000000001,4.821,0,0
-0.0020569796000000002,-0.0028250554000000005,-0.0010420012,0.0004565974,-0.0007771968,4.822,0,0
-0.0020019096000000003,-0.001895454,-0.0013910152,0.0005279362,-0.0009253104000000001,4.823,0,0
-0.0016386248,-0.000315518,-0.0013785412000000001,0.0005583146,-0.0011458312,4.824,0,0
-0.0007541628000000001,0.001497502,-0.0013977752,0.00040142439999999997,-0.0013392692,4.825,0,0
-4.334279999999998e-05,0.0026128260000000004,-0.0017888320000000002,5.5330399999999995e-05,-0.0007496956,4.826,0,0
0.0009746528000000001,0.0033010154000000006,-0.0015350298,-0.000258669,-0.00016437239999999998,4.827,0,0
0.0021702407999999998,0.0041685820000000005,-0.00112067,-0.0005514394000000001,2.9499999999999866e-06,4.828,0,0
0.002904244,0.004391648000000001,-0.0010665820000000002,-0.0009665342,0.00037128480000000005,4.829,0,0
0.00319424,0.003793592,-0.001103854,-0.001399336,0.0010240588,4.83,0,0
0.003388126,0.0035315920000000005,-0.0007859488,-0.0015455184,0.0009891054,4.831,0,0
0.002762788,0.0027839582000000005,-0.000602839,-0.0015264184,0.0009063528000000002,4.832,0,0
0.0016041780000000004,0.0009642262000000002,-0.00022975680000000007,-0.0011745304000000002,0.0010167196000000001,4.833,0,0
0.00066856,-0.0007093338,0.0013691372,-0.00034650040000000005,4.8667600000000056e-05,4.834,0,0
-0.000402414,-0.0017154418000000001,0.0027877132,4.24026e-05,-0.0008810544000000001,4.835,0,0
-0.001641338,-0.0029678438000000002,0.0029331140200000005,5.572819999999999e-05,-0.0011197448,4.836,0,0
-0.002475382,-0.00410624,0.0025448652200000003,0.0006515942000000001,-0.0014329454,4.837,0,0
-0.002368958,-0.0038804580000000003,0.00222110922,0.0013908902000000002,-0.0018267722,4.838,0,0
-0.0019415273999999999,-0.0031827516000000004,0.0007932208200000001,0.0013168242000000001,-0.0014053356,4.839,0,0
-0.001445883,-0.00254608964,-0.00061829918,0.0014747412,-0.0006343938,4.84,0,0
-0.0006254104000000001,-0.00109316364,-0.0002616252000000001,0.0021096080000000002,-0.00057776,4.841,0,0
0.00012892359999999996,0.00057388236,0.0005044755999999999,0.0017292615599999999,-0.00038174460000000004,4.842,0,0
0.0008526956000000001,0.00169596436,0.0009016956,0.00088888836,0.00022866740000000005,4.843,0,0
0.001922245,0.00280049396,0.001601992,0.0005538219600000001,0.0005652768000000001,4.844,0,0
0.0034440086000000003,0.0036842940000000003,0.002703364,0.00022300136000000004,0.000539245,4.845,0,0
0.004490438,0.0035120279999999995,0.0027790560000000002,-0.00018675144,0.000634021,4.846,0,0
0.004831982,0.0028633320000000006,0.0024053380000000004,-0.0001016374,0.0009332276000000002,4.847,0,0
0.00497734,0.0022674760000000005,0.0020796805999999998,-0.00010446239999999996,0.0009619636000000001,4.848,0,0
0.0038993978000000005,0.000987298,0.0007915526000000002,-0.00032206199999999997,0.0010634256,4.849,0,0
0.0020497258,-0.00038074999999999996,-0.0011654274000000003,7.105660000000005e-05,0.0013061376000000002,4.85,0,0
0.0006951378000000001,-0.0013275700000000001,-0.0033940194,0.00010916000000000005,0.0014442972000000003,4.851,0,0
-0.0007341941999999999,-0.00249656,-0.005737765400000001,-0.0005740936,0.00118106726,4.852,0,0
-0.0024828382000000003,-0.00377816,-0.00738592,-0.0006866094,0.00091044126,4.853,0,0
-0.0035301620000000003,-0.004483868,-0.00747253,-0.00023813840000000004,0.00083775986,4.854,0,0
-0.004058614,-0.0048132439999999995,-0.006395029799999999,-0.0004798901999999999,0.00058836086,4.855,0,0
-0.004606832,-0.005194362,-0.0036967538,-0.0007922716,0.0007624436600000001,4.856,0,0
-0.004100042,-0.004397160000000001,0.0003311601999999999,-0.00011011619999999999,0.0004092116000000001,4.857,0,0
-0.002637466,-0.002498484,0.0032186002,8.770560000000002e-05,-0.0006787023999999999,4.858,0,0
-0.001026108,-0.001275014,0.0043146522000000005,-0.0001682706,-0.001278309,4.859,0,0
0.000585934,-0.00019366600000000016,0.0044981254000000005,0.0002696671999999999,-0.0017010160000000003,4.86,0,0
0.00206464,0.001489554,0.0038944654000000003,0.0006316594,-0.002383904,4.861,0,0
0.0030920140000000006,0.0024002800000000003,0.0026905014000000002,0.0005056328000000001,-0.002343258,4.862,0,0
0.0033459460000000002,0.0023992780000000003,0.0020726414,0.0004339332,-0.0015201551999999999,4.863,0,0
0.003129532,0.0025605240000000002,0.0024532134000000002,0.00047305020000000005,-0.0010057541999999998,4.864,0,0
0.0024264282,0.0023425678,0.003044376,2.134280000000001e-05,-0.000708953,4.865,0,0
0.0012006262,0.0012389418000000002,0.0027814716000000004,-0.0004978306000000001,-0.000157663,4.866,0,0
0.00015087819999999997,0.00019881580000000014,0.0016130576000000002,-0.0005760352000000001,0.000533939,4.867,0,0
-0.0007243978,-0.0006010732,0.00042009359999999995,-0.0006294654,0.000574243,4.868,0,0
-0.0017655978,-0.0013521672,-0.0013030284,-0.0008359972000000001,0.0004655058,4.869,0,0
-0.002370028,-0.0016202170000000002,-0.0030101224000000006,-0.0007497996,0.0004719564000000001,4.87,0,0
-0.0019745568000000004,-0.0012098480000000001,-0.0035060840000000005,8.680040000000002e-05,-0.00013249960000000005,4.871,0,0
-0.0016014710400000002,-0.0005231042,-0.00360551,0.0005653402,-0.0006674882,4.872,0,0
-0.0018441950400000001,5.444880000000002e-05,-0.0038481319999999998,0.0006901858000000001,-0.0006886380000000001,4.873,0,0
-0.0014005586400000001,0.0011122248,-0.0033524360000000003,0.0011236964000000001,-0.0008488916,4.874,0,0
-0.00066035064,0.0021332428000000003,-0.0025588280000000004,0.0009676584000000002,-0.0007725998000000001,4.875,0,0
-0.00044242604000000005,0.0024944158000000005,-0.0024538560000000004,0.0005316898000000001,-1.7453800000000012e-05,4.876,0,0
0.00040493020000000003,0.0031334060000000005,-0.0017448298,0.00047922780000000004,0.00042749879999999995,4.877,0,0
0.0021575122000000004,0.003997172,-0.00021072179999999982,0.0005889858,0.0005730338,4.878,0,0
0.0032356138000000003,0.004396980000000001,0.0009648142000000001,0.0002973622000000001,0.0008344626,4.879,0,0
0.0033815898000000007,0.004363434000000001,0.0016926462000000002,0.00034711914800000007,0.0009606090000000001,4.88,0,0
0.0033875240000000007,0.004298644,0.0027879942000000003,0.000629991748,0.000881957,4.881,0,0
0.0024779644000000006,0.003448264200000001,0.0034999420000000002,0.00016817694799999998,0.0007191634,4.882,0,0
0.0007083844000000001,0.0013785902000000004,0.0028353382000000002,7.633934799999997e-05,0.0006406892000000001,4.883,0,0
-0.0008046476000000001,-0.0006170538,0.0021755911800000003,0.0003756225479999999,0.00019665619999999998,4.884,0,0
-0.0016419096000000002,-0.0020975638,0.0016952115800000001,0.00033202639999999994,-0.0003322378,4.885,0,0
-0.0025573796,-0.0035618578,0.00044205958000000014,-0.00017362920000000006,-0.00013282780000000002,4.886,0,0
-0.00325995,-0.004387398,-0.0009869084200000002,-0.0003825044,0.0004416997999999999,4.887,0,0
-0.002946486,-0.0038016760000000004,-0.00163848462,-0.000405116,0.0009638699999999999,4.888,0,0
-0.002842622,-0.0033266180000000004,-0.0020852896000000004,-0.0007516272,0.0015073844,4.889,0,0
-0.002753998,-0.003379782,-0.0024511120000000005,-0.0007942706,0.0018642420000000001,4.89,0,0
-0.0016840940000000001,-0.002671082,-0.0018201542000000003,-0.0007172174,0.0012162354000000001,4.891,0,0
-0.0004662080000000001,-0.0020194,-0.0008729422000000003,-0.0009309694000000002,0.00013601139999999998,4.892,0,0
0.00015430399999999996,-0.0016685984000000002,-5.959420000000007e-05,-0.0014741158,-0.0001746814,4.893,0,0
0.001130248,-0.0006497544000000001,0.0008960997999999999,-0.0018305248000000003,0.0001203102,4.894,0,0
0.00242457,0.0009402856,0.0018828658,-0.0023552664,0.0005236306,4.895,0,0
0.002860562,0.0021004656,0.0023472059999999997,-0.0029829540000000003,0.0007975068000000001,4.896,0,0
0.0028047700000000003,0.0026954116,0.002340388,-0.0027126420000000004,0.00118303094,4.897,0,0
0.0027866180000000003,0.0032994920000000002,0.002689794,-0.002154624,0.00148265174,4.898,0,0
0.0021643450000000002,0.0031281940000000004,0.0026955300000000002,-0.002217704,0.00153351174,4.899,0,0
0.0003999189999999998,0.0018521080000000003,0.0023751500000000004,-0.001972996,0.00149895774,4.9,0,0
-0.001390085,0.0006437600000000002,0.002047854,-0.0011378873999999999,0.00139087954,4.901,0,0
-0.0030639050000000004,4.589000000000009e-05,0.0010926719999999998,-0.0008295462,0.0013439020000000001,4.902,0,0
-0.004963975000000001,-0.001152482,-0.0006326140000000002,-0.0006398269999999999,0.0015553580000000002,4.903,0,0
-0.006329494,-0.002040236,-0.002181318,0.00027107500000000007,0.001362388,4.904,0,0
-0.006780584,-0.001615428,-0.0030587699999999997,0.001577967,0.000446866,4.905,0,0
-0.006431514000000001,-0.001408668,-0.0037867419999999996,0.0023080984,-4.416340000000003e-05,4.906,0,0
-0.00551081,-0.0013164443999999999,-0.00355925,0.0027832072,-0.0005921700000000002,4.907,0,0
-0.0038433928000000004,-0.0007444048,-0.0023102094,0.003178878,-0.0019925760000000002,4.908,0,0
-0.0020963308,-0.00017586700000000004,-0.0008600474000000001,0.0028831224,-0.002921636,4.909,0,0
-0.00036173079999999994,0.000409889,0.0005147646,0.0020475098,-0.0027207120000000006,4.91,0,0
0.0016762052000000001,0.001465461,0.0018022246,0.001269461,-0.0023851094000000004,4.911,0,0
0.0033989872,0.0021701014,0.0026931606,0.0005383489999999999,-0.0018886078000000003,4.912,0,0
0.0043898140000000006,0.0024254098,0.0027017484,-0.00011566960000000002,-0.0009599958000000003,4.913,0,0
0.00509359,0.002558978,0.0021301566,-2.7179800000000034e-05,-0.0001885424,4.914,0,0
0.0054959399999999995,0.00200841072,0.0012391697999999999,-0.00015089720000000008,8.40599999999996e-06,4.915,0,0
0.004386348,0.00045436071999999995,0.00011550579999999996,-0.0002947228000000001,-0.0002275706,4.916,0,0
0.0027053800000000003,-0.00109963928,-0.0006381162000000001,0.00012340519999999998,-0.00029890479999999996,4.917,0,0
0.0015534430000000003,-0.00193832128,-0.0007225554000000001,6.836599999999996e-05,-6.154879999999998e-05,4.918,0,0
0.000277277,-0.0030757952800000003,-0.0006142852000000001,-0.00013629760000000003,0.0003527678,4.919,0,0
-0.0011391130000000002,-0.004292150000000001,-0.0006065974000000001,0.00032796440000000006,0.0006463313999999999,4.92,0,0
-0.001394996,-0.004427072000000001,-0.0007403354000000001,0.0007308688,0.0008686038000000001,4.921,0,0
-0.000640884,-0.003828508,-0.0014559794000000002,0.0004482428000000001,0.000998722,4.922,0,0
-0.00022891300000000008,-0.003623992,-0.0027038926,0.0007651698000000001,0.0005225516,4.923,0,0
0.000746407,-0.0026482266,-0.002931267,0.0017291432000000001,-0.0007283004,4.924,0,0
0.002187889,-0.0007036406,-0.002066672,0.0020111312000000003,-0.0019186804000000002,4.925,0,0
0.0029129280000000004,0.0008983094,-0.0011409559999999998,0.0019284032000000003,-0.0022849448,4.926,0,0
0.0034235280000000003,0.0023254234,0.00042556600000000005,0.0023084272,-0.0024949304000000004,4.927,0,0
0.004227094000000001,0.0034953754,0.0025345940000000003,0.0022730804000000004,-0.002770996,4.928,0,0
0.004482058,0.0038454859999999995,0.00353797,0.0010815864,-0.0022397948,4.929,0,0
0.004303492,0.0032973458,0.003262254,0.00011389440000000005,-0.0011381752,4.93,0,0
0.004464924,0.0028291658,0.0030877620000000004,-0.0002535718,-0.0005578629999999999,4.931,0,0
0.0037521160000000002,0.0021294578,0.002756416,-0.0008345857999999999,0.000123971,4.932,0,0
0.0018823659999999995,0.0007639077999999999,0.0019520934,-0.0014271662,0.001149593,4.933,0,0
0.00010968199999999994,5.297800000000083e-06,0.0012546604,-0.0016869822000000001,0.0015807158000000002,4.934,0,0
-0.0013961120000000001,-0.00027125060000000005,0.00012925440000000012,-0.0020562902,0.0015471740000000001,4.935,0,0
-0.0033792480000000005,-0.0011897906000000002,-0.0016134676000000001,-0.0022709260000000004,0.0011708938,4.936,0,0
-0.005143392,-0.0021662466000000003,-0.0033833756000000003,-0.0018115784000000002,0.0004293938,4.937,0,0
-0.005653142000000001,-0.0020261906,-0.004702227000000001,-0.0013611290300000003,-0.00034751100000000005,4.938,0,0
-0.005694306,-0.0019655086,-0.005512146000000001,-0.00092530483,-0.000884941,4.939,0,0
-0.005663076000000001,-0.0020046638,-0.005619872000000001,-0.00036448303000000007,-0.0011789434000000001,4.94,0,0
-0.004719874000000001,-0.0010225537999999999,-0.004343364800000001,-6.119902999999998e-05,-0.0013154634000000001,4.941,0,0
-0.0030669108000000002,-2.3238000000000403e-06,-0.0025735068,-0.00032192283,-0.0013576474000000002,4.942,0,0
-0.0018984826000000002,0.0008666122000000001,-0.0014872946,-9.25802e-05,-0.0012839886,4.943,0,0
-0.0006066146000000003,0.0018017722000000002,-0.0002492346000000001,0.0005062476,-0.0010416766,4.944,0,0
0.0011563813999999999,0.002688734,0.0020805114000000003,0.0002770198,-0.0005114700000000001,4.945,0,0
0.0024562333999999996,0.0032594800000000004,0.004685000200000001,0.0001387976,0.000337902,4.946,0,0
0.0031936862000000003,0.0035010619999999997,0.0066237842,0.00014340119999999994,0.0008344366,4.947,0,0
0.003934190000000001,0.0033920680000000003,0.007763728000000001,-0.0002845224,0.0010593496,4.948,0,0
0.0038318320000000003,0.0023421300000000004,0.0071609202,-0.00074429354,0.0014145236,4.949,0,0
0.0023377320000000004,0.000639248,0.0046983502000000005,-0.00033955734000000004,0.0013626516,4.95,0,0
0.0011194492,-0.0011833760000000003,0.0015496541999999998,0.00020240486000000006,0.0010702238000000002,4.951,0,0
1.7461200000000015e-05,-0.002654744,-0.0014167858,0.00023517666000000005,0.0011345712,4.952,0,0
-0.0017667728,-0.00356126,-0.0032671658,0.00039873546,0.0011963702,4.953,0,0
-0.0029535408,-0.003970504000000001,-0.003679282,0.0006925566000000001,0.0007462384,4.954,0,0
-0.0027322088,-0.003707114,-0.0033784899999999996,0.0007757424000000001,0.0003324071999999999,4.955,0,0
-0.0026892174,-0.003150152,-0.003410318,0.00048571240000000004,0.00017717160000000004,4.956,0,0
-0.002284009,-0.0026105720000000002,-0.0035760959999999995,0.00043440419999999996,-0.0002572464,4.957,0,0
-0.0003079310000000001,-0.001677454,-0.003279114,0.000374783,-0.0008396784000000001,4.958,0,0
0.001291379,0.00014026400000000008,-0.0028705848,-0.00014604699999999998,-0.0009950366000000001,4.959,0,0
0.0021823470000000003,0.00204425,-0.0021172002,-0.000564433,-0.000833836,4.96,0,0
0.0030839444,0.0032889060000000003,-0.0006809521999999999,-0.000413415,-0.0006377167999999999,4.961,0,0
0.0036737940000000006,0.0042377180000000006,0.0007721377999999999,-2.4445999999999962e-05,-0.00016593480000000002,4.962,0,0
0.0037247200000000004,0.0042123180000000005,0.0015896337999999999,-4.430000000000498e-07,0.0005210952,4.963,0,0
0.0036035540000000006,0.0032307406,0.0024211466,5.995639999999998e-05,0.0008156556000000001,4.964,0,0
0.0033674440000000003,0.0020593974000000003,0.002879652,0.0003171766,0.00019739820000000006,4.965,0,0
0.0025438102,0.0008622534,0.0020650050000000004,2.042619999999997e-05,-9.033179999999997e-05,4.966,0,0
0.0012135882000000003,-0.00036469659999999995,0.0014996130000000001,-0.0002459278,0.00022957020000000003,4.967,0,0
-0.00036960979999999986,-0.0012994366,0.0012306136000000002,-0.0002436724,6.431519999999994e-05,4.968,0,0
-0.0020182698,-0.0023346252,6.42736000000001e-05,-0.0005992737999999999,0.00037597880000000007,4.969,0,0
-0.0034523918000000002,-0.00355868,-0.0012109324000000002,-0.0007268018,0.0016529528000000001,4.97,0,0
-0.00424332,-0.0037627320000000004,-0.0016475934,-0.00044243939999999996,0.002025959,4.971,0,0
-0.004564220000000001,-0.003665212,-0.0018234252000000001,-0.0003532646,0.0008867050000000003,4.972,0,0
-0.004911064000000001,-0.00365985,-0.0022807018000000003,-0.00027600282,-9.72439999999997e-05,4.973,0,0
-0.004445152,-0.00247732,-0.0020693238000000004,0.00018024358000000003,-0.0009531559999999999,4.974,0,0
-0.003513965,-0.0005148479999999999,-0.0010229938000000003,0.00011557578000000003,-0.002015948,4.975,0,0
-0.002837288,0.0007533500000000001,9.86642e-05,-0.00044791022000000003,-0.0023319239999999995,4.976,0,0
-0.0015445660000000005,0.00185519,0.001018188,-0.0005871676200000001,-0.0018378918000000002,4.977,0,0
0.00030790199999999987,0.003512762,0.002102244,-0.0005003367999999999,-0.0012578798000000002,4.978,0,0
0.001847614,0.00464126,0.0030603320000000007,-0.0006536672000000001,-0.0006730362000000001,4.979,0,0
0.002490365,0.004533022000000001,0.0031509800000000007,-0.0007063388000000001,-0.00013270139999999996,4.98,0,0
0.0030656280000000004,0.00440337,0.0028401200000000002,-0.00039574200000000003,0.0002791186,4.981,0,0
0.0030965260000000005,0.00414615,0.002421644,-0.00044578879999999997,0.0012656444,4.982,0,0
0.0016845840000000003,0.0021675200000000005,0.0016537434,-0.0006417388,0.0024756864000000005,4.983,0,0
0.0001890320000000001,-0.00021294599999999967,0.0007194574,-0.00021258079999999998,0.0025744214000000005,4.984,0,0
-0.0009095560000000001,-0.0017575839999999998,0.00011276659999999994,0.0002725304,0.0015334546000000003,4.985,0,0
-0.002573438,-0.0036514140000000004,-0.0004943234,0.00034084640000000004,0.00048555060000000027,4.986,0,0
-0.004040012,-0.005240614,-0.0012990974,0.00045557238,-0.00017539139999999998,4.987,0,0
-0.0037788260000000003,-0.0049538640000000005,-0.0018173928,0.00043112438000000007,-0.0003978734000000001,4.988,0,0
-0.0034260890000000002,-0.004215328000000001,-0.0023857088,0.00021919424,9.106999999999974e-05,4.989,0,0
-0.003260089,-0.003637552000000001,-0.002955332,0.00011493264000000002,0.001498414,4.99,0,0
-0.001688523,-0.002090124,-0.0026821356,0.00024317364000000003,0.0023724247999999996,4.991,0,0
-2.6064999999999812e-05,-0.00036505,-0.0020423060000000002,0.00042666686000000006,0.0017237228,4.992,0,0
0.0004967274000000001,0.0007397360000000001,-0.0012907504,0.0003465438600000001,0.00044052680000000006,4.993,0,0
0.0013138144,0.002086462,0.00014000360000000008,0.0005606280000000001,-0.0008008872000000001,4.994,0,0
0.0030765784,0.0035537780000000005,0.0013917136000000001,0.0009144436000000001,-0.0014017812000000002,4.995,0,0
0.004131968400000001,0.004246612,0.0017594252,0.0008915878000000002,-0.0011875140000000002,4.996,0,0
0.004403328400000001,0.0041565,0.001797909,0.0009428860000000002,-0.00027959,4.997,0,0
0.00493193,0.0035486158000000005,0.0018589320000000002,0.0012579962000000002,0.0006338860000000001,4.998,0,0
0.0045325980000000005,0.0021592478000000003,0.0012670887999999998,0.0008907576000000003,0.0015536740000000001,4.999,0,0
0.0029501480000000005,5.931799999999874e-06,0.00039191880000000005,0.0002690270000000001,0.002108776,5.0,0,0
0.0016133190000000002,-0.0016707202000000002,-5.8582399999999976e-05,0.0002724272,0.0016766442000000002,5.001,0,0
0.0002740169999999999,-0.0027207821999999998,-0.0005311377999999999,0.00015974740000000004,0.0010615134000000002,5.002,0,0
-0.0013308310000000002,-0.003453088,-0.0013069104000000002,7.381740000000003e-05,0.0008897954,5.003,0,0
-0.002527629,-0.0034652019999999997,-0.0019282511999999998,0.00031954360000000003,0.0004811930000000001,5.004,0,0
-0.0032560210000000004,-0.0027024600000000003,-0.0018368672000000003,0.0004229906000000001,-0.00041444500000000005,5.005,0,0
-0.004311074000000001,-0.002257828,-0.0015398692000000002,3.524840000000004e-05,-0.0007860232,5.006,0,0
-0.0045191300000000005,-0.001848128,-0.0007788292,-0.0001707706,-0.0010417744,5.007,0,0
-0.003263130000000001,-0.00035867600000000005,0.0007610228000000001,-7.069639999999998e-05,-0.0014732504000000003,5.008,0,0
-0.0022339978000000004,0.000632312,0.0024646248,-0.00043876600000000005,-0.0014704774000000001,5.009,0,0
-0.0011099368,0.001141616,0.0034662167999999997,-0.0007308443999999999,-0.0012490842000000002,5.01,0,0
0.0008338951999999999,0.002263878,0.0038909740000000006,-0.0009043524,-0.0011681362,5.011,0,0
0.0027570172,0.003196928,0.004020956,-0.0012849896,-0.0010238282,5.012,0,0
0.0034231472,0.0029648000000000005,0.0032232398000000004,-0.0014988231999999999,-0.0006072802,5.013,0,0
0.003927653000000001,0.00276786,0.0022016866,-0.0013994993999999997,-3.3590799999999956e-05,5.014,0,0
0.00452814,0.0031519420000000005,0.0011639165999999999,-0.0013540934,0.0003254098000000001,5.015,0,0
0.0036338124000000003,0.002578832,-0.0003272974000000001,-0.0012755374,0.0005298268,5.016,0,0
0.0018320564,0.001613566,-0.0019817494000000002,-0.0007842890000000001,0.0008066784,5.017,0,0
0.00045054040000000017,0.00044621600000000015,-0.0030488592,-0.00039039780000000007,0.0007561568000000001,5.018,0,0
-0.0007162536,-0.000892854,-0.003957334000000001,4.058640000000009e-05,0.00016951600000000004,5.019,0,0
-0.0023020496,-0.001972746,-0.005166956,0.00048692240000000007,-0.0003078918,5.02,0,0
-0.002710006,-0.002708272,-0.005034760000000001,0.0010841904000000002,-0.0003915908,5.021,0,0
-0.002183598204,-0.0028104899999999997,-0.004115491200000001,0.0014610620000000004,-0.0008017284,5.022,0,0
-0.0018924806040000002,-0.002660256,-0.0040804332000000006,0.0010278158000000001,-0.0014420448,5.023,0,0
-0.0009653586039999999,-0.00218267,-0.0033239954000000003,0.0008875068000000001,-0.0017355220000000002,5.024,0,0
0.000433457396,-0.0016263571999999998,-0.0005504853999999998,0.0008901548000000002,-0.0019344040000000002,5.025,0,0
0.001349455396,-0.0011120889999999997,0.0017383886000000002,0.00039457880000000003,-0.0023810280000000003,5.026,0,0
0.0020634876,-0.00033541299999999985,0.0029149458000000002,6.409339999999996e-05,-0.002579868,5.027,0,0
0.0034562640000000006,0.0011499430000000003,0.0045309878000000005,0.0002980266,-0.00245701,5.028,0,0
0.004374298,0.0026292670000000002,0.004911298,-7.419240000000003e-05,-0.0020801965,5.029,0,0
0.004334396,0.0031319042,0.0037542574,-0.0003110984,-0.0010917265,5.03,0,0
0.0043893560000000005,0.003345576,0.0027108474000000003,0.0004544756,5.695349999999995e-05,5.031,0,0
0.0042318040000000005,0.0027488177999999996,0.0018375142,0.000583609,0.0011485195,5.032,0,0
0.002713482,0.0011473978,0.0010491548,0.00015285,0.0021377295000000003,5.033,0,0
0.0011206380000000002,-0.00046548620000000005,0.0008357666,0.00036804340000000005,0.0024193100000000005,5.034,0,0
0.000374854,-0.0015104902,0.0006341246,0.0004836004,0.002286092,5.035,0,0
-0.0012435200000000001,-0.0021204802,-0.00036024340000000003,-0.00034866560000000005,0.002092514,5.036,0,0
-0.002539714,-0.0024986260000000003,-0.0010304222,-0.00042922080000000007,0.00154814546,5.037,0,0
-0.0025240160000000005,-0.0021350960000000004,-0.0013000548,0.0001585692,0.00106549106,5.038,0,0
-0.0029797740000000006,-0.0015693808000000005,-0.0016772866,7.77044e-05,0.0005614930600000001,5.039,0,0
-0.00365724,-0.0012070088000000001,-0.0018033116,0.00026877140000000003,-0.00019237294000000002,5.04,0,0
-0.0028978800000000002,-0.0003296248,-0.0014333854000000003,0.0008087994,-0.0008017009400000001,5.041,0,0
-0.002115599,0.0009223212000000001,-0.000860355,0.0005815404000000001,-0.0010814584000000001,5.042,0,0
-0.0019798516,0.0018768591999999999,-0.0005113782,0.0005208824,-0.0011804142000000001,5.043,0,0
-0.0005773836000000001,0.0027310660000000003,-1.6256200000000016e-05,0.0009764298,-0.0010955112000000003,5.044,0,0
0.0011794624000000002,0.0035107100000000002,0.0006070074,0.0005328778,-0.0007401004000000001,5.045,0,0
0.0019684784,0.0034007380000000004,0.0009918812,4.817999999999858e-07,-0.00014412240000000003,5.046,0,0
0.0022347214000000004,0.0024794,0.0010091164000000001,0.000318184,0.00039213559999999993,5.047,0,0
0.0022273292000000006,0.0017501338000000003,0.0008949916000000001,0.000353154,0.0006149458,5.048,0,0
0.0008291432000000004,0.0006860238000000002,0.0002600076000000001,-0.000342964,0.0011706028,5.049,0,0
-0.0017356848000000002,-0.0013026602000000003,-0.0008587644000000002,-0.0005627920000000001,0.001535042,5.05,0,0
-0.0037019468000000005,-0.0027932522000000005,-0.0016407104000000002,-0.0001584022,0.0012160388,5.051,0,0
-0.0050714888,-0.0033202462000000007,-0.0023017180000000003,-0.00016779219999999998,0.0008906818,5.052,0,0
-0.006289914,-0.004374318,-0.002838488,-0.0005607176,0.00043399499999999995,5.053,0,0
-0.0065799840000000005,-0.004990122,-0.002734816,-0.00048262960000000003,-0.000829529,5.054,0,0
-0.00561717,-0.003921045400000001,-0.002338292,-2.0809000000000024e-05,-0.0021511530000000003,5.055,0,0
-0.004941844,-0.0031883274000000005,-0.002392306,3.940539999999998e-05,-0.0023312758,5.056,0,0
-0.004239716,-0.0024622698000000007,-0.002132448,-0.00015329370000000006,-0.0022450656000000003,5.057,0,0
-0.0021046520000000003,-0.0005414538000000002,-0.0010126099999999997,-0.00016034310000000003,-0.0020423684,5.058,0,0
0.0002941640000000002,0.0009572722000000001,-3.146799999999999e-05,-2.7130700000000015e-05,-0.0011444872000000003,5.059,0,0
0.0026229540000000003,0.0019318716,0.0008435000000000002,-0.00015866230000000003,-1.1241800000000025e-05,5.06,0,0
0.005439698000000001,0.0036280996000000003,0.0023674580000000002,-0.0006073125,0.0007349582,5.061,0,0
0.007427734,0.0046064420000000005,0.0037002980000000003,-0.0010023954,0.0010237290000000001,5.062,0,0
0.007688294,0.0039573151999999995,0.0039030259999999995,-0.0012581986,0.0013419826000000002,5.063,0,0
0.0070628,0.0031491509999999998,0.003929024,-0.0011568799999999999,0.0015854694000000003,5.064,0,0
0.005885268000000001,0.002053915,0.0038437219999999995,-0.000789007,0.001962936,5.065,0,0
0.0036819724,-0.00035071099999999986,0.002639766,-0.000786421,0.0027228440000000003,5.066,0,0
0.0013464683999999999,-0.0028474190000000003,0.0008514340000000001,-0.000751173,0.003042068,5.067,0,0
-0.0004844176,-0.0042436942,-0.0005998080000000001,-0.0001737852,0.002926752,5.068,0,0
-0.0022590196000000003,-0.005499782,-0.002193292,-7.912439999999997e-05,0.0030454419999999998,5.069,0,0
-0.004069089600000001,-0.006408876000000001,-0.0037374440000000004,-0.00047106979999999996,0.00256068412,5.07,0,0
-0.005224484,-0.005935628,-0.0042349480000000005,-8.693680000000001e-05,0.0009404381200000002,5.071,0,0
-0.005415840000000001,-0.00444953,-0.003973044,0.00036043079999999996,-0.00050553588,5.072,0,0
-0.005390422000000001,-0.0030621448000000004,-0.0030875208000000006,6.0415400000000025e-05,-0.00159123388,5.073,0,0
-0.00470987,-0.0013312288000000003,-0.0015299088000000002,2.0950819999999994e-05,-0.0028280358800000004,5.074,0,0
-0.0031594652000000003,0.0012023792,0.0003751112000000001,1.3677420000000014e-05,-0.003193322,5.075,0,0
-0.0014983952,0.0030241612,0.0020317392000000004,-0.00068767958,-0.0025464400000000005,5.076,0,0
4.873879999999994e-05,0.0042306232,0.0032869192000000006,-0.0008326299800000001,-0.0019662440000000007,5.077,0,0
0.0016518968000000002,0.0059356719999999995,0.0041232740000000006,-0.0003870163800000001,-0.001649854,5.078,0,0
0.0030303028,0.0070851560000000004,0.004287638000000001,-0.0007264996,-0.0009732,5.079,0,0
0.0034760160000000006,0.00675094,0.00391655,-0.0009444248000000002,-0.000329414,5.08,0,0
0.0036328420000000003,0.006274336,0.0032403178,-0.00028786080000000003,-0.000324176,5.081,0,0
0.0031619604000000003,0.005283255,0.002456172,-0.0002138278,-8.061712000000003e-05,5.082,0,0
0.0010954684000000002,0.002741849,0.0013179236000000001,-0.0004965193999999999,0.00046227624599999996,5.083,0,0
-0.0006977536,0.000280195,0.0002119016,0.00015894860000000003,0.000613204246,5.084,0,0
-0.0016630776,-0.0014125130000000002,-0.0006732944,0.0007436026000000001,0.000392540846,5.085,0,0
-0.0030975856,-0.0029785930000000003,-0.0015536962,0.0006259046,0.000376998846,5.086,0,0
-0.003991298,-0.0037295920000000003,-0.0022149964000000005,0.0007765618,0.000530841566,5.087,0,0
-0.0032663020000000004,-0.0030949738000000003,-0.002453754,0.0010469454,0.00039630700000000004,5.088,0,0
-0.0026920640000000005,-0.0019711292000000004,-0.00242712,0.0007384342,0.00027883720000000005,5.089,0,0
-0.0024808882,-0.0008494812000000001,-0.0026590900000000002,0.0008803182,0.00022366390000000004,5.09,0,0
-0.0012305862,0.0007510508,-0.0023493340000000002,0.0018117182,-7.273249999999999e-05,5.091,0,0
9.229780000000003e-05,0.0022895948,-0.00150226,0.0022602988000000003,-0.0004379541,5.092,0,0
0.0012394378000000002,0.0028750246,-0.0012510900000000003,0.0024397228000000003,-0.00047327869999999996,5.093,0,0
0.0028560898000000003,0.0031698800000000004,-0.0008873098,0.002775182,-0.00045676089999999994,5.094,0,0
0.0046177200000000005,0.0035248880000000003,0.00016627620000000005,0.002563772,-0.0005217306000000001,5.095,0,0
0.005727528000000001,0.003002864,0.0009936582,0.0017323472000000003,-0.0006694888,5.096,0,0
0.006159254,0.001644744,0.0014364102,0.0008298932000000002,-0.0007653428,5.097,0,0
0.0062655620000000006,0.0008322940000000001,0.0024058242,6.96192e-05,-0.0007135402,5.098,0,0
0.005433187999999999,-0.00029316000000000005,0.002791908,-0.0005392448,-0.0008042998,5.099,0,0
0.003547148000000001,-0.002611978,0.001956362,-0.0012299408,-0.000628943,5.1,0,0
0.0017332500000000002,-0.004263930000000001,0.0013299828000000002,-0.0018453480000000001,1.832359999999998e-05,5.101,0,0
0.00030710400000000026,-0.005007814,0.00032848880000000005,-0.0021288220000000003,0.0006243276,5.102,0,0
-0.0015803780000000001,-0.005929662,-0.0014406572000000002,-0.002071398,0.0007163545999999999,5.103,0,0
-0.003057274,-0.006162886,-0.0022959732000000003,-0.0016659500000000002,0.0004918781999999998,5.104,0,0
-0.0033067540000000003,-0.0051724959999999995,-0.0018576494000000002,-0.0010488122000000002,-7.350200000000111e-06,5.105,0,0
-0.0035705420000000003,-0.0041642039999999995,-0.0016275658000000001,-0.00029912640000000006,-0.0004875762000000001,5.106,0,0
-0.0033642788,-0.003019936,-0.0014333018000000002,0.0004182748,-0.0005166141999999999,5.107,0,0
-0.0014329888000000003,-0.0010519420000000002,-0.0005905504,0.0005887043999999999,-2.1989999999999998e-05,5.108,0,0
0.0004398051999999999,0.0005719379999999999,4.279359999999994e-05,4.4422400000000044e-05,0.0008632660000000001,5.109,0,0
0.0012909832,0.001562034,3.177999999999311e-07,-0.00032211740000000005,0.00165283,5.11,0,0
0.0027162531999999997,0.003196186,-0.00032607660000000006,-0.00012987319999999998,0.002030616,5.111,0,0
0.00430432,0.0043772080000000005,-0.0004291646000000001,0.0001149996,0.0018158246000000002,5.112,0,0
0.004389632,0.004160474,-0.001037194,-9.7504e-05,0.00136403706,5.113,0,0
0.003922368000000001,0.003765618,-0.0023442840000000003,-0.00019484800000000002,0.0007236782600000001,5.114,0,0
0.004181112,0.0031986668000000005,-0.00262591,-0.00017574420000000004,-2.2967739999999956e-05,5.115,0,0
0.003154462,0.0013560008000000003,-0.0012179740000000004,-0.0005850072000000001,-0.00025857234000000004,5.116,0,0
0.00042529199999999986,-0.0007601912000000001,0.0009101779999999996,-0.0009062666000000002,0.00012107506000000009,5.117,0,0
-0.0017232880000000001,-0.0019424972000000001,0.0029105439999999997,-0.0006823424000000002,0.00024961580000000007,5.118,0,0
-0.0035803760000000006,-0.0029173712000000003,0.0042842620000000005,-0.0004396604,0.00023636700000000008,5.119,0,0
-0.00575196,-0.00362216,0.004132122,-0.0005916082,0.0003657136000000001,5.12,0,0
-0.006539552,-0.0034856320000000007,0.002314658,-0.00044837960000000004,-0.00019704579999999992,5.121,0,0
-0.005921386,-0.0022480960000000006,0.00012961599999999993,-0.0002855782,-0.0009391658,5.122,0,0
-0.005613784000000001,-0.0012363460000000001,-0.001513852,-7.8826e-05,-0.0010491338,5.123,0,0
-0.004535184,-1.9012e-05,-0.0018301434000000001,0.000520248,-0.0008476229999999999,5.124,0,0
-0.0024473260000000005,0.0022784240000000002,-0.0009597374000000001,0.0010864020000000002,-0.00082523,5.125,0,0
-0.0007551359999999999,0.00393291,-2.3713399999999996e-05,0.0009291234,-0.00038122652000000006,5.126,0,0
0.0010566059999999999,0.004555038,0.0007866906,0.00033448740000000004,0.00019518748000000002,5.127,0,0
0.003322472,0.0051976520000000005,0.0019014266,-6.557899999999999e-05,-2.6706919999999968e-05,5.128,0,0
0.004986796,0.005610262000000001,0.0026721979999999998,-0.000694977,-0.00049586812,5.129,0,0
0.005426712,0.004595752000000001,0.0026360299999999997,-0.0009572428000000001,-0.00059915172,5.13,0,0
0.005338852,0.0036444560000000008,0.00269012,-0.0005317638,-0.0007416367999999999,5.131,0,0
0.0043618732,0.0027512186800000005,0.0022844688000000003,-0.00019736780000000005,-0.0012578408000000001,5.132,0,0
0.0021782352000000002,0.0006641906800000002,0.0007141508000000003,-0.00020487179999999997,-0.0008199336000000001,5.133,0,0
-0.0002591488000000002,-0.0015763513200000002,-0.0011833532,-0.00015930779999999997,0.0002941344,5.134,0,0
-0.0022320348,-0.00319596732,-0.0027573532,-0.00019907979999999998,0.0008400944000000001,5.135,0,0
-0.0039309268,-0.00490726132,-0.0043578152,-0.00056141174,0.001215296,5.136,0,0
-0.005395844,-0.006485622000000001,-0.005448726,-0.00039068974,0.0015536442000000001,5.137,0,0
-0.005699928,-0.006486476000000001,-0.005296826,0.0003168642600000001,0.0011623640000000001,5.138,0,0
-0.004838168,-0.005639736,-0.004562858,0.00075106226,7.896200000000008e-05,5.139,0,0
-0.0035663839999999993,-0.0045917810000000005,-0.0033262613999999998,0.00107054406,-0.00021355780000000002,5.14,0,0
-0.0016036339999999996,-0.0027549790000000003,-0.0015307813999999999,0.001427304,-0.0004865648,5.141,0,0
0.0009922260000000001,-0.00043623899999999994,0.00014842460000000007,0.0014505308,-0.001464385,5.142,0,0
0.0027390460000000006,0.001281969,0.0014148186000000002,0.0012783687999999998,-0.0019044487999999998,5.143,0,0
0.0037505260000000006,0.0026529509999999997,0.0027091286,0.0012759868,-0.0018402328,5.144,0,0
0.004881816000000001,0.0038554139999999997,0.004143872,0.0011939824,-0.0018694894,5.145,0,0
0.005160118,0.00406476,0.004708824,0.0009223825999999999,-0.0014842304,5.146,0,0
0.004620538,0.003603788,0.00456986,0.00042054579999999987,-0.0002680043999999999,5.147,0,0
0.004428022,0.003196272,0.004594124,-9.033020000000008e-05,0.0004496170000000001,5.148,0,0
0.0034233480000000005,0.00197863,0.0035684048,-0.0005452202,0.0008459428,5.149,0,0
0.0009783300000000003,-0.00011291200000000006,0.0014722587999999996,-0.0010804058,0.0012049032,5.15,0,0
-0.001705294,-0.001755506,-0.00031890719999999996,-0.0014433340000000001,0.0011788992,5.151,0,0
-0.0040639280000000005,-0.0031598780000000005,-0.0019109252,-0.001597684,0.0012100432000000001,5.152,0,0
-0.0060333520000000005,-0.004455092000000001,-0.0034355372000000003,-0.0014604874,0.0009869128,5.153,0,0
-0.007153428000000001,-0.005159584000000001,-0.004289694,-0.0011958639200000001,0.0006621029999999998,5.154,0,0
-0.006713162000000001,-0.004622084,-0.004562216,-0.00088309832,0.00033892300000000003,5.155,0,0
-0.005552804,-0.0032436800000000005,-0.004527262000000001,-0.0006273503200000001,-8.745500000000001e-05,5.156,0,0
-0.0043066680000000005,-0.0015826200000000007,-0.00391749,-0.00028848372,-0.0005591152000000001,5.157,0,0
-0.002356418,0.0007650339999999998,-0.002694038,6.690968e-05,-0.0008763222,5.158,0,0
-0.000231552,0.0029236640000000003,-0.00107163,0.000130186,-0.0008144082,5.159,0,0
0.0011103220000000002,0.003977318,0.000583218,0.0001609682,-0.00042299420000000006,5.16,0,0
0.0026744240000000003,0.00465825,0.002624044,0.0006487002000000001,0.0002973858,5.161,0,0
0.004333926,0.005046232000000001,0.0043866,0.0010699436,0.0010538919999999998,5.162,0,0
0.004637526,0.003964548,0.00494454,0.0007414338000000001,0.001756006,5.163,0,0
0.0043770960000000005,0.002715101,0.005216364,0.0006875300000000001,0.0022894,5.164,0,0
0.004089746,0.00211596932,0.004819632,0.0005342830000000001,0.002292622,5.165,0,0
0.0024989659999999996,0.0005668433200000002,0.00317346,-0.00023734499999999997,0.0018305475999999998,5.166,0,0
0.0001357979999999999,-0.00135101468,0.001257184,-0.0006546254000000001,0.0012643076,5.167,0,0
-0.001593362,-0.0024179306800000003,-0.0008034680000000001,-0.0006551104,0.000792239,5.168,0,0
-0.003383278,-0.0033449756800000004,-0.002986236,-0.00041953640000000006,-8.566900000000002e-05,5.169,0,0
-0.005264354000000001,-0.004779,-0.004427822,1.1336799999999949e-05,-0.0013139090000000003,5.17,0,0
-0.005937594,-0.0054337280000000005,-0.0049374020000000005,9.64068e-05,-0.0017895046000000003,5.171,0,0
-0.005474894,-0.004658072000000001,-0.004913687999999999,1.2969199999999977e-05,-0.0015179906000000003,5.172,0,0
-0.005019144,-0.003775056600000001,-0.004330322,0.0002695338,-0.0010028720000000001,5.173,0,0
-0.004229572,-0.0024036146000000003,-0.0030032426,0.00034623179999999996,-0.00020542200000000008,5.174,0,0
-0.0026755062,-0.00021551259999999994,-0.0017047306,0.0002746332,0.000626482,5.175,0,0
-0.0013205061999999998,0.0015904074,-0.0010158634,0.0003058226,0.0009959684,5.176,0,0
-6.470819999999998e-05,0.0026037694,-0.00043313060000000004,0.0003604231999999999,0.0007437192000000001,5.177,0,0
0.0015601398000000002,0.0035380320000000004,0.00037261940000000006,0.00017940436,0.00031906079999999997,5.178,0,0
0.0028780878,0.004061778,0.0006982620000000001,-0.00026508304,-2.8385000000000007e-05,5.179,0,0
0.0035528279999999996,0.0032155395999999997,0.0005067558,-0.00023860523999999999,0.000255237,5.18,0,0
0.003592762,0.0026181866,0.0008570886,-9.407563999999996e-05,0.0004093026,5.181,0,0
0.0034134060000000003,0.0011114585999999998,0.0010132916000000001,0.00015204956,-0.0007295081999999999,5.182,0,0
0.0018208040000000005,-0.0008556314000000003,0.0005177056,0.0010559546000000002,-0.0021329358,5.183,0,0
0.0006448119999999998,0.0007495825999999999,0.0010519696,0.0015699860000000002,-0.0033573900000000005,5.184,0,0
0.003694706,0.005110440999999999,0.0032189697999999997,0.0013087606000000002,-0.004405344,5.185,0,0
0.009181396,0.009828884,0.0060766478,0.0012956952000000002,-0.0046973758000000004,5.186,0,0
0.014918896000000001,0.015484338,0.009607936000000001,0.0008167954000000001,-0.0036577790400000006,5.187,0,0
0.020933336000000004,0.0201448,0.0125085,-0.0009491126,-0.0014981970400000004,5.188,0,0
0.02438322,0.018988064,0.012519628000000001,-0.0024592586,0.0010761649600000002,5.189,0,0
0.021540232,0.013614764000000001,0.0102065438,-0.0031499364000000005,0.00315018896,5.19,0,0
0.013999642000000003,0.005716344000000002,0.0054320817999999995,-0.0034412680000000004,0.004804308760000001,5.191,0,0
0.0032150420000000004,-0.004435036000000002,-0.0012767382000000009,-0.00334343,0.0063826379999999995,5.192,0,0
-0.008477858000000001,-0.014404476,-0.006629938200000001,-0.0025488221999999997,0.006829643999999999,5.193,0,0
-0.018533738,-0.022377760000000003,-0.009929826200000002,-0.0011694942000000002,0.006154056,5.194,0,0
-0.02701837,-0.0275453,-0.012972702000000003,-3.774199999999968e-06,0.004721469400000001,5.195,0,0
-0.03199684,-0.02984024,-0.0154241,0.0012436518000000002,0.0024267154,5.196,0,0
-0.032376539999999995,-0.0280341,-0.01581884,0.0025693858000000003,-0.0002419045999999999,5.197,0,0
-0.02911848,-0.022597046,-0.015094920000000001,0.003185574,-0.0027324766000000004,5.198,0,0
-0.022718084000000003,-0.014857057999999998,-0.013403635999999998,0.003451116,-0.0050905306,5.199,0,0
-0.012792564000000001,-0.005176178,-0.009001236,0.003678904,-0.006773292,5.2,0,0
-0.0012519040000000016,0.005396621999999999,-0.002007595999999999,0.0031127560000000004,-0.007439518000000001,5.201,0,0
0.009436616,0.014434682,0.005341104000000001,0.0022176884,-0.0074136079999999995,5.202,0,0
0.018647096000000002,0.021147308,0.011877504,0.0015741878,-0.006438535999999999,5.203,0,0
0.02581346,0.025849340000000002,0.01735706,0.0006810017999999999,-0.0044807524,5.204,0,0
0.028830860000000003,0.02684754,0.0199178,-0.0006080702000000001,-0.0020505944,5.205,0,0
0.026918820000000003,0.023569680000000003,0.018941972,-0.0017450022000000001,0.0005693456000000002,5.206,0,0
0.02240321,0.01769748,0.015475622000000001,-0.0024812226,0.0030479156,5.207,0,0
0.015275572000000003,0.009494700000000002,0.009674624,-0.0029359060000000003,0.004855531600000001,5.208,0,0
0.005190431999999998,-0.0007963000000000007,0.0021506040000000004,-0.002925304,0.0062122240000000006,5.209,0,0
-0.004772688000000001,-0.010619,-0.0046464160000000004,-0.0024932580000000004,0.006748016,5.21,0,0
-0.012826408000000001,-0.01809426,-0.009613248000000001,-0.0016088562000000002,0.006253474,5.211,0,0
-0.019557638000000002,-0.023165480000000002,-0.013535558000000001,-0.0006925922000000002,0.005089898,5.212,0,0
-0.023623240000000004,-0.02510218,-0.015333080000000002,0.0002955698000000001,0.003179312,5.213,0,0
-0.023599260000000004,-0.02289094,-0.014293698000000002,0.0012238898,0.0008615019999999999,5.214,0,0
-0.021050274,-0.017828353999999998,-0.012022992000000001,0.0017861518000000002,-0.0014017120000000003,5.215,0,0
-0.015741617000000003,-0.010722752,-0.008955852,0.0023029520000000005,-0.003404216,5.216,0,0
-0.007601657000000001,-0.0020058719999999997,-0.004145848,0.00236025,-0.004707466,5.217,0,0
0.000911503000000001,0.006596668000000001,0.0014966520000000002,0.001841795,-0.004783896,5.218,0,0
0.008611243000000001,0.013513747999999999,0.00625569,0.0013140788,-0.0040964138,5.219,0,0
0.015505897000000001,0.018608322,0.010395764,0.0010185094,-0.0028487344000000005,5.22,0,0
0.020618499999999998,0.021412840000000002,0.013942504000000001,2.0809400000000025e-05,-0.0011724883999999999,5.221,0,0
0.021944280000000004,0.02065252,0.015373940000000001,-0.0011991786000000002,0.0005381036,5.222,0,0
0.0203528,0.017281218,0.014286292000000003,-0.0015997755999999999,0.0018875396,5.223,0,0
0.016803474,0.012374338,0.0112562796,-0.001856207,0.0025388694,5.224,0,0
0.010171034000000002,0.005816972000000001,0.0064225435999999995,-0.0022019716,0.0033803979999999997,5.225,0,0
0.0015915340000000008,-0.0015694279999999999,0.0005972836000000012,-0.0020727356000000002,0.004248344,5.226,0,0
-0.006073446,-0.008055688,-0.0049602564,-0.0013651612,0.00401544,5.227,0,0
-0.012476626000000001,-0.013090846,-0.0098757884,-0.0010760342,0.0031095148,5.228,0,0
-0.017776800000000002,-0.016699566000000002,-0.013674736,-0.0009764916000000001,0.0022097168,5.229,0,0
-0.01985816,-0.017705980000000003,-0.015407420000000002,-0.00013296960000000002,0.00035311079999999974,5.23,0,0
-0.01860502,-0.015547732000000002,-0.015271020000000001,0.0007790144000000001,-0.0022835272000000005,5.231,0,0
-0.015631250000000003,-0.011512678000000002,-0.013802736,0.001021336,-0.003960191200000001,5.232,0,0
-0.010427292000000001,-0.006210972000000001,-0.010356445740000001,0.0011940170000000001,-0.0047115080000000005,5.233,0,0
-0.003291032,0.00033822800000000075,-0.005324233740000001,0.001390151,-0.0050879,5.234,0,0
0.0037436880000000002,0.0066791080000000004,-0.00019910573999999985,0.0007011428,-0.005221000000000001,5.235,0,0
0.009805308000000002,0.01133514,0.00461341426,1.5897599999999995e-05,-0.004663634000000001,5.236,0,0
0.014884478000000003,0.015103786000000001,0.00898739026,-3.851940000000001e-05,-0.0035058156,5.237,0,0
0.01794196,0.017545420000000003,0.011713120000000002,-0.0004782554,-0.0024675464,5.238,0,0
0.0177166,0.016353122,0.012496408,-0.0011121464,-0.0007240743999999998,5.239,0,0
0.015662694,0.0129524444,0.012044934,-0.0013738822,0.0013162896000000002,5.24,0,0
0.0115952646,0.0081316684,0.009804414000000001,-0.001743991,0.0025888916000000005,5.241,0,0
0.0047931646,0.0010154484000000005,0.005972548,-0.002170264,0.0032422672,5.242,0,0
-0.0021535954,-0.0062749716,0.0019507240000000005,-0.0018939014,0.0031803013999999997,5.243,0,0
-0.008003555400000001,-0.011598173600000001,-0.002009474,-0.0013636854,0.0023765834,5.244,0,0
-0.0135522494,-0.015380616,-0.006051028,-0.0008998252000000001,0.0013405373999999999,5.245,0,0
-0.01780286,-0.01734608,-0.008880328,-4.253319999999994e-05,0.00045636340000000013,5.246,0,0
-0.01859604,-0.016093596,-0.009818422,0.0010191688000000003,-0.0005961066,5.247,0,0
-0.017036423999999998,-0.012887802,-0.009587782,0.0018054642000000002,-0.001278024,5.248,0,0
-0.013783022000000002,-0.008835934,-0.0082102,0.0024622802000000004,-0.0016884346,5.249,0,0
-0.007903278,-0.003785885999999999,-0.005261050000000001,0.003251326,-0.0020418505999999998,5.25,0,0
-0.0007640580000000002,0.0016424540000000002,-0.00166731,0.003398074,-0.0016686882,5.251,0,0
0.005586282,0.00609475,0.0016945020000000003,0.0028515978000000003,-0.0008397102000000001,5.252,0,0
0.010648986000000001,0.009440796,0.005194886,0.0025793418,-5.108820000000004e-05,5.253,0,0
0.014641564000000001,0.012531608000000001,0.008465322,0.0022285438,0.00047070240000000006,5.254,0,0
0.016199740000000004,0.013886700000000002,0.010264372,0.0010545378000000002,0.0013416044000000003,5.255,0,0
0.015142416000000002,0.01312303,0.01045277,-0.0002325702000000001,0.0021735260000000003,5.256,0,0
0.012693870000000001,0.011156092000000001,0.009599564000000001,-0.0010957080000000001,0.002764656,5.257,0,0
0.008264880000000002,0.0072869020000000005,0.0070510204,-0.0019346060000000004,0.0034928140000000003,5.258,0,0
0.002288940000000001,0.0018451620000000005,0.0031530644000000003,-0.002538262,0.0038294040000000007,5.259,0,0
-0.00304622,-0.003196498,-0.0007708036,-0.0023438006,0.0037504,5.26,0,0
-0.007187056000000001,-0.007303588,-0.0042990816,-0.0015048010000000003,0.0029757338,5.261,0,0
-0.01052751,-0.01056759,-0.0073186876,-0.0005451190000000002,0.0015453837999999998,5.262,0,0
-0.012128100000000001,-0.011577144000000001,-0.009486844000000001,0.00019640500000000003,-0.0001266402000000001,5.263,0,0
-0.011502388000000002,-0.010282396000000001,-0.010516807999999999,0.0006278864,-0.0017701742,5.264,0,0
-0.009790046000000002,-0.0080942612,-0.010469844,0.0009427816000000002,-0.0030602022,5.265,0,0
-0.0074903538,-0.0051945352,-0.008884669999999999,0.0012657240000000002,-0.003970718,5.266,0,0
-0.0040452298,-0.0009975072,-0.005753088,0.001599252,-0.00450741,5.267,0,0
0.0002513341999999996,0.0034319168000000004,-0.0018492100000000002,0.0017387620000000003,-0.004530681999999999,5.268,0,0
0.0042700622,0.006602908800000001,0.00242795,0.0016269600600000002,-0.00393709,5.269,0,0
0.0078407002,0.009096754,0.006509974,0.00122061546,-0.0029430946000000005,5.27,0,0
0.010956488,0.011182908,0.009266420000000001,0.00022320746,-0.0016288246,5.271,0,0
0.01211967,0.011355819999999999,0.009500006,-0.0007918965400000001,0.00014761340000000003,5.272,0,0
0.011019948,0.009569616000000001,0.008150008000000002,-0.00141411254,0.0016710514000000001,5.273,0,0
0.00865198022,0.006962876000000001,0.0062673979999999995,-0.001867692,0.0025057034,5.274,0,0
0.00477472222,0.0028465780000000006,0.0036302116,-0.002168928,0.003233238,5.275,0,0
0.00027750621999999983,-0.002158922,0.0017801196000000001,-0.00199409,0.0038117439999999997,5.276,0,0
-0.00338120378,-0.006148402,0.0012333836,-0.00153488424,0.0038436799999999995,5.277,0,0
-0.0060807557800000005,-0.009343678,0.0005011176,-0.0014329160399999998,0.003742326,5.278,0,0
-0.008149988,-0.011774898,-0.0013327804000000001,-0.0011597892400000002,0.003588526,5.279,0,0
-0.009113932000000002,-0.011889350000000002,-0.003629694,-0.00039349724000000005,0.0028106464,5.28,0,0
-0.008474086000000002,-0.01017019,-0.005847424,0.00026575476,0.0017563532,5.281,0,0
-0.0069738560000000005,-0.008129470000000001,-0.007572579999999999,0.00043576780000000005,0.0008085270000000001,5.282,0,0
-0.004455422,-0.0047198480000000004,-0.007629614000000001,0.0007553806000000001,0.0001239934,5.283,0,0
-0.0008349340000000003,-0.00017921400000000046,-0.005499084,0.0011818898,-0.00039622060000000007,5.284,0,0
0.002952226,0.003675836,-0.0019359079999999999,0.0008473536000000001,-0.0008639230000000002,5.285,0,0
0.006320536,0.006574356,0.001236462,0.0004521294,-0.0009644664000000001,5.286,0,0
0.00945045,0.008888436,0.0037529500000000006,0.0003551494,-0.0011202402,5.287,0,0
0.011388346,0.009887672,0.005354198000000001,-0.00017695560000000006,-0.0013681026,5.288,0,0
0.011159798,0.008971195999999999,0.0055117280000000005,-0.0008144896,-0.0008311446,5.289,0,0
0.009753858000000002,0.007311410000000001,0.005103964000000001,-0.0007717462000000001,1.3637400000000128e-05,5.29,0,0
0.0071608086,0.004834270000000002,0.0039096876000000004,-0.0007688526,0.00033754520000000004,5.291,0,0
0.0032576405999999994,0.0014682979999999994,0.0018747096000000002,-0.0010752134000000001,0.0008073548,5.292,0,0
-0.0007289454000000003,-0.00152876,-0.00010503639999999968,-0.0006935107999999999,0.0013287108000000001,5.293,0,0
-0.0037528934000000003,-0.003976412,-0.0018086384,-0.00017319960000000003,0.0014077807999999998,5.294,0,0
-0.006321291400000002,-0.006151322000000001,-0.0033884084,-0.00019684860000000005,0.0009894298,5.295,0,0
-0.008477402000000002,-0.007364680000000001,-0.004348838,-7.217540000000001e-05,0.00044289259999999995,5.296,0,0
-0.009054920000000001,-0.006911138000000001,-0.004487518,0.0003676446,-6.506300000000002e-05,5.297,0,0
-0.008575958,-0.0057024134,-0.004357096,0.0005468340000000001,-0.000888259,5.298,0,0
-0.007668236,-0.0041689876,-0.004071396,0.0004656764,-0.0015661110000000002,5.299,0,0
-0.005426294,-0.0017326196,-0.0033249904000000005,0.0006566866000000001,-0.0016498398,5.3,0,0
-0.0022105700000000002,0.0011273784,-0.0021199344,0.0007258332,-0.0015657038000000002,5.301,0,0
0.0004600940000000003,0.0030214424,-0.0007069664000000002,0.0003392514000000001,-0.0015906098,5.302,0,0
0.0030049660000000004,0.0040145998,0.0015148876000000001,0.00022879020000000002,-0.001156391,5.303,0,0
0.005644604000000001,0.005274226000000001,0.0041978916,8.321520000000002e-05,-0.0009270148,5.304,0,0
0.006715082,0.005899044000000001,0.006144862,-0.0003604672,-0.001046221,5.305,0,0
0.006172558,0.005254948000000001,0.007055240000000001,-0.00021169040000000003,-0.0008502438,5.306,0,0
0.005412716,0.0042655586,0.006928274,0.0001848714,-0.0006514958,5.307,0,0
0.00367458,0.0023976186000000004,0.0053031482,0.000164142,-0.000644143,5.308,0,0
0.0007482039999999999,-0.00026268540000000005,0.0023132782000000003,0.00040822540000000004,-0.0006352510000000001,5.309,0,0
-0.001441598,-0.0025154954,-0.0005748537999999998,0.0009853634,-0.00031354540000000006,5.31,0,0
-0.0029037159999999998,-0.0043045714,-0.0028398558,0.0009645914,-0.00015130200000000002,5.311,0,0
-0.004482132000000001,-0.005534624,-0.0046583577999999995,0.0007259954,-6.295620000000001e-05,5.312,0,0
-0.005458012,-0.005752762,-0.005627436,0.000912684,-0.00011537340000000004,5.313,0,0
-0.005517206,-0.004709828000000001,-0.005183068000000001,0.0010306780000000001,-0.0006841616000000001,5.314,0,0
-0.005562406,-0.0033381660000000005,-0.004372362,0.0006323846,-0.0011279532000000002,5.315,0,0
-0.005239912,-0.0020848924,-0.0035512742000000006,0.0002906518,-0.0009348138000000002,5.316,0,0
-0.0034125939999999997,-0.0005067544,-0.0018064062000000005,0.0003871024,-0.0010175266000000001,5.317,0,0
-0.000963918,0.0010010576,0.0002578118000000002,8.61766e-05,-0.0013235070000000002,5.318,0,0
0.0011193740000000002,0.0017772996000000002,0.0019899038,-0.0003184738,-0.0005366916,5.319,0,0
0.0033036800000000002,0.0025653876,0.0033276918,-8.6819e-05,0.0001597684,5.32,0,0
0.005391076,0.0038168620000000003,0.004361646,0.00013397960000000001,0.00020589840000000001,5.321,0,0
0.0057216440000000006,0.00388739,0.004550841999999999,-0.000196253,0.0006727854000000001,5.322,0,0
0.0046751499999999994,0.0034682552,0.00386104,-0.0005644152,0.0014760914,5.323,0,0
0.0037808552000000006,0.0029265720000000005,0.0028642712,-0.0008309248000000001,0.00180969,5.324,0,0
0.0020381332,0.0009936940000000003,0.0015419492,-0.0016130862,0.001823568,5.325,0,0
-0.0005389927999999999,-0.001310022,0.00043588319999999993,-0.00221527,0.0019601799999999997,5.326,0,0
-0.0026367127999999997,-0.00274834,-8.507020000000004e-05,-0.0019928578,0.001929324,5.327,0,0
-0.0039821888000000005,-0.0041362212,-0.0010675842,-0.0017480430000000001,0.001751406,5.328,0,0
-0.005288466,-0.005625158000000001,-0.0024621634,-0.0013352442,0.0012952654,5.329,0,0
-0.006027664,-0.005755262000000001,-0.0028134334,-0.0003779822000000001,0.0006067474000000001,5.33,0,0
-0.00550026,-0.004963962600000001,-0.0028928774000000004,0.00019523880000000003,-0.0002103106,5.331,0,0
-0.004545210000000001,-0.004092657,-0.00320402,0.00012558140000000002,-0.0009445606000000001,5.332,0,0
-0.0030723800000000004,-0.0024465249999999997,-0.0023703394,0.0005682686,-0.0014703386,5.333,0,0
-0.001098336,0.00015817499999999987,-0.0012684834,0.0011303338000000001,-0.0018725,5.334,0,0
0.00078155,0.0023242130000000003,-0.0008894574,0.0009328814,-0.001921586,5.335,0,0
0.0021273620000000003,0.0038960096000000004,-0.00011489340000000005,0.0010454224,-0.001758872,5.336,0,0
0.003525866,0.00556064,0.0009185445999999999,0.0013327048000000001,-0.0013121372000000002,5.337,0,0
0.004765150000000001,0.006556138,0.001820786,0.0008360367999999999,-0.0005688351999999999,5.338,0,0
0.004796918000000001,0.00640897,0.002798174,9.904399999999998e-05,-3.886079999999994e-05,5.339,0,0
0.00442205,0.005597536,0.0035482100000000004,0.0002198126,0.0001094096,5.34,0,0
0.0038576134000000003,0.004203360000000001,0.003421106,0.0003645606,0.00023041700000000007,5.341,0,0
0.0019449234000000004,0.0022976160000000006,0.0019833000000000003,-6.203260000000007e-05,0.0003563324,5.342,0,0
-0.0009188726,0.0004575280000000001,6.874000000000008e-05,-1.4432800000000042e-05,-8.781599999999997e-06,5.343,0,0
-0.0032334406,-0.0010426720000000001,-0.0016502539999999999,0.0002812562,-9.180139999999996e-05,5.344,0,0
-0.005042616600000001,-0.002192438,-0.0028236900000000002,9.231199999999995e-05,0.0005064222,5.345,0,0
-0.00648632,-0.003207928,-0.0030125342,-0.0003044744,0.0009767908,5.346,0,0
-0.006641698000000001,-0.0035523779999999997,-0.0021086682000000002,0.00019628160000000001,0.0012332786,5.347,0,0
-0.005844136000000001,-0.0030122758000000003,-0.0010256686,0.00035430780000000005,0.0017327006,5.348,0,0
-0.004660930000000001,-0.0024281223999999997,-0.000270114,9.64808e-05,0.002420826,5.349,0,0
-0.00263093,-0.0013343443999999998,0.00046302720000000004,0.0006325188,0.00245262,5.35,0,0
-0.00035732799999999986,0.0006625076,0.000489331,0.0005497802,0.0021846254,5.351,0,0
0.0011371780000000002,0.0018641336,0.00011894580000000002,-4.433980000000001e-05,0.0019623934000000003,5.352,0,0
0.002382888,0.0019432736,-4.698019999999999e-05,-0.0003196578,0.0013800268,5.353,0,0
0.003727712,0.0022264082,0.00010870800000000003,-0.000525361,9.835080000000003e-05,5.354,0,0
0.004072404,0.0020100281999999997,0.00031970480000000003,-0.00103853844,-0.0012649092,5.355,0,0
0.0035249820000000003,0.00104865644,0.0003791872,-0.00117165544,-0.0019211266,5.356,0,0
0.002963644,0.0007928704400000001,0.0010145124,-0.0007895560399999999,-0.0023381606,5.357,0,0
0.0022761306,0.00053791644,0.0017682368000000001,-0.00063734904,-0.0024504680000000004,5.358,0,0
0.0012109154,-0.0005777855600000001,0.0018743238000000003,-0.00075370704,-0.001963208,5.359,0,0
0.00032113540000000004,-0.0014913715600000002,0.0017969806,-0.0007269558000000001,-0.001302264,5.36,0,0
0.00019674540000000002,-0.0019351578000000001,0.0016468616,-0.00028665480000000007,-0.00115255,5.361,0,0
0.00021366138000000003,-0.0022606914,0.0006211076000000002,-0.0001705122000000001,-0.001283994,5.362,0,0
0.00024462278000000003,-0.0022233602000000002,-0.0008156144,0.0004242608000000001,-0.001373272,5.363,0,0
0.00076113398,-0.0013359577200000004,-0.0016348122,0.0014260128000000002,-0.0017468540000000002,5.364,0,0
0.00101016078,-0.00039483832,-0.0023670310000000003,0.0016864230000000003,-0.00219731,5.365,0,0
0.00094945878,-0.00010056092000000001,-0.002781392,0.0016868322000000002,-0.002071222,5.366,0,0
0.0015569548,0.00029854668,-0.0022008428000000004,0.0014597028,-0.0017260158,5.367,0,0
0.0020503848,0.0009439252799999999,-0.0014328472000000002,0.0009190450000000003,-0.0015885386,5.368,0,0
0.0021256128,0.0010158226,-0.0009253024,0.000317376,-0.0011520916,5.369,0,0
0.002533164,0.0008555169999999999,-0.0007258524000000001,-0.0001305322,-0.000605487,5.37,0,0
0.003186322,0.0012327896,-0.0008171504000000001,-0.0004378038,-0.0004981180000000001,5.371,0,0
0.0035654780000000004,0.0010556839999999999,-0.0008640264000000002,-0.0007351744,-0.0003834082,5.372,0,0
0.0036489800000000005,0.0007030052,-0.0006528980000000001,-0.0008534882000000001,-0.00018047800000000003,5.373,0,0
0.00403403,0.0009436754000000001,4.761119999999999e-05,-0.0011622352000000002,-8.707740000000002e-05,5.374,0,0
0.004091488,0.0007832304,0.0012851292,-0.0019593730000000004,0.0003875300000000001,5.375,0,0
0.0033841142,0.00021221439999999993,0.0028042232,-0.0021848836,0.001070531,5.376,0,0
0.0026948822000000005,-0.00016526600000000012,0.003545056,-0.0018736388,0.001566227,5.377,0,0
0.0020520506,-0.0007408572,0.0030105060000000005,-0.0017047132000000001,0.0017401016000000002,5.378,0,0
0.0007244126000000002,-0.0017792452000000001,0.0018117199999999997,-0.0012382414,0.001802864,5.379,0,0
-0.00039950540000000006,-0.0022830940000000003,4.748399999999987e-05,-0.00014557840000000002,0.002006398,5.38,0,0
-0.0008975955999999999,-0.0024266720000000004,-0.0014464260000000002,0.0006735116,0.001888616,5.381,0,0
-0.0019899476,-0.002793746,-0.0021509004,0.0008638513999999999,0.0013173864,5.382,0,0
-0.0028161999999999996,-0.0027117860000000003,-0.0020594234,0.0011021613999999999,0.0008100004,5.383,0,0
-0.002651162,-0.001824104,-0.0010819054000000001,0.0012750516,0.0003674463999999998,5.384,0,0
-0.0024712760000000005,-0.0009653919999999999,-0.0005020274000000001,0.0013482446,-0.00024048760000000005,5.385,0,0
-0.002372288,-0.000427522,-0.0007453654,0.0012992245999999999,-0.0006911980000000001,5.386,0,0
-0.0015765168200000002,0.00041129200000000006,-0.0008135750000000001,0.001434516,-0.0007898408,5.387,0,0
-0.0006260690200000001,0.0011915180000000001,-0.0005338226000000001,0.001508864,-0.0005615184,5.388,0,0
-0.00060560102,0.0009798486000000002,-0.0005979426000000001,0.001527102,-0.0001398398,5.389,0,0
-0.0009400370200000001,0.0007208496000000001,0.00014806140000000003,0.001538508,0.00019364420000000005,5.39,0,0
-0.0007810618200000001,0.0012278716000000002,0.0014174854000000001,0.0011730996000000001,0.0006843926000000001,5.391,0,0
-0.0009537226000000002,0.0010475254,0.001549428,0.0009230278,0.0013208110000000003,5.392,0,0
-0.0016251624,0.0004005704000000001,0.0013332088,0.0006824426,0.0015361538,5.393,0,0
-0.001290203,0.0004439538,0.0008710548000000002,0.00030508900000000003,0.0014004882000000001,5.394,0,0
-0.0006449617,0.00018865280000000015,-9.249320000000009e-05,-0.000345295,0.0014557362,5.395,0,0
-0.0012747669,-0.0007716331999999999,-0.0014460611999999999,-0.0009717826,0.0016158622,5.396,0,0
-0.0018475933,-0.0009078808,-0.0021360158,-0.0013332008000000002,0.0016874802000000004,5.397,0,0
-0.0015249578999999998,-0.0005102778,-0.0019255362000000001,-0.0017900656000000002,0.0019262230000000001,5.398,0,0
-0.0021548573,-0.000373953,-0.0017340176,-0.0024254780000000004,0.0022241640000000003,5.399,0,0
-0.0026965146,-3.0765400000000036e-05,-0.0011801792,-0.002740076,0.0020562094000000004,5.4,0,0
-0.0019736035999999998,0.0001964924,-0.00014815120000000003,-0.0027461080000000006,0.0014789556,5.401,0,0
-0.0015569076,0.00011060919999999992,0.0007323108,-0.0030671599999999998,0.0009842968000000002,5.402,0,0
-0.0013987978,-2.2650400000000023e-05,0.0010093390000000002,-0.003356338,0.0001513728000000001,5.403,0,0
-0.0005030338,0.0003777548,0.0016473404000000003,-0.0036297020000000003,-0.0009643052,5.404,0,0
0.0005195662,0.0011495672,0.0022266440000000003,-0.00431076,-0.0018907766,5.405,0,0
0.0007299712000000001,0.0014772708000000002,0.0020545794000000005,-0.00512141,-0.0025673388,5.406,0,0
0.0014227192,0.0019180858000000002,0.0018502996,-0.005559682000000001,-0.003143176,5.407,0,0
0.002092122,0.0025043854,0.0012036716000000001,-0.006199162000000001,-0.003460214,5.408,0,0
0.0017516376800000002,0.0024154714000000003,-0.0001593244,-0.006584848000000001,-0.0032216880000000003,5.409,0,0
0.00149890768,0.0021636614,-0.0014305044000000001,-0.006106714,-0.0030151220000000003,5.41,0,0
0.00166852968,0.0023060800000000003,-0.0017296784,-0.006112404,-0.0030991919999999997,5.411,0,0
0.00137346808,0.0019305232,-0.0016894522,-0.0051622138,-0.0030485460000000005,5.412,0,0
0.00066598648,0.0011425738,-0.0010808782,-0.0012639838,-0.0028066440000000005,5.413,0,0
0.0008847948,0.0007224834,0.0006761218000000001,0.0048001642,-0.002848208,5.414,0,0
0.0007986954,-0.00028697659999999997,0.0021401678,0.013102092200000002,-0.0021423454000000005,5.415,0,0
-0.00022172459999999995,-0.0013474986000000001,0.0025742584,0.024170872200000002,-0.0005649234000000001,5.416,0,0
-0.000686503,-0.0016823498000000001,0.0025148756000000004,0.03489822,0.0006026565999999999,5.417,0,0
-0.0011145774,-0.0017395683999999998,0.0020219692000000003,0.04194302,0.0022603566,5.418,0,0
-0.0026742254000000003,-0.0017555312,0.0005629071999999999,0.044353000000000004,0.0044811886,5.419,0,0
-0.0042295300000000004,-0.0017176712,-0.0008256068,0.04009048,0.005656584000000001,5.42,0,0
-0.004655572,-0.0014207532000000001,-0.0014100007999999999,0.02810536,0.006234206,5.421,0,0
-0.005196406000000001,-0.0015689392000000002,-0.0020166404000000002,0.009846859999999999,0.0074228079999999995,5.422,0,0
-0.005706490000000001,-0.0021473532,-0.002227528,-0.010280339999999999,0.00826391,5.423,0,0
-0.0048966240000000005,-0.0024839379999999998,-0.0015201380000000003,-0.026670320000000004,0.008625846,5.424,0,0
-0.0035531172,-0.002395454,-0.0008077785999999999,-0.035590460000000004,0.009546642,5.425,0,0
