bandpass 1,bandpass 2,bandpass 3,bandpass 4,bandpass 5,time,onset,mark
-0.0018015940000000001,-0.0031638720000000003,-0.00040540020000000006,0.0004089686,0.0005246680000000002,3.647,0,0
-0.0024449660000000002,-0.003517244,-0.00039669052000000003,0.0002898846,0.00035478500000000015,3.648,1,1
-0.0033016700000000005,-0.0035804104,-0.00034657392000000004,-4.9393400000000034e-05,0.0006644810000000002,3.649,0,0
-0.003630916,-0.0024802222000000003,-0.00013348552,-0.00032725620000000007,0.00036124900000000006,3.65,0,0
-0.002678184,-0.0008897982,0.00045667848000000005,-0.00045142779999999996,-0.0002655801999999999,3.651,0,0
-0.001491774,0.0006412998000000002,0.0005053814800000001,-0.00048657799999999993,1.3938600000000016e-05,3.652,0,0
-0.0004830539999999998,0.0017165098000000002,0.0005858008,-0.0003843140000000001,0.00019786126,3.653,0,0
0.001621828,0.0025785742,0.0010576802000000001,1.5027599999999991e-05,-0.00032807074000000005,3.654,0,0
0.00381583,0.0033893040000000005,0.0013117500000000002,0.00012067379999999999,-0.00053679474,3.655,0,0
0.004530340000000001,0.0031106080000000004,0.0012821820000000002,-0.00019225740000000001,-0.00018573633999999998,3.656,0,0
0.005321250000000001,0.0025382664,0.001493193,-6.86468e-05,-7.895493999999999e-05,3.657,0,0
0.00595295,0.0017891092000000002,0.0015519430000000003,6.28318e-05,0.00029960140000000006,3.658,0,0
0.004481208,0.00038811719999999996,0.000585939,-2.0058200000000004e-05,0.0009995374000000001,3.659,0,0
0.0024144140000000006,-0.0007067448000000001,-0.00020223300000000007,-4.505880000000001e-05,0.0014320054000000002,3.66,0,0
0.0011677060000000001,-0.0015385848000000002,-0.00037436040000000004,-0.000309252,0.0016764382000000002,3.661,0,0
-0.0010215279999999998,-0.0026406572000000003,-0.0006545928,-0.000663009,0.0017582580000000002,3.662,0,0
-0.0036896820000000006,-0.0034894080000000003,-0.0012462098000000001,-0.0006528654,0.0015134842,3.663,0,0
-0.004444508,-0.00299401,-0.0012466058,-0.000650294,0.0009286362,3.664,0,0
-0.00447308,-0.0024468628,-0.0013546458,-0.0009982108,0.0007910434,3.665,0,0
-0.004941712,-0.0022287008,-0.0022862484000000004,-0.0006858058000000001,0.0008189714,3.666,0,0
-0.00427002,-0.0010522316000000002,-0.002574386,-9.863980000000003e-05,0.0005157849999999999,3.667,0,0
-0.0025042258000000004,0.0003368583999999999,-0.00226415,-0.0001481632,7.022799999999976e-06,3.668,0,0
-0.0013935774000000001,0.0008069144,-0.0019692958,6.750419999999998e-05,-0.00021090120000000006,3.669,0,0
-0.0003984134,0.0013409912,-0.0015642222,0.0008911122000000001,-0.0008141444000000001,3.67,0,0
0.0016068886,0.0026035232,-0.0007372128,0.0015681632,-0.0020131804,3.671,0,0
0.0033717046000000003,0.00291733,-1.891680000000001e-05,0.0015919592,-0.002372964,3.672,0,0
0.0041627044,0.0028374819999999997,0.0003835932,0.0014293562,-0.0020797756,3.673,0,0
0.005050726,0.002911166,0.000712164,0.0012122388,-0.0017141322000000002,3.674,0,0
0.005531502000000001,0.0022938612000000004,0.0008584231400000001,0.0005214505999999999,-0.0010615918000000002,3.675,0,0
0.00394509,0.0013581612,0.0007638117400000001,-0.00025309340000000005,-0.0001542160000000001,3.676,0,0
0.0018644539999999998,0.0006923212,0.00045867354,-0.00043725200000000006,7.771019999999995e-05,3.677,0,0
0.00043980199999999977,5.0123199999999913e-05,0.00032761434,-0.00019705640000000003,-0.00012295420000000006,3.678,0,0
-0.0018701120000000002,-0.0010197848,-5.884466000000003e-05,-7.823380000000001e-05,-5.472300000000001e-05,3.679,0,0
-0.00398243,-0.0016418000000000001,-0.00047551939999999996,0.0003175804,-0.0002308184,3.68,0,0
-0.004305014,-0.001914602,-0.00048111299999999997,0.0008075164,-0.0005639496,3.681,0,0
-0.00445948,-0.002302162,-0.0006284346,0.0008722914000000001,-0.00024541980000000003,3.682,0,0
-0.005101494000000001,-0.0025842079999999997,-0.0010501694,0.0008040706,0.00013064619999999996,3.683,0,0
-0.0042147800000000004,-0.0019772744000000004,-0.0010211553999999999,0.0008295276,-0.00046299040000000007,3.684,0,0
-0.0025473680000000004,-0.0012570866000000003,-0.0004685198,0.0004781862,-0.0007814154000000001,3.685,0,0
-0.0016987920000000002,-0.0010922476000000002,-0.00026169599999999996,-0.00014984780000000002,-0.0004320144000000001,3.686,0,0
-1.6351999999999968e-05,-6.50360000000003e-06,0.00023372380000000003,-0.00036508639999999995,-0.0006790108000000001,3.687,0,0
0.0026372440000000004,0.0013079084000000001,0.0015300538,-0.000661955,-0.0009982068,3.688,0,0
0.004129974,0.0017511068000000002,0.0023736658,-0.0008849528000000001,-0.00034272199999999995,3.689,0,0
0.004770126,0.002130793,0.0025012562,-0.0004757334,0.000229168,3.69,0,0
0.0055562879999999995,0.002851052,0.002926264,7.904600000000053e-06,0.0002520952,3.691,0,0
0.005112456,0.002587312,0.00291872,-0.00026557320000000003,0.0007052676000000001,3.692,0,0
0.0031970600000000003,0.0016735808,0.0020539412,-0.00038080519999999997,0.0013329256,3.693,0,0
0.0012057279999999997,0.0012225762,0.0015406034000000003,-0.00039509060000000006,0.0018031848,3.694,0,0
-0.0009301499999999999,0.0002819682000000001,0.0011057258,-0.0009483286000000001,0.0021510228,3.695,0,0
-0.0034379579999999996,-0.0011805198,5.038779999999999e-05,-0.0011662138,0.0020710974,3.696,0,0
-0.004995088,-0.0019589718,-0.0008848382000000002,-0.000749537,0.0015940152,3.697,0,0
-0.005127306,-0.0022077406,-0.0014180954000000002,-0.00016615100000000002,0.0011530246,3.698,0,0
-0.005191598,-0.0026013240000000003,-0.0022589836,-0.00023787099999999999,0.0011362326000000002,3.699,0,0
-0.004876338,-0.002229588,-0.0026382940000000002,-0.00017198499999999996,0.0012314066000000002,3.7,0,0
-0.00312137,-0.0008156039999999998,-0.00234876,-0.00017086839999999996,0.0011325492000000001,3.701,0,0
-0.0015815820000000002,0.00012275200000000017,-0.002224544,-0.0005256572,0.0013184440000000002,3.702,0,0
-0.0004803740000000002,0.000738902,-0.0018786011999999998,-0.0003648192,0.001269015,3.703,0,0
0.00192106,0.0019445800000000002,-0.0010565627999999999,6.716939999999998e-05,0.00022948300000000016,3.704,0,0
0.004435792,0.0027928580000000005,-0.00020054680000000007,6.557939999999996e-05,-0.000893053,3.705,0,0
0.005424010000000001,0.00297159,0.00046335119999999994,5.5274599999999974e-05,-0.001399173,3.706,0,0
0.006079162000000001,0.003395366,0.001013428,0.00019519480000000002,-0.0017151316000000002,3.707,0,0
0.006608162000000001,0.00384541,0.0013911232,-0.0005100632,-0.0016794604000000002,3.708,0,0
0.0053642656,0.0033182140000000003,0.0012342838,-0.0010253432,-0.0010114924,3.709,0,0
0.0029310096000000002,0.002432141,0.0004494038,-0.0007863555200000001,-0.0003721898000000001,3.71,0,0
0.0008022836000000004,0.0015381142000000002,-0.00016147659999999996,-0.0004466141200000001,-2.8022200000000065e-05,3.711,0,0
-0.0015223324,-0.00020459579999999985,-0.0007127273999999999,6.765967999999991e-05,0.00019391219999999993,3.712,0,0
-0.004413962400000001,-0.0019515677999999998,-0.0015144934000000001,0.00061538968,0.00024665101999999994,3.713,0,0
-0.00630505,-0.0026121998,-0.0015686044,0.00110574368,-4.5448580000000016e-05,3.714,0,0
-0.006938884000000001,-0.0031000147999999997,-0.0010929620400000001,0.0013901100000000002,1.4150819999999968e-05,3.715,0,0
-0.007489782000000001,-0.003953864,-0.0008727866400000001,0.0014993740000000001,0.00052019922,3.716,0,0
-0.007135914,-0.003931742,-0.00013864064000000003,0.001796658,0.00027599681999999995,3.717,0,0
-0.0053928846,-0.00326631,0.00084663536,0.0019036640000000002,-0.00015655160000000004,3.718,0,0
-0.0039646326,-0.0030704420000000005,0.00110883116,0.0016363034000000003,-0.00026917580000000013,3.719,0,0
-0.0024835438000000002,-0.0024436756000000004,0.0012755314,0.0013984232000000003,-0.0007716798,3.72,0,0
0.0005798921999999999,-0.0007144836000000001,0.0017924964,0.0009256386000000001,-0.0013575218000000003,3.721,0,0
0.0034321662,0.0007622743999999999,0.0019289764000000001,-0.00017135940000000005,-0.0013489398000000002,3.722,0,0
0.0049164848,0.0012724044000000001,0.001558014,-0.0009035574000000001,-0.0009719390000000001,3.723,0,0
0.0068525028,0.0020741544,0.0014772146000000001,-0.0012478988000000002,-0.0008076012400000001,3.724,0,0
0.00843089,0.002687908,0.0013510164,-0.0020454626000000003,-0.00029171324000000005,3.725,0,0
0.007457214,0.0019332610000000001,0.0006108076000000001,-0.0023473160000000003,0.0006391767600000001,3.726,0,0
0.005557442800000001,0.0011600150000000004,-4.5019399999999984e-05,-0.0019924450000000002,0.00107870316,3.727,0,0
0.003921562800000001,0.0008624292000000003,-0.00017436319999999998,-0.0016898816000000003,0.0011013883599999999,3.728,0,0
0.0010941127999999998,-0.00039145480000000007,-0.0002903896,-0.0010621716000000002,0.0007850763999999999,3.729,0,0
-0.0020849012,-0.0021502408,-0.000623952,-7.749160000000013e-05,-4.871560000000016e-05,3.73,0,0
-0.0036253052000000006,-0.0027793638000000002,-0.0008025292,0.0005593204,-0.0010794876000000003,3.731,0,0
-0.004589742000000001,-0.0029638318000000004,-0.0008737002000000001,0.0006628524,-0.0015759880000000002,3.732,0,0
-0.005543644,-0.0030717840000000006,-0.001193276,0.0005821608,-0.0017316722000000001,3.733,0,0
-0.004586804000000001,-0.0019598940000000002,-0.0013146196,0.0005526168,-0.0019458762,3.734,0,0
-0.0026283840000000005,-0.00026791999999999994,-0.00101585566,0.0005076724000000001,-0.0019174902,3.735,0,0
-0.0013742680000000003,0.0008124380000000002,-0.00059224446,0.00034976520000000005,-0.0017510352000000002,3.736,0,0
0.0006154099999999996,0.0019161480000000001,-5.840046000000007e-05,0.00038980720000000006,-0.0017954852,3.737,0,0
0.003272082,0.003057838,0.0007746655399999999,0.0006454776000000001,-0.0019407810000000001,3.738,0,0
0.004793516,0.0036722140000000005,0.0015160251400000001,0.0004116958,-0.001123411,3.739,0,0
0.00575401,0.003980224,0.0017440552,0.00038307140000000005,0.000208877,3.74,0,0
0.0068568560000000014,0.003997258,0.0020278,0.0005383406000000001,0.0010759860000000001,3.741,0,0
0.006429368,0.003343007,0.002190442,0.00040717780000000005,0.002435174,3.742,0,0
0.00455033,0.0020175830000000003,0.0015371144,0.0005810876000000001,0.0038542480000000002,3.743,0,0
0.0027594279999999995,0.0005947710000000002,0.0004475964000000001,0.0007740593999999999,0.004017884000000001,3.744,0,0
0.0002627580000000001,-0.001087063,-0.0002847736000000001,0.0005999762,0.0036488280000000007,3.745,0,0
-0.0031134160000000004,-0.0026329330000000005,-0.0011485596000000002,-8.507799999999993e-06,0.003341796,3.746,0,0
-0.005513826000000001,-0.0033624740000000003,-0.0020258836000000002,-0.00030136600000000007,0.0024204160000000003,3.747,0,0
-0.0063390880000000005,-0.0033621320000000003,-0.002306804,-0.0007170204,0.0010999199999999999,3.748,0,0
-0.007321474000000001,-0.003420792,-0.002327268,-0.0011941484,0.00025194799999999994,3.749,0,0
-0.007639502000000001,-0.0032944420000000003,-0.002103466,-0.0009120464,-0.000760302,3.75,0,0
-0.005936251000000001,-0.0022682586,-0.0014131728000000001,-0.00042985380000000006,-0.002024528,3.751,0,0
-0.004144438,-0.0011199286,-0.0007939571999999998,-0.0003321918,-0.002425838,3.752,0,0
-0.0024967080000000003,1.981940000000005e-05,-0.0006274032,-0.0004762854,-0.0023935252,3.753,0,0
0.00028767000000000007,0.0013408754000000002,-2.8461999999999986e-05,-0.0005410114,-0.0024767412000000003,3.754,0,0
0.0035268520000000005,0.0026214454,0.0006761760000000001,-0.0010045164,-0.0021162272,3.755,0,0
0.005518945000000001,0.0031412400000000004,0.0009225628000000001,-0.0012372314000000002,-0.0012058036,3.756,0,0
0.006860554000000001,0.003037448,0.0012047572,-0.0009603006,-0.0006449336,3.757,0,0
0.007664888000000001,0.0026683,0.0017682352000000002,-0.0005826734,-0.00011029840000000002,3.758,0,0
0.0062736450000000004,0.001317388,0.0018512738000000001,-0.00011586260000000002,0.0010748176,3.759,0,0
0.0036434810000000005,-0.000368932,0.0013136406,0.00040692440000000005,0.0019682036,3.76,0,0
0.0013719829999999998,-0.0014575260000000002,0.0007455143999999999,0.0010021748,0.0021352748,3.761,0,0
-0.0012744650000000004,-0.0028850760000000003,-0.00016038960000000003,0.0010023693999999998,0.001904938008,3.762,0,0
-0.004164889,-0.0045378300000000005,-0.0009829736,0.0007015401999999999,0.001519438808,3.763,0,0
-0.005395604000000001,-0.004852104,-0.0011743074,0.0007038292,0.000701217208,3.764,0,0
-0.0058176040000000005,-0.004357986,-0.0012022302,0.00018063759999999997,2.127420800000001e-05,3.765,0,0
-0.00656374,-0.004034825999999999,-0.001383198,-0.0006569424000000001,3.079340800000001e-05,3.766,0,0
-0.005821998,-0.0028161058,-0.0008883713999999999,-0.0005982498000000001,-0.00040038180000000006,3.767,0,0
-0.003422718,-0.0006754438,-0.00037862941999999996,-6.614180000000009e-05,-0.0011551146000000003,3.768,0,0
-0.0010606359999999996,0.0007394742000000001,-0.00056602782,0.0002522564,-0.001578757,3.769,0,0
0.0012450140000000002,0.0019136982000000002,-0.00011625182000000003,0.00079933,-0.0018973960000000004,3.77,0,0
0.00402976,0.0036383362000000003,0.0006397801800000001,0.00089146,-0.0019400498000000004,3.771,0,0
0.006133782000000001,0.004640344,0.0008702415800000001,-1.492000000000008e-05,-0.0011473138000000001,3.772,0,0
0.00656871,0.0044890120000000006,0.0013327776,-0.0006688920000000001,4.272219999999999e-05,3.773,0,0
0.006421012,0.004571466,0.0021764,-0.0013877000000000002,0.0007611234,3.774,0,0
0.005686636000000001,0.004457414,0.002323518,-0.0024442580000000004,0.0014835194000000001,3.775,0,0
0.0036840779999999995,0.0029505288000000003,0.001676994,-0.0023299074,0.0019255372000000002,3.776,0,0
0.0014060959999999995,0.0015424968,0.0007469359999999999,-0.0012922434,0.0016154166,3.777,0,0
-0.0007062540000000001,0.0007427114,-0.0005057719999999998,-0.0008003464,0.0014972246000000001,3.778,0,0
-0.0029434760000000004,-0.0004915146000000001,-0.0019861139999999998,-0.00027521239999999997,0.0015706234000000003,3.779,0,0
-0.004653592000000001,-0.0018071406,-0.003017164,0.0008110296,0.0008998034000000002,3.78,0,0
-0.005029048,-0.0022259934,-0.0031015500000000002,0.0014407530000000001,-0.0003591666,3.781,0,0
-0.004927886,-0.0023809534,-0.0025722616000000004,0.0014708490000000002,-0.0010363920000000001,3.782,0,0
-0.004614068,-0.002771,-0.0018511654000000002,0.0017045959999999998,-0.001526016,3.783,0,0
-0.0031619522000000005,-0.0022281650000000003,-0.0011062902,0.002001732,-0.002401134,3.784,0,0
-0.0013603022000000002,-0.0013422526,-0.00028315020000000004,0.00161188,-0.0025663400000000003,3.785,0,0
-0.0003201482000000001,-0.0009819196000000001,0.0002140458,0.0013643946000000003,-0.0020555978,3.786,0,0
0.0011118678,-0.0001215036,0.0005466214000000001,0.0015766266000000002,-0.0019645078,3.787,0,0
0.0033581298,0.0012778204000000002,0.0013459972,0.0013025810000000001,-0.001892224,3.788,0,0
0.00446936,0.0018905254000000002,0.0019417179999999998,0.0008800860000000001,-0.0007451119999999999,3.789,0,0
0.00474546,0.0022785170000000003,0.002127198,0.0009997088,0.00013765799999999998,3.79,0,0
0.005323718,0.00323529,0.002458442,0.0007924482000000001,0.00033367060000000004,3.791,0,0
0.004590320199999999,0.0030621380000000003,0.002367673,9.972019999999996e-05,0.0013234106000000001,3.792,0,0
0.0018747601999999995,0.0018875080000000004,0.0014482272000000001,-0.00012282380000000004,0.0022234928,3.793,0,0
-0.0007921937999999999,0.001061677,0.0007434532,-7.420200000000002e-05,0.0020823488,3.794,0,0
-0.0028974018000000002,-0.00017901699999999996,0.0001843551999999999,-5.678979999999999e-05,0.0016694348,3.795,0,0
-0.0055578818,-0.002112325,-0.0006649908,0.00016123199999999998,0.0014188806,3.796,0,0
-0.00736889,-0.003335965,-0.0011170298000000001,0.0005667256,0.0009179960000000001,3.797,0,0
-0.007042826,-0.0037283670000000002,-0.0013779400000000002,0.0004944036,-1.5970999999999987e-05,3.798,0,0
-0.006457996000000001,-0.004084834,-0.0018010160000000001,-1.0899199999999938e-05,-0.0007156330000000001,3.799,0,0
-0.005792216000000001,-0.0036039080000000003,-0.001987584,-0.0002486436,-0.0007828568000000001,3.8,0,0
-0.0034869460000000003,-0.0020944080000000003,-0.0018176864000000001,-0.0005806181999999999,-0.0006763208000000001,3.801,0,0
-0.001107816,-0.0008886820000000001,-0.0017233384,-0.0013248437999999999,-0.0004424782,3.802,0,0
0.00025505600000000014,1.5883999999999918e-05,-0.0012629668,-0.0016742061999999998,-0.00011052180000000006,3.803,0,0
0.0022827240000000003,0.001518056,-0.0001926548,-0.0014658094,-0.00010211779999999999,3.804,0,0
0.004558712,0.002745672,0.0005188092000000001,-0.0013518252000000001,-0.00042323800000000004,3.805,0,0
0.0053894960000000006,0.003135314,0.0007682264,-0.0012848998000000002,-0.0006333446000000001,3.806,0,0
0.00554089,0.003550912,0.0013582224,-0.0008587216,-0.0005412306,3.807,0,0
0.00582037,0.003776874,0.0018470508,-0.0006069556000000002,-9.599200000000004e-05,3.808,0,0
0.0047600172,0.0026662738,0.00140415504,-0.0006129880000000001,0.0008569599999999999,3.809,0,0
0.0023569172,0.0011162138,0.0008206924400000001,-0.0003413628000000001,0.0018105639999999997,3.81,0,0
0.0006419711999999999,-2.6782000000000043e-06,0.00064168264,-0.00028673540000000007,0.00234098,3.811,0,0
-0.0005437088000000002,-0.0011580022,0.00010178404,-0.00017755680000000005,0.002588452,3.812,0,0
-0.0021708568000000004,-0.0020403002,-0.0008059199600000001,0.0003207072,0.002382784,3.813,0,0
-0.0029427360000000005,-0.002245352,-0.0008216241999999999,0.0008526407999999999,0.0016375422,3.814,0,0
-0.0023024716000000006,-0.0018144294000000001,-0.0006567236000000001,0.0011199568,0.0011783212,3.815,0,0
-0.0021517816000000004,-0.0016941514,-0.0010239266,0.0013880968,0.0010529656,3.816,0,0
-0.0022459636000000003,-0.0010191024000000002,-0.0010036912,0.001591505,0.00014776559999999994,3.817,0,0
-0.0013247054000000002,0.0002778955999999999,-0.0007815368,0.0012445720000000002,-0.0008221124,3.818,0,0
-0.0005226205999999999,0.0010590536000000001,-0.0005897074,0.0006586500000000001,-0.0009676506,3.819,0,0
-2.1018999999999996e-05,0.001957141,-8.145340000000002e-05,0.00012565938000000005,-0.0013765256,3.82,0,0
0.001389405,0.003163947,0.0008461486000000001,-0.00011239098,-0.002051354,3.821,0,0
0.0031128329999999997,0.003637044,0.0018101458,-0.00038759278,-0.002023486,3.822,0,0
0.0039566268,0.00319878,0.0026686814,-0.00033097338000000003,-0.0015700306,3.823,0,0
0.004670118,0.003051382,0.002914298,-0.00017275838000000001,-0.0012750256000000001,3.824,0,0
0.0048141880000000005,0.0021556834000000004,0.0025479082,-0.0006067837600000001,-0.0007324816,3.825,0,0
0.0029392000000000003,0.00024565139999999997,0.0019702186,-0.0009403014000000001,-2.7528599999999986e-05,3.826,0,0
0.0004390679999999997,-0.0014669926,0.0009728425999999999,-0.000987168,0.00032597232,3.827,0,0
-0.0014988680000000002,-0.0029079626000000003,1.0512599999999998e-05,-0.0011192294,0.00047869412000000006,3.828,0,0
-0.0038820600000000005,-0.0045767726,-0.0009374814000000001,-0.0013562324,0.0005627973200000001,3.829,0,0
-0.00613937,-0.00584551,-0.0017153116000000002,-0.0011300306000000002,0.00060436932,3.83,0,0
-0.006490846000000001,-0.005896756,-0.0021416200000000003,-0.0009616927999999999,0.00044225152,3.831,0,0
-0.005981106,-0.005827506,-0.002490382,-0.0011039734000000002,0.0002298166,3.832,0,0
-0.005633692,-0.005444148,-0.0025589540000000004,-0.0009127218000000001,4.2962599999999974e-05,3.833,0,0
-0.003829836,-0.0038292899999999995,-0.0022404620000000004,-0.0007277856000000001,-0.0005205816000000001,3.834,0,0
-0.0013510020000000002,-0.001918154,-0.0016889612,-0.0006347180000000002,-0.0012268456,3.835,0,0
1.9455999999999998e-05,-0.00046575200000000005,-0.0010195958000000001,-0.0004048850000000001,-0.0014681188,3.836,0,0
0.001858662,0.00145878,-0.0002618758,-6.397760000000002e-05,-0.0016081888,3.837,0,0
0.004611206,0.003397266,0.00048257820000000007,6.183479999999999e-05,-0.001845028,3.838,0,0
0.005912458,0.004060168,0.0011391022000000002,0.00023209940000000002,-0.001586415,3.839,0,0
0.00618056,0.004368488,0.0013000452000000002,0.00066825,-0.0012105086,3.84,0,0
0.0070042279999999995,0.005007872,0.0012611230000000003,0.0008737412,-0.0010056174000000002,3.841,0,0
0.006443448,0.0042490002,0.0012346242000000002,0.0010778818,-0.00042369740000000014,3.842,0,0
0.003882602,0.0022557182000000004,0.0008152202,0.0012952928000000002,0.0003180266,3.843,0,0
0.001500642,0.0010686742000000002,0.00044201980000000004,0.0015318560000000003,0.0008009636,3.844,0,0
-0.0006571379999999999,-0.00025693780000000005,0.0003410754,0.001510194,0.0011273272,3.845,0,0
-0.0034577080000000003,-0.0021180158000000003,-1.4585800000000012e-05,0.001423128,0.0013048584,3.846,0,0
-0.005607548,-0.002940224,-0.000525565,0.0013992300000000002,0.0009240052000000002,3.847,0,0
-0.006063238,-0.002679626,-0.0006951340000000001,0.0008951528000000001,5.709520000000002e-05,3.848,0,0
-0.005963282,-0.0025702906,-0.0010408976,0.0005471514,-0.000394521,3.849,0,0
-0.005529992000000001,-0.0023620986,-0.0013467370000000002,0.0005115714,-0.00044543100000000004,3.85,0,0
-0.0037200796000000005,-0.0014936478000000001,-0.000895993,0.0005816034,-0.0005737394,3.851,0,0
-0.0016790756,-0.0006258558,-0.00029748899999999996,0.0005548914,-0.0002575744,3.852,0,0
-0.0001607036000000001,0.00020091820000000008,-6.027899999999991e-05,0.0007576325999999999,0.0005400436,3.853,0,0
0.0021142004000000002,0.0014141988,0.00046995100000000003,0.0007787413999999999,0.00067428184,3.854,0,0
0.004270212400000001,0.0027657788000000003,0.0012589710000000002,0.00022386740000000002,0.00045267184,3.855,0,0
0.0050743640000000005,0.0032382999999999995,0.0014644410000000001,-0.0003859186,0.00087313184,3.856,0,0
0.0055323640000000006,0.0034325479999999997,0.001624879,-0.0010442666,0.00093503004,3.857,0,0
0.005601636,0.0034257459999999995,0.0019096700000000002,-0.0014976146,0.0002808700400000001,3.858,0,0
0.003941255000000001,0.0022721312000000002,0.0016751840000000004,-0.0018770520000000001,0.000247088,3.859,0,0
0.001706753,0.0011170164000000001,0.0011260810000000001,-0.001845972,0.0005995480000000001,3.86,0,0
0.00014493500000000012,0.0004482146000000002,0.0006367240000000001,-0.0016625192,0.00052024,3.861,0,0
-0.0018556170000000002,-0.0008312934000000001,-6.908400000000002e-05,-0.0015213192000000002,0.000840124,3.862,0,0
-0.004213813,-0.0023092054,-0.0009084900000000001,-0.0009539066,0.0013933878000000001,3.863,0,0
-0.005357698000000001,-0.0027025126000000004,-0.001171874,1.0887400000000034e-05,0.0010096718000000002,3.864,0,0
-0.005071908000000001,-0.0029851758000000003,-0.0010666742400000002,0.0008310934000000001,-4.552199999999966e-06,3.865,0,0
-0.005193270000000001,-0.003329472,-0.0011898420400000003,0.0010761636000000002,-0.00047738320000000013,3.866,0,0
-0.004819478000000001,-0.0022986766,-0.00129289404,0.0011822196,-0.00029075119999999997,3.867,0,0
-0.002345296,-0.0007577686,-0.00076850004,0.0008352106,-0.00017055900000000009,3.868,0,0
-0.00019082400000000003,8.449539999999994e-05,-0.00022104404,0.0003184882,4.296999999999949e-06,3.869,0,0
0.0012110700000000003,0.0009360553999999999,-0.00011601400000000003,-6.715260000000005e-05,0.000325107,3.87,0,0
0.0036244520000000002,0.0020349554,0.0004688188,-0.0002452864,5.257599999999998e-05,3.871,0,0
0.005764862000000001,0.002711842,0.0012459908,-0.000212677,-0.0006769656800000001,3.872,0,0
0.006021630000000001,0.002913972,0.0012672970000000001,-0.00015808979999999999,-0.0006798176800000002,3.873,0,0
0.006100632,0.003071716,0.0010487836000000002,-1.2558199999999984e-05,-0.00041223727999999994,3.874,0,0
0.006104154000000001,0.002873286,0.0009336407980000001,-0.00023340420000000003,8.989332000000004e-05,3.875,0,0
0.0043314768,0.001612848,0.0003059927980000001,-0.00047720740000000003,0.00107543932,3.876,0,0
0.0022589828000000004,2.260000000001974e-07,-0.000407289202,-0.0005834648,0.0015078150000000002,3.877,0,0
0.0006227468000000004,-0.001053102,-0.000540233202,-0.0007547296000000001,0.001617525,3.878,0,0
-0.0020765352,-0.002220724,-0.0011298218019999999,-0.001119219,0.0017373638000000003,3.879,0,0
-0.0050747192,-0.003428516,-0.0020677798,-0.0009153312000000001,0.0015143256000000002,3.88,0,0
-0.006342488,-0.003174564,-0.0023254718000000002,-0.00022874319999999996,0.0003737596000000003,3.881,0,0
-0.006680452,-0.0025746758,-0.0023860678,0.00025121080000000003,-0.0008391984,3.882,0,0
-0.006794682000000001,-0.0025708258,-0.00254427,0.0010605588,-0.0016075564000000001,3.883,0,0
-0.0049779274,-0.0016727518,-0.0022002938,0.0015955910000000002,-0.0025903016,3.884,0,0
-0.0021555874,-0.0002789538,-0.0014859998,0.0013354858000000002,-0.002927486,3.885,0,0
-0.0004456113999999999,0.00042804820000000006,-0.0010198680000000002,0.0009344227999999999,-0.002119888,3.886,0,0
0.0012143086,0.0011030900000000001,-0.00022304999999999997,0.0006768921999999999,-0.0013851532,3.887,0,0
0.0036150726000000006,0.002317034,0.000789936,-5.899980000000004e-05,-0.0009867774,3.888,0,0
0.005048312,0.003010268,0.0016955398,-0.0008584198000000001,-5.6475199999999964e-05,3.889,0,0
0.005479498000000001,0.003132278,0.0025145258000000004,-0.0009505766000000001,0.0004320228,3.89,0,0
0.006613736000000001,0.0032091660000000003,0.0030183820000000004,-0.0008175033999999999,0.0001782548,3.891,0,0
0.006629922000000002,0.002480832,0.0029329000000000004,-0.0008531096000000001,0.000503226,3.892,0,0
0.004205406000000001,0.0007705859999999998,0.002038697,-0.0003761456,0.0010227982,3.893,0,0
0.0016781959999999999,-0.0007498020000000002,0.0012874107199999998,0.0003689384,0.0010207174,3.894,0,0
-0.0006822380000000004,-0.0019541280000000003,0.0006826507200000002,0.0006405973999999999,0.0010517646000000002,3.895,0,0
-0.004158468,-0.003552858,-9.798927999999998e-05,0.0008471991999999999,0.0013585766,3.896,0,0
-0.00691512,-0.004041072000000001,-0.00061042808,0.0011252648,0.0011372244000000002,3.897,0,0
-0.007383890000000001,-0.0032077390000000002,-0.0007032350800000001,0.0014293948,0.0003945038000000001,3.898,0,0
-0.0073541299999999995,-0.002923149,-0.0008746051999999999,0.0015964648000000002,0.00027134840000000006,3.899,0,0
-0.006938779999999999,-0.0023868084,-0.0011956072,0.0016461962,0.00018530080000000003,3.9,0,0
-0.004736488200000001,-0.00044783440000000006,-0.0009629558000000001,0.0016714721999999999,-0.0005582672,3.901,0,0
-0.0020872042,0.0011113056000000001,-0.000561221,0.0014430966,-0.000869717,3.902,0,0
-0.00041870420000000006,0.0014314626,-0.00021286940000000003,0.0006741946,-0.000683892404,3.903,0,0
0.0018198358000000004,0.0020667686000000003,0.00028129300000000006,-7.88574e-05,-0.001168086404,3.904,0,0
0.0046393538,0.0026414240000000003,0.000820451,-0.0007109108000000001,-0.001691282004,3.905,0,0
0.006167622,0.0020170678000000003,0.0011786216000000001,-0.0015378388,-0.0014365640040000002,3.906,0,0
0.006616922,0.0013613497999999998,0.0012033436000000002,-0.0020318380000000002,-0.0015833700040000002,3.907,0,0
0.006878136000000001,0.0014007718000000001,0.001237341,-0.002115802,-0.0018501140000000004,3.908,0,0
0.00557553918,0.0008111778,0.001160991,-0.00211237,-0.0010841860000000002,3.909,0,0
0.00239997918,-0.0003679182000000001,0.0008806682,-0.0018636120000000002,-0.00015123200000000006,3.91,0,0
0.00024974318,-0.0009883620000000002,0.000676067,-0.001244534,0.00030997599999999995,3.911,0,0
-0.0012606988200000002,-0.001890366,0.00043914432,-0.0008395526,0.0009657779999999999,3.912,0,0
-0.0035339408200000004,-0.003044934,-0.00012897267999999998,-0.0004436314,0.00169168,3.913,0,0
-0.004596744,-0.0027903254000000003,-0.0007365866800000001,7.762260000000005e-05,0.001959764,3.914,0,0
-0.0041228160000000005,-0.0017251673999999998,-0.00097356988,0.0003547156,0.0016890444000000001,3.915,0,0
-0.004541226000000001,-0.0011023296000000002,-0.00136823468,0.0005683056000000001,0.0013651804000000003,3.916,0,0
-0.004649878,7.699639999999994e-05,-0.0015129574,0.0006213438,0.0009268567999999999,3.917,0,0
-0.0028175160000000004,0.0017895984,-0.0011779638,0.00027536260000000007,-1.670319999999998e-05,3.918,0,0
-0.0014456260000000002,0.0022281398,-0.0010944378,0.0002087082,-0.0007430234,3.919,0,0
-0.00028143799999999996,0.0018854618,-0.0008008878000000001,0.0004606232,-0.0010066510000000001,3.92,0,0
0.002223386,0.0024191380000000004,-0.0003320196,0.0004978972,-0.001358877,3.921,0,0
0.0046855280000000004,0.0027070600000000003,-5.966100000000005e-05,0.0006696292,-0.0016579374000000003,3.922,0,0
0.005779778,0.0020288246000000005,0.0005128153999999999,0.0005259072,-0.0013578068000000003,3.923,0,0
0.006682132,0.0018485146,0.0011538674,0.0001332616,-0.0009431706000000002,3.924,0,0
0.007045642,0.001752658,0.0011232374000000002,-0.00021194699999999998,-0.0005240494000000002,3.925,0,0
0.005105744000000001,0.00024784800000000017,0.0008688637999999999,-0.0006224004000000001,0.00031842459999999987,3.926,0,0
0.00249938,-0.0015088019999999998,0.0007963866,-0.0003812700000000001,0.0011155746,3.927,0,0
0.0004598199999999998,-0.0022832065999999996,0.0002952826,0.000244294,0.0013588010000000002,3.928,0,0
-0.0022051120000000004,-0.0032206566,-0.0007326034000000001,0.00043860240000000004,0.001476069,3.929,0,0
-0.004790996,-0.0038167260000000003,-0.0015142974,0.00043005,0.001748993,3.93,0,0
-0.005416018,-0.0030417935999999994,-0.001700768,0.00045383760000000005,0.0015484370000000002,3.931,0,0
-0.005268826,-0.0018711560000000001,-0.002098672,5.347980000000001e-05,0.0011203046000000001,3.932,0,0
-0.005263426,-0.001033282,-0.0025762000000000003,-0.00025243300000000004,0.0009245446000000002,3.933,0,0
-0.003918772399999999,0.0002781240000000001,-0.0017934399999999999,-0.0001885888,0.0003329666000000001,3.934,0,0
-0.0016728124000000002,0.0018112240000000002,-0.000540706,-0.00039764980000000003,-0.00048308339999999996,3.935,0,0
-0.00043787840000000013,0.0026294136,-0.00011555719999999998,-0.0005666668,-0.0007638224,3.936,0,0
0.0004569136000000001,0.003649376,0.00040337880000000003,-0.0005485544000000001,-0.0007805892,3.937,0,0
0.0023800836,0.00473067,0.0012136808,-0.0006089464000000001,-0.0007688116,3.938,0,0
0.003677884,0.005005600000000001,0.0015118728,-0.001012209,-0.0006681556000000001,3.939,0,0
0.003739218,0.004389676,0.0015352388,-0.001115377,-0.00046617960000000004,3.94,0,0
0.0040600639999999995,0.0033301980000000004,0.001713278,-0.0005540402000000001,-0.00021076260000000007,3.941,0,0
0.0038705654000000004,0.0015075440000000004,0.001804614,-0.00013224279999999992,0.00019070259999999994,3.942,0,0
0.0016381793999999997,-0.0011939960000000001,0.0015575916,0.000428368,0.0008113759999999999,3.943,0,0
-0.0010038946000000004,-0.0030940200000000003,0.0010938990000000002,0.00141281,0.001375006,3.944,0,0
-0.0027903546000000003,-0.003814054,0.00058073,0.0019905060000000004,0.0015658,3.945,0,0
-0.0051107306,-0.004318898,4.404000000000007e-06,0.0017443744000000003,0.0015784480000000003,3.946,0,0
-0.0070806720000000005,-0.0042187940000000005,-0.00054934,0.0014601132000000001,0.0012141214000000002,3.947,0,0
-0.006715674000000001,-0.0027013531999999997,-0.000735251,0.0010352335800000003,7.550739999999997e-05,3.948,0,0
-0.0054587206000000004,-0.0015351104,-0.0006900599560000001,0.00011795358000000008,-0.0005504626,3.949,0,0
-0.0045406806,-0.0010818509999999998,-0.000678977556,-0.00024230842000000003,-0.0008350308,3.95,0,0
-0.0020655606,0.00026107499999999994,-0.00037222235600000006,-7.948282000000005e-05,-0.0017688488,3.951,0,0
0.0010170373999999999,0.001362549,0.00010897764400000004,-0.00039772962000000006,-0.0022111362,3.952,0,0
0.0022892894,0.0014959202,0.00032861064400000004,-0.0008704280000000001,-0.0017204232,3.953,0,0
0.0037397100000000003,0.0019253534,0.0005161720000000001,-0.0005719730680000001,-0.0018692112,3.954,0,0
0.005733094,0.00239636,0.0008899986,-0.00027331826800000006,-0.002039793,3.955,0,0
0.006125357999999999,0.0020237426,0.0009979982,-0.0005861650680000001,-0.000805313,3.956,0,0
0.006205497999999999,0.0018362946,0.0007869582,-0.000234324068,0.00016754300000000003,3.957,0,0
0.006618748000000001,0.0015858813999999998,0.0010742046,0.000358536732,0.0003820550000000001,3.958,0,0
0.005411102,0.0001362573999999998,0.0010552782000000003,0.0003152532,0.0009276396000000001,3.959,0,0
0.0030339980000000004,-0.0012769906000000002,0.0003411482,0.00028817260000000005,0.0011848682,3.96,0,0
0.0009571580000000002,-0.0018814312,-9.018199999999947e-06,0.00022333480000000003,0.000761119,3.961,0,0
-0.0017686820000000002,-0.0027619972000000005,-0.0003158302000000001,-9.701719999999998e-05,0.001058473,3.962,0,0
-0.005034344,-0.00381235,-0.0012160942,-0.00042268000000000004,0.0015863280000000001,3.963,0,0
-0.006593364000000001,-0.0036755420000000004,-0.0017933476,-0.0005924134000000001,0.0013371811999999999,3.964,0,0
-0.006168516,-0.0028504080000000005,-0.0015868934000000002,-0.0007880706,0.0007059646000000001,3.965,0,0
-0.005341134399999999,-0.00239112154,-0.0016944158000000002,-0.0007404736,-7.47902000000001e-05,3.966,0,0
-0.0036351404,-0.0016707275400000001,-0.0014877658,-0.00033989860000000003,-0.0013426862000000001,3.967,0,0
-0.0004508024000000003,-0.00031584154,-0.0007677758000000001,-0.00022079140000000005,-0.0027398582,3.968,0,0
0.0018887936000000001,0.0006544884600000001,-0.0001741488000000001,-0.00017413740000000002,-0.002969322,3.969,0,0
0.0025934256,0.00128836046,0.000451293,6.807039999999999e-05,-0.002634202,3.97,0,0
0.0034676340000000007,0.0021746120000000002,0.001107987,-2.03898e-05,-0.002212726,3.971,0,0
0.004544920000000001,0.002566056,0.001406381,-0.0003611376,-0.001435764,3.972,0,0
0.004326652,0.002551666,0.00119057776,-0.00020502639999999995,-0.000422786,3.973,0,0
0.003966344,0.0024729154,0.00102249516,0.00017355160000000002,0.000387304,3.974,0,0
0.0042033,0.0019165672000000002,0.00063080676,8.711180000000004e-05,0.001270398,3.975,0,0
0.0029327980000000008,0.0005369292000000002,-8.175123999999999e-05,0.00014609460000000003,0.0023540040000000003,3.976,0,0
0.0005592100000000001,-0.0009217628,-0.00043954664,0.0004996124,0.002760598,3.977,0,0
-0.0012865099999999998,-0.0017157588000000002,-0.0006521494,0.00032134420000000006,0.002481357,3.978,0,0
-0.00368948,-0.0023581902,-0.0012617478000000002,3.0444000000000022e-05,0.001908449,3.979,0,0
-0.006591892,-0.00283766,-0.0015211194000000002,0.000203799,0.0012693348,3.98,0,0
-0.00736138,-0.002586142,-0.0014750374,0.0004429414,0.0002096148,3.981,0,0
-0.0066537340000000006,-0.001756792,-0.0016581940000000002,0.0003891492,-0.00038533100000000004,3.982,0,0
-0.005997500000000001,-0.0013135956,-0.0015464760000000002,0.0004096276,2.609600000000003e-05,3.983,0,0
-0.0039106006,-0.0003575876000000001,-0.0006765499999999999,0.000604129,0.00013918220000000005,3.984,0,0
-0.0008300226000000002,0.0012814024000000002,0.00029095200000000003,0.00035813972599999997,-1.4083599999999954e-05,3.985,0,0
0.0010663014,0.0022440364,0.0010050740000000001,1.4757259999999674e-06,4.767360000000002e-05,3.986,0,0
0.0022072354000000002,0.0031003204000000003,0.001707048,-2.2942474e-05,-0.00011134460000000002,3.987,0,0
0.0038432954,0.00413774,0.002155298,-0.00014764707400000002,-0.0004938532,3.988,0,0
0.004683100000000001,0.00440271,0.0022970800000000004,-0.000643326274,-0.0002858834,3.989,0,0
0.004413098000000001,0.003658896,0.001737255,-0.000708965,5.40059999999997e-06,3.99,0,0
0.004448738000000001,0.002693956,0.0011849830000000001,-0.0004206593999999999,-0.00028645860000000006,3.991,0,0
0.0036450862000000006,0.0011677920000000004,0.0006540280000000001,-0.0003887434,1.595539999999998e-05,3.992,0,0
0.0011774022000000004,-0.0011413800000000004,-0.00032882200000000004,-9.577999999999453e-07,0.000734578,3.993,0,0
-0.0009195837999999999,-0.003098944,-0.0010141,0.0005278132000000001,0.000797728,3.994,0,0
-0.0025013578000000003,-0.004192642000000001,-0.001244234,0.0006447730000000001,0.0008237462,3.995,0,0
-0.0048801878000000005,-0.00476325,-0.00142081,0.0005600507600000001,0.0013238894,3.996,0,0
-0.006513318000000001,-0.004539844,-0.0013800160000000002,0.00065973116,0.0010641958,3.997,0,0
-0.0060820200000000005,-0.0032107722,-0.0005550736,0.00078160956,-4.591020000000004e-05,3.998,0,0
-0.0051797138,-0.00197932252,-0.00017421200000000003,0.0006078259600000001,-0.0008616502000000001,3.999,0,0
-0.0042424834,-0.00101098392,-0.00025191899999999997,0.00032969816,-0.0012768104,4.0,0,0
-0.0017304174000000003,0.0006196120800000001,0.00031494500000000007,0.0002986944,-0.0015126156000000001,4.001,0,0
0.0013876706,0.00175429408,0.0006384260000000001,0.00034423040000000003,-0.0015492304,4.002,0,0
0.0033968786,0.0023020702800000004,0.0004072866,4.968912000000003e-05,-0.0006569443999999999,4.003,0,0
0.0052667264,0.0034472646000000004,0.000349013,-0.00029180228000000004,0.00033485960000000006,4.004,0,0
0.007297954,0.004201026,0.00044965500000000003,-0.00016221448,0.0008534698000000001,4.005,0,0
0.007887662,0.003927056000000001,0.000200309,-0.00014480548,0.0015633257999999998,4.006,0,0
0.007627174,0.0032657772,-2.32104e-05,-0.00087852548,0.0018890802,4.007,0,0
0.007386072,0.0023788552,-4.97074e-05,-0.0014378042,0.0017745662,4.008,0,0
0.005348064,0.0005162832000000003,-0.0002744316,-0.0012294018,0.0018237542,4.009,0,0
0.0018349319999999994,-0.0019723488,-0.0006677715999999999,-0.0008542336,0.001934182,4.01,0,0
-0.000988614,-0.0036653348000000004,-0.0012713816,-0.0006254096,0.001734918,4.011,0,0
-0.0038721140000000003,-0.004630688000000001,-0.0016886622,-0.0001491906000000001,0.0016250780000000003,4.012,0,0
-0.006807586000000001,-0.005716270000000001,-0.0018380101999999998,0.0006970813999999999,0.000817724,4.013,0,0
-0.007517616,-0.005863032,-0.0017757744,0.001188833,-0.0006424920000000001,4.014,0,0
-0.006495594,-0.0044328634,-0.0009244884000000001,0.0008633166,-0.0015711460000000003,4.015,0,0
-0.005571540000000001,-0.0033166994000000003,0.00010249559999999996,0.0005433538,-0.00238966,4.016,0,0
-0.004126577,-0.0017902613999999997,0.0007762956,0.0006597983999999999,-0.003099604,4.017,0,0
-0.0013137490000000003,0.0010319926000000002,0.0015165556,0.0004661606,-0.0030317100000000004,4.018,0,0
0.0008797129999999997,0.0030693866000000005,0.002060752,-6.39514e-05,-0.0021937012000000002,4.019,0,0
0.0024167950000000002,0.004631868000000001,0.001954726,-5.63724e-05,-0.0016584091999999999,4.02,0,0
0.004557015,0.006631768000000001,0.001842026,0.0004210964,-0.0012887022,4.021,0,0
0.006433876,0.0075660660000000015,0.0018202930000000002,0.0004065192,-0.0005689588,4.022,0,0
0.006700834,0.006993562000000001,0.0014418216,0.00010688900000000001,-5.0825800000000004e-05,4.023,0,0
0.0067663440000000005,0.0062696520000000006,0.0005581516,0.00014489879999999991,3.0438279999999974e-05,4.024,0,0
0.006517518000000001,0.005045138,-0.00013211640000000002,-0.00022027580000000003,-0.00017297972000000005,4.025,0,0
0.004006786,0.0025723340000000008,-0.0004726622,-0.0010555718000000002,-9.641652000000007e-05,4.026,0,0
0.0013082459999999999,0.00025089199999999996,-0.0012432852,-0.0013465292000000002,-0.0002857825200000001,4.027,0,0
-0.00047377200000000056,-0.0009298900000000001,-0.0012653095999999998,-0.0011941128000000003,-0.0012657635200000001,4.028,0,0
-0.0022467880000000004,-0.0016164940000000002,-0.000789756,-0.0012568706000000002,-0.0015317864000000002,4.029,0,0
-0.004441260000000001,-0.0022428820000000003,-0.0005836646,-0.0008268820000000001,-0.0010647808,4.03,0,0
-0.0033745700000000003,-0.0013342860000000003,-0.0009470048,-0.00043299440000000005,-0.0010492018,4.031,0,0
-0.0020762719999999997,0.00028861199999999994,-0.00012669880000000001,-0.0012912594,-0.00042914920000000005,4.032,0,0
-0.0003843519999999999,0.0014782840000000003,0.0023251070000000003,-0.0021013778,0.0013155368,4.033,0,0
0.005543676000000001,0.002225182,0.0036908414000000004,-0.0024164538,0.0031868308,4.034,0,0
0.007524986000000001,0.00027016600000000007,0.003813010000000001,-0.0027336084,0.0053474352,4.035,0,0
0.0024764060000000004,-0.0042842060000000005,0.00317282,-0.002327432,0.007135491999999999,4.036,0,0
-0.005152275999999999,-0.010059094000000001,0.0006910159999999996,-0.0006818100000000001,0.007401326000000001,4.037,0,0
-0.015926856,-0.016600624,-0.004384224,0.0010020760000000002,0.006585578999999999,4.038,0,0
-0.030900815999999998,-0.02163882,-0.008607878,0.0027202520000000003,0.004070893,4.039,0,0
-0.03910032,-0.02190334,-0.01074907,0.004604074,6.415700000000023e-05,4.04,0,0
-0.0374791,-0.01777744,-0.011020746,0.005300344,-0.0036961270000000004,4.041,0,0
-0.029594654,-0.010428399999999999,-0.009204138,0.005219364000000001,-0.007056867000000001,4.042,0,0
-0.014896994,-8.343999999999973e-05,-0.005933476,0.004801152,-0.010061768,4.043,0,0
0.0032888060000000026,0.010956500000000001,-0.001110074,0.00341682,-0.011534136000000002,4.044,0,0
0.021569766000000004,0.020694940000000002,0.003789446,0.0014489480000000002,-0.011098682000000002,4.045,0,0
0.037322746000000004,0.02785914,0.008508052,-5.229000000000019e-05,-0.009742736000000002,4.046,0,0
0.05001828000000001,0.0319193,0.012845464000000001,-0.0015984920000000002,-0.0073321010000000015,4.047,0,0
0.05617384,0.031486,0.015461082,-0.003213188,-0.003150195,4.048,0,0
0.054527820000000005,0.026354764000000003,0.0155303,-0.003907166,0.0014873049999999995,4.049,0,0
0.046576360000000004,0.018291734,0.013561662,-0.0042678080000000005,0.0050979070000000005,4.05,0,0
0.032073988000000005,0.007820514,0.00992017,-0.004246604,0.008688041,4.051,0,0
0.012724368000000003,-0.0036918260000000005,0.00480904,-0.003322907,0.011767886,4.052,0,0
-0.0073883720000000016,-0.013733886,-0.0004993600000000003,-0.0022613752,0.012195226,4.053,0,0
-0.025156732,-0.02119725,-0.0050394,-0.0009926091999999998,0.010869888000000001,4.054,0,0
-0.039679712000000006,-0.02620998,-0.009064562000000002,0.0004724308,0.009039852000000001,4.055,0,0
-0.04878718,-0.027794000000000006,-0.01223355,0.0016021948000000002,0.005759900000000001,4.056,0,0
-0.0507946,-0.0255062,-0.0135399,0.0023412898,0.0014763440000000003,4.057,0,0
-0.04651848,-0.02038311,-0.013035670000000001,0.0028094880000000006,-0.001956352,4.058,0,0
-0.036746918,-0.01307361,-0.010909826000000001,0.002741448,-0.0047487960000000004,4.059,0,0
-0.021647758,-0.0038676700000000014,-0.007057754000000001,0.0019122512000000003,-0.0074736,4.06,0,0
-0.003967378000000001,0.00572255,-0.0022983120000000003,0.0011412106000000001,-0.009120368,4.061,0,0
0.012649302,0.013712390000000001,0.0019792300000000002,0.00045015467800000003,-0.009418656000000001,4.062,0,0
0.027572522,0.020217080000000002,0.0058188400000000005,-0.0002652493220000001,-0.009029852000000001,4.063,0,0
0.03931556,0.024427080000000004,0.008952196,-0.0007370179220000001,-0.0075592240000000015,4.064,0,0
0.04411384,0.02425652,0.010523524,-0.001152105122,-0.004598346000000001,4.065,0,0
0.04223028,0.020478102,0.010585444,-0.0014918285220000002,-0.0011315559999999997,4.066,0,0
0.035168634000000004,0.014318233999999999,0.009355234,-0.001447965,0.002215298,4.067,0,0
0.022608934,0.005311294,0.00677436,-0.0010938993999999999,0.005573538,4.068,0,0
0.0066377539999999974,-0.0046614659999999995,0.003193118,-0.0007673587999999999,0.007992392,4.069,0,0
-0.008773186,-0.012657106,-0.000589312,-0.00017712020000000003,0.008449996,4.07,0,0
-0.022040386000000002,-0.018591948,-0.004194894,0.0004886078,0.007669766,4.071,0,0
-0.03297872,-0.02237188,-0.007555786,0.0009417022000000001,0.006323196,4.072,0,0
-0.03912562,-0.02284544,-0.010049212,0.0015625266,0.003981628,4.073,0,0
-0.039315459999999997,-0.020042662000000003,-0.010960316000000001,0.0021221726,0.00091413,4.074,0,0
-0.035104579999999996,-0.014856168000000001,-0.010355984,0.002363916,-0.0017390340000000002,4.075,0,0
-0.026804727999999996,-0.007589088000000001,-0.0081134942,0.0024492760000000002,-0.003975272,4.076,0,0
-0.014127307999999996,0.0008338119999999997,-0.0045901882,0.0020761660000000004,-0.006139400000000001,4.077,0,0
-0.00024322799999999985,0.008235892,-0.0009808402,0.0010684,-0.007333664,4.078,0,0
0.012297912000000001,0.014054134,0.0026353598,-2.3137999999999967e-05,-0.007223720000000001,4.079,0,0
0.024052732,0.0184672,0.006118657800000001,-0.000974302,-0.006296194,4.08,0,0
0.032885160000000004,0.019777580000000003,0.008461388,-0.0021370060000000003,-0.0045561402,4.081,0,0
0.03579914,0.017546885999999998,0.009659172,-0.0030100400000000003,-0.0018996682000000003,4.082,0,0
0.03339446,0.013754686600000001,0.009708214000000001,-0.002953446,0.0007855458000000002,4.083,0,0
0.026740304,0.008253098600000001,0.008218912,-0.002786618,0.0031165538000000005,4.084,0,0
0.015587903999999998,0.00039181860000000015,0.005449088,-0.0025724320000000004,0.0053810958,4.085,0,0
0.0019254039999999995,-0.007317301400000001,0.0020619400000000004,-0.0017757826000000003,0.006631752,4.086,0,0
-0.010633576000000002,-0.012862347400000002,-0.0013265040000000003,-0.0010385786,0.006687430000000001,4.087,0,0
-0.020949696000000004,-0.016632988,-0.004448934,-0.00024552659999999997,0.006230988000000001,4.088,0,0
-0.028943000000000003,-0.01842604,-0.007195226000000001,0.0008878994,0.0049582058,4.089,0,0
-0.03248504,-0.01724682,-0.008949602,0.0016923174,0.0025869018,4.09,0,0
-0.03102994,-0.013481016,-0.009237406,0.002113504,-7.68702e-05,4.091,0,0
-0.026242946,-0.008397988,-0.008313534,0.002780172,-0.0022985322,4.092,0,0
-0.017965518,-0.0022344080000000007,-0.0060489796,0.0026206460000000003,-0.0044609022,4.093,0,0
-0.006477898000000002,0.004506052,-0.0025979196,0.0014290440000000004,-0.006067194,4.094,0,0
0.004899702000000001,0.010114392,0.0010195903999999998,0.0008417420000000001,-0.006222396,4.095,0,0
0.014760382000000002,0.014219468,0.0039955284,0.00024933199999999995,-0.005673169999999999,4.096,0,0
0.024138048000000002,0.016982900000000002,0.0064986284,-0.000738666,-0.004962474000000001,4.097,0,0
0.030236020000000002,0.017184940000000003,0.007986414,-0.001629304,-0.003238358,4.098,0,0
0.03068418,0.014492662000000003,0.007779214,-0.0023135259999999998,-0.0006201360000000005,4.099,0,0
0.02774942,0.010429672000000003,0.006916802,-0.002723604,0.001510414,4.1,0,0
0.0214701698,0.0049355360000000025,0.0053167072,-0.002895144,0.0035923120000000003,4.101,0,0
0.010733169799999998,-0.002057944,0.0024578172,-0.0027145738,0.005765242,4.102,0,0
-0.0009786302000000004,-0.008150484,-0.0004353308000000001,-0.0019213085999999998,0.006754606000000001,4.103,0,0
-0.010674690200000002,-0.012267786000000001,-0.0029500208000000005,-0.0005320566,0.006553754,4.104,0,0
-0.0194458702,-0.015093576000000001,-0.0055818088,0.0006497074,0.006034026000000001,4.105,0,0
-0.02619416,-0.01598818,-0.007486538,0.0016718954000000002,0.004986542,4.106,0,0
-0.027930780000000002,-0.013797534,-0.007859978,0.0023198772,0.0029822900000000003,4.107,0,0
-0.02604046,-0.009959006000000001,-0.007265636,0.002391114,0.0011110219999999997,4.108,0,0
-0.021664896,-0.005438404,-0.006053815999999999,0.002415562,-0.0008675060000000002,4.109,0,0
-0.013430910000000002,0.00027803600000000017,-0.003889188,0.00258611,-0.0034703620000000003,4.11,0,0
-0.002972890000000001,0.005803396000000001,-0.0010253080000000004,0.0026537880000000002,-0.005663972000000001,4.111,0,0
0.00635369,0.00981037,0.0015496619999999998,0.002418424,-0.006579674000000001,4.112,0,0
0.014987370000000002,0.012755982000000003,0.004035124,0.0022925276,-0.006606664000000001,4.113,0,0
0.022708746000000002,0.014411540000000002,0.006655154000000001,0.0015456316,-0.0056900580000000004,4.114,0,0
0.02602952,0.013582976,0.007973506000000002,3.267599999999928e-06,-0.0027832859999999994,4.115,0,0
0.025288580000000005,0.010886963800000002,0.007931794,-0.0010253104000000003,0.000705092,4.116,0,0
0.022132956000000006,0.0070398878,0.0072264420000000005,-0.0014322592000000002,0.00297605,4.117,0,0
0.015701154000000002,0.0017115478000000006,0.005377866,-0.0017205510000000003,0.004529642,4.118,0,0
0.006281814000000002,-0.004001052200000001,0.002696436,-0.001239311,0.005303113999999999,4.119,0,0
-0.0024703259999999997,-0.0080476482,0.00030352199999999997,-0.0003467498000000001,0.004360426,4.12,0,0
-0.009404366,-0.010493416,-0.001836532,-0.00011643439999999995,0.0030079440000000002,4.121,0,0
-0.015910981999999997,-0.01209636,-0.0039318800000000004,4.468260000000002e-05,0.002297486,4.122,0,0
-0.01996998,-0.011508648000000002,-0.0053560299999999995,0.00021948280000000004,0.0013414756000000002,4.123,0,0
-0.02015928,-0.009054562,-0.0061501260000000006,0.0001533732,0.0001515396000000001,4.124,0,0
-0.018467578000000002,-0.006319870000000001,-0.006274102,8.71616e-05,-0.0008030324000000001,4.125,0,0
-0.014974218,-0.002564252000000001,-0.005329121600000001,-4.292979999999998e-05,-0.0019818884000000004,4.126,0,0
-0.008122042,0.002243948,-0.0035580936000000002,-0.00018228379999999996,-0.0034633204000000003,4.127,0,0
-0.00048098199999999916,0.006353256,-0.0014389256000000004,-0.0003676244,-0.004406370000000001,4.128,0,0
0.006150938000000001,0.00925193,0.0007551343999999998,-0.0008560147999999999,-0.004502824000000001,4.129,0,0
0.012845436,0.011367958000000001,0.0027977704,-0.0011379844,-0.004091662,4.13,0,0
0.018259896,0.011985820000000001,0.004147926,-0.0014668124000000002,-0.0030799094,4.131,0,0
0.0198947,0.010325168000000001,0.004742912,-0.0020105146000000003,-0.0009353674000000002,4.132,0,0
0.018527306,0.007379158,0.004885988000000001,-0.0019484166000000001,0.0011555146,4.133,0,0
0.015038468,0.0039253579999999995,0.004338702,-0.0017356374,0.0023272066000000003,4.134,0,0
0.008346492,-0.0002945579999999999,0.0030718748000000003,-0.0013664328000000002,0.0036471606,4.135,0,0
0.00011351200000000007,-0.0046900380000000005,0.0016170968000000002,-0.0004715288000000001,0.004623874000000001,4.136,0,0
-0.007011908000000001,-0.007776486000000001,0.00019301680000000012,0.0002999264,0.003999282000000001,4.137,0,0
-0.012929934,-0.009423448000000001,-0.0012894552000000002,0.000354873,0.0028233766000000005,4.138,0,0
-0.017594976000000002,-0.010566128000000001,-0.0026045312000000003,0.0006745578,0.0020171606000000007,4.139,0,0
-0.01882624,-0.010113026000000002,-0.0034271480000000005,0.0011231472000000002,0.0006064626000000001,4.14,0,0
-0.017045116000000003,-0.007686641800000001,-0.003583528,0.0007888444599999999,-0.0011344794,4.141,0,0
-0.014258626000000002,-0.004803711800000001,-0.003404752,0.00079883066,-0.0021786974000000004,4.142,0,0
-0.009727344,-0.0014326578000000004,-0.0030471120000000003,0.00097815146,-0.0028067640000000002,4.143,0,0
-0.003311264000000001,0.0026836022000000003,-0.0020195386,0.0004697094599999999,-0.003189452,4.144,0,0
0.002558496,0.0058688382,-0.0006254725999999997,4.9170659999999984e-05,-0.0031985760000000003,4.145,0,0
0.007417812,0.007653394000000001,0.00048758740000000013,0.00022351999999999997,-0.0030365,4.146,0,0
0.012648462,0.009332664000000001,0.0018588174000000002,0.000263192,-0.002495678,4.147,0,0
0.01630418,0.009346128000000002,0.0030177494,0.00013496719999999998,-0.0013065540000000001,4.148,0,0
0.0165211,0.007296138760000001,0.003137584,0.000374408,0.00020193000000000012,4.149,0,0
0.014674178,0.005067328760000001,0.0032762880000000005,0.0007404407999999999,0.0014934000000000002,4.15,0,0
0.0111705088,0.0019910527599999997,0.0030753220000000006,0.0007639541999999999,0.00257396,4.151,0,0
0.005312632800000001,-0.0019348632400000003,0.0016931040000000004,0.0006790805999999999,0.00329544,4.152,0,0
-0.0009131071999999999,-0.00491460524,0.0004415740000000001,0.0010268605999999999,0.0032746700000000004,4.153,0,0
-0.0055845671999999996,-0.006632230000000001,-0.00028132999999999994,0.0011373898,0.002803626,4.154,0,0
-0.009434425199999999,-0.008101062000000001,-0.00186355,0.00047721899999999997,0.002209436,4.155,0,0
-0.012555436,-0.008364384,-0.0032776199999999998,0.000250107,0.0014706346000000002,4.156,0,0
-0.01320958,-0.006990086000000001,-0.0032980500000000003,8.848919999999996e-05,0.0004355126,4.157,0,0
-0.011926926,-0.005505705,-0.0034594160000000003,-0.0004607028,-0.0005312834,4.158,0,0
-0.00983594,-0.0034945110000000005,-0.0035520700000000005,-0.0003131364,-0.0014074034,4.159,0,0
-0.005953996,-0.0005231010000000002,-0.002267666,-0.00036064759999999995,-0.0025750814,4.16,0,0
-0.001018928,0.002058775,-0.0006131579999999999,-0.0008032696000000001,-0.0034407860000000004,4.161,0,0
0.003200112,0.003497045,0.00046535199999999993,-0.0009084212,-0.0036243440000000003,4.162,0,0
0.0068584380000000006,0.00504585,0.001878146,-0.0008938132000000001,-0.00355684,4.163,0,0
0.010428752000000001,0.006469208000000001,0.00359985,-0.0013027156,-0.0033088500000000003,4.164,0,0
0.012309928000000001,0.006061828,0.004183338,-0.0016163955999999998,-0.00207256,4.165,0,0
0.012193244,0.0047836576,0.0035831624,-0.0012583610000000002,-0.0002287280000000001,4.166,0,0
0.01119967,0.0035145276,0.0029568644,-0.0011997814,0.000864468,4.167,0,0
0.008479063,0.0012690156000000003,0.0019829378,-0.0015241474,0.0019060700000000002,4.168,0,0
0.0035371110000000003,-0.0017651443999999999,0.0003236158,-0.0012749646,0.003096002,4.169,0,0
-0.0011158730000000005,-0.0037303064,-0.0008537362,-0.00037334059999999993,0.003194224,4.17,0,0
-0.004475441,-0.004755998000000001,-0.0015058426,-6.647199999999939e-06,0.002724786,4.171,0,0
-0.008055107,-0.005752556000000001,-0.0025366686,0.00032876140000000003,0.0025291380000000002,4.172,0,0
-0.010397859999999998,-0.00562067,-0.0033478760000000005,0.0013360354,0.0015339820000000001,4.173,0,0
-0.010255824,-0.0041964914,-0.0035083560000000007,0.0018978706,8.23960000000002e-05,4.174,0,0
-0.009738026,-0.0025694134000000006,-0.0035458040000000005,0.0018588006,-0.0005881720000000001,4.175,0,0
-0.008699088,-0.0008782973999999999,-0.0031076814000000003,0.0020356946000000004,-0.00149383,4.176,0,0
-0.005672348000000001,0.0015232426000000002,-0.0019036933999999998,0.002107898,-0.002439796,4.177,0,0
-0.002388182,0.0035176826000000005,-0.0004845834000000001,0.0015334495999999999,-0.0024759800000000005,4.178,0,0
0.00054151,0.004282256,0.0008082146,0.0009187458,-0.0021718756,4.179,0,0
0.004126816,0.005221832000000001,0.0020476346,0.0004555134000000001,-0.0020748878000000004,4.18,0,0
0.007605242,0.0060820200000000005,0.0031407659999999997,-0.00013422279999999998,-0.0017014652,4.181,0,0
0.009283842,0.00550852,0.003568786,-0.0006918388,-0.0005050911999999999,4.182,0,0
0.009647890000000003,0.0044317160000000005,0.0032758979999999997,-0.0007225582000000001,0.0008478268000000001,4.183,0,0
0.009103090000000001,0.0036068418000000002,0.0028812299999999994,-0.0006999228,0.0018322984000000001,4.184,0,0
0.006615308,0.0017322318000000001,0.0019665311999999997,-0.0009004524000000001,0.0027638766000000004,4.185,0,0
0.0029328960000000004,-0.0007240882000000002,0.0004794752000000001,-0.0008977106000000001,0.003416072,4.186,0,0
-0.0003852180000000001,-0.0025150922,-0.0004890188,-0.0008437846000000001,0.0028703636,4.187,0,0
-0.003141132,-0.0040339842,-0.0009607848000000001,-0.0008618578000000001,0.0017453115999999998,4.188,0,0
-0.0062478080000000005,-0.005276858000000001,-0.0017601768,-0.0006906462000000001,0.0009705271599999999,4.189,0,0
-0.008051906000000001,-0.00551677,-0.0023244480000000002,-0.00018836200000000008,-0.00014810084,4.19,0,0
-0.008281018,-0.004929904,-0.002285428,0.00011519660000000001,-0.0012331468400000002,4.191,0,0
-0.008476066,-0.0042458240000000005,-0.002482868,0.0002971732,-0.0014776164400000001,4.192,0,0
-0.007608444,-0.0031572608,-0.002447926,0.00047956500000000005,-0.0016447944400000002,4.193,0,0
-0.005068446000000001,-0.0014809468000000002,-0.0015744260000000003,0.0003761092000000001,-0.001875696,4.194,0,0
-0.0024486539999999998,-0.00011690279999999995,-0.0005377700000000001,0.00012192740000000001,-0.0015209264,4.195,0,0
-0.00012229999999999967,0.0011114792000000001,0.00041059000000000007,0.00010249020000000002,-0.0009322044,4.196,0,0
0.00322344,0.0029981252,0.0018343640000000002,0.00033990660000000005,-0.0006945252000000002,4.197,0,0
0.0058505200000000005,0.0043796780000000006,0.00301434,0.000274298,-0.00019936820000000005,4.198,0,0
0.006803748000000001,0.00464945,0.0031043119999999997,8.105540000000004e-05,0.0006560398,4.199,0,0
0.0075759980000000005,0.004780412,0.003023142,-5.774300000000002e-05,0.0010481202000000001,4.2,0,0
0.007302002000000001,0.0044267840000000004,0.0028905080000000004,-0.00048747600000000003,0.0014488342,4.201,0,0
0.004894938000000001,0.0029579888,0.001725954,-0.0006216756,0.0018826950000000002,4.202,0,0
0.00244594,0.0013795488000000002,0.0006224298000000001,-0.0003022138,0.0012863540000000002,4.203,0,0
0.0009116600000000001,9.852480000000039e-05,0.0001431924,-0.00019901320000000007,0.00043751200000000014,4.204,0,0
-0.00138264,-0.0014494392,-0.0008806196,-1.4387400000000045e-05,0.00034500800000000006,4.205,0,0
-0.0035116620000000005,-0.0026440732,-0.0017784436,0.00030748219999999994,0.00010772780000000004,4.206,0,0
-0.004145642000000001,-0.003211584,-0.0016805132,0.0002393068,-0.00012977499999999992,4.207,0,0
-0.004707944,-0.003674484,-0.001617126,0.00014400780000000003,0.00033880900000000003,4.208,0,0
-0.005333158000000001,-0.003886332,-0.0017811886000000002,0.0004993404000000001,0.0005117218000000001,4.209,0,0
-0.004731754,-0.0033166059999999997,-0.0011922678000000002,0.0007376006000000001,0.0001027104,4.21,0,0
-0.0033200904000000005,-0.0023771179999999997,-0.0006013306,0.0008438326,-0.0003124514,4.211,0,0
-0.0020007844000000004,-0.001494534,-0.00035777620000000004,0.0011874446,-0.0005086876000000001,4.212,0,0
-0.00010478639999999986,-5.5862000000000164e-05,9.643479999999995e-05,0.0014128516000000001,-0.0007926536000000001,4.213,0,0
0.0024398536000000003,0.001856528,0.0008192128,0.0011553376000000002,-0.0012132284000000001,4.214,0,0
0.0041094336,0.00317709,0.0014104640000000002,0.0005772516000000001,-0.000822717,4.215,0,0
0.004906392000000001,0.003744532,0.0015475206000000001,0.0002822914000000001,-0.000337867,4.216,0,0
0.005686002000000001,0.00420116,0.0015864936000000002,-0.00023129980000000002,-0.0002938280000000001,4.217,0,0
0.005316304,0.0037304818000000006,0.00117416,-0.0009018338000000002,0.000441436,4.218,0,0
0.0030991959999999994,0.0021603758000000002,0.000362598,-0.0011871018000000001,0.0012126180000000002,4.219,0,0
0.00111482,0.0009192938,-0.0001555124,-0.0013130398,0.0009340264,4.22,0,0
-0.00016229000000000005,5.270239999999993e-05,-0.0006307642000000001,-0.0017497291999999998,0.0006360254,4.221,0,0
-0.0019568000000000003,-0.0012759976000000003,-0.001319026,-0.002244752,0.0007825694,4.222,0,0
-0.0033458620000000002,-0.0024388834000000003,-0.0015101004,-0.00197867488,0.00035354816,4.223,0,0
-0.0033767940000000007,-0.0029178994,-0.001332965,-0.0016553724799999998,-0.00030930984,4.224,0,0
-0.003639570000000001,-0.0035936534000000006,-0.0016301826000000002,-0.00127870768,-0.00049577664,4.225,0,0
-0.004153846000000001,-0.004155134,-0.0016529146,-0.0005237942799999999,-0.0007110336400000001,4.226,0,0
-0.0032535606,-0.0037397859999999997,-0.0012708863999999999,-8.596028000000002e-05,-0.00129265764,4.227,0,0
-0.0019373326000000001,-0.0025843564000000005,-0.0012970704000000001,-0.000154551,-0.0018423264000000002,4.228,0,0
-0.0008757006000000003,-0.0011885224000000002,-0.0011186515200000001,-8.133399999999986e-06,-0.0023100684000000003,4.229,0,0
0.0011814394,0.0007356355999999999,-0.00048456952000000005,0.00029517380000000003,-0.002749506,4.23,0,0
0.0037078674000000002,0.0030605876000000002,0.00018475048,0.0002867286,-0.0028905260000000005,4.231,0,0
0.004531562,0.0045131496,0.0008135382800000001,0.0005181566000000001,-0.0024890638,4.232,0,0
0.004787042,0.005033092,0.00123294068,0.0007951962,-0.0017436818000000002,4.233,0,0
0.005226234000000001,0.005183136,0.0013079250000000001,0.0009274762000000001,-0.0009922804,4.234,0,0
0.003786996,0.004205118,0.0011405038,0.0010572842,0.00012555160000000005,4.235,0,0
0.0012181520000000001,0.0019697340000000003,0.0008865392000000001,0.0013150520000000001,0.0013329256000000002,4.236,0,0
-0.0003248579999999999,0.00020458400000000006,0.0005895332,0.001634224,0.0018735834,4.237,0,0
-0.0016695980000000002,-0.000963168,0.00029796339999999997,0.001617434,0.0023654654,4.238,0,0
-0.003697896,-0.0023842760000000003,2.6121200000000057e-05,0.0012372860000000002,0.0029756640000000003,4.239,0,0
-0.004429428000000001,-0.0030453680000000006,-8.380691999999997e-05,0.0006167499999999999,0.0025153643999999997,4.24,0,0
-0.004063118,-0.002899282000000001,-6.277692000000002e-05,-0.00021813399999999993,0.0020268203999999996,4.241,0,0
-0.004189794,-0.0030334480000000002,-0.00026557672000000006,-0.000787814,0.0020060564,4.242,0,0
-0.0040087840000000005,-0.00328106,-0.00020522532000000004,-0.0007775780000000001,0.0010621864000000003,4.243,0,0
-0.0027577596,-0.002900948,0.00025946228000000004,-0.0007414046,0.0002340944000000001,4.244,0,0
-0.0017223814000000002,-0.0022334720000000002,0.00032058200000000003,-0.00048226400000000004,0.0004952520000000001,4.245,0,0
-0.0009881082000000002,-0.0016298069999999998,7.8171e-05,-3.1432000000000278e-06,0.0005457760000000001,4.246,0,0
0.0009313138000000001,-0.00015701699999999975,0.0001689194,0.00018148520000000002,-8.403400000000003e-05,4.247,0,0
0.0029252358000000003,0.0014736450000000002,0.0005386674,-4.6088799999999985e-05,-0.00018865,4.248,0,0
0.0037821994000000005,0.0020766190000000005,0.0006628174000000001,-0.0001852134,-0.00012287800000000007,4.249,0,0
0.0045732832,0.002701723,0.0009583650000000001,-0.00010272459999999999,-0.000870368,4.25,0,0
0.0050916600000000005,0.003147286,0.0011618818,-0.0001407096,-0.0012751224,4.251,0,0
0.0038675040000000003,0.0019496760000000002,0.0008463232000000002,2.6068799999999997e-05,-0.0009130798000000001,4.252,0,0
0.0022924756,0.000679982,0.00047920240000000005,0.0003321968,-0.0009076938000000002,4.253,0,0
0.0017696776,0.00019576199999999993,1.989779999999995e-05,0.0005409998,-0.0008360096000000002,4.254,0,0
0.0009812368000000002,-0.001202224,-0.0003134874,0.0005314231999999999,-0.0001920276,4.255,0,0
-9.229719999999999e-05,-0.00243333,-0.00037475600000000007,0.0006870235999999999,0.0001888408,4.256,0,0
-0.0004100392,-0.0021724789999999997,-0.0001001074,0.0005553978,0.00039746620000000003,4.257,0,0
-0.0010843528,-0.0017068314000000002,3.0528000000000227e-07,-0.00016433220000000007,0.0009768062,4.258,0,0
-0.0026037748,-0.0017659354,-0.00029077612000000003,-0.0004371794,0.001596746,4.259,0,0
-0.002993632,-0.0011952246000000001,-0.0005895269200000001,-0.0005290026,0.001740136,4.26,0,0
-0.0024401352,-8.981259999999997e-05,-0.0006885731200000001,-0.000526768,0.0013590791999999999,4.261,0,0
-0.0022606728,0.00011957319999999996,-0.00066945772,-5.080899999999997e-05,0.0008985406,4.262,0,0
-0.0014424192000000004,0.00010113039999999996,-0.00067795462,0.0004615238000000001,0.00043776259999999995,4.263,0,0
0.00027748280000000007,0.0008684404000000001,-0.00043268702000000004,0.0005248928000000001,-0.00031087740000000007,4.264,0,0
0.0010058148000000001,0.0010740298,-0.00029312102000000006,0.00014392720000000003,-0.0007726874000000001,4.265,0,0
0.0005258700000000001,0.00011901179999999998,-0.00034077622000000003,-0.00034658759999999997,-0.0008612014000000002,4.266,0,0
0.0009011376000000001,-0.00010597680000000003,-0.00029697862,-0.0009050608,-0.0013416628,4.267,0,0
0.001288734,-0.0003225124000000001,-0.0003248938,-0.0014585456000000003,-0.0015945028,4.268,0,0
0.0002282579999999999,-0.0013248124,-0.0004898874,-0.0016215652000000002,-0.0012730856,4.269,0,0
-1.138100000000006e-05,-0.0012609793999999999,-0.0005007586,-0.0010989836000000002,-0.0011218588,4.27,0,0
0.000754289,-0.00018988540000000002,-0.00029471379999999994,-0.0006232396,-0.0007775330000000001,4.271,0,0
0.0004867698,0.0006684564000000001,-0.00017106259999999997,-0.00042804560000000015,0.00023284300000000005,4.272,0,0
0.00023756779999999997,0.0017104672000000003,-7.714799999999993e-05,0.0003626004,0.0011465610000000002,4.273,0,0
0.0009088294000000001,0.0030650612000000005,0.0003259342,0.0007099154,0.0013734078000000002,4.274,0,0
0.0004175724000000001,0.0031335218000000005,0.00032504280000000005,0.0003223118,0.001562933,4.275,0,0
-0.0008608056000000001,0.0025294350000000005,-0.00018264719999999996,0.00031683000000000004,0.001567628,4.276,0,0
-0.0010675424,0.0021723070000000005,-0.00044224140000000004,0.00030961400000000005,0.0008300740000000001,4.277,0,0
-0.0015955684,0.0013076990000000003,-0.0007323898,-0.0002073924,0.00031787819999999997,4.278,0,0
-0.002593268,0.000465599,-0.0010039524,-0.00042073260000000004,0.0002379486,4.279,0,0
-0.0021758326,0.00026876978,-0.0007256119999999999,0.00015073140000000003,-0.0004842154000000001,4.28,0,0
-0.0009563186,0.00010939857999999998,-0.00010012199999999999,0.00031192920000000003,-0.0013906774,4.281,0,0
-0.0008504308,-0.00076127942,-6.297519999999999e-05,0.0005991904,-0.0014284814,4.282,0,0
-0.0004416150000000001,-0.00136479942,0.0002878628,0.0012348688000000001,-0.0016503356000000002,4.283,0,0
0.001085201,-0.00121257242,0.0007296432,0.0013449134,-0.0022477020000000003,4.284,0,0
0.0012640916000000002,-0.001478199,0.0003399154,0.0008948335999999998,-0.001739644,4.285,0,0
0.0008174854000000001,-0.001865893,0.00022523220000000003,9.988359999999993e-05,-0.00026120799999999997,4.286,0,0
0.0015778436,-0.0012431728000000001,0.0003814674,-0.0005872424000000001,0.00074025,4.287,0,0
0.0022806578000000004,-0.000528729,0.00035363159999999996,-0.0010462264,0.001349842,4.288,0,0
0.0020835358000000003,-0.0007830604000000001,0.0004218516,-0.0007459518,0.002188002,4.289,0,0
0.0023368658000000003,-0.0005550782,0.0010823836000000001,-0.0001413600000000001,0.0021303880000000004,4.29,0,0
0.00285525,0.00041245980000000006,0.0015314508,0.0004920782,0.0013940404,4.291,0,0
0.0017789680000000001,0.0005827496,0.0016711121999999998,0.0010366802,0.0013018584,4.292,0,0
0.00025737199999999985,0.000549354,0.0014389056,0.0012973602,0.0012056464,4.293,0,0
-0.00039814840000000005,0.0007785752000000002,0.0007940756,0.0010082224000000002,0.0006891926,4.294,0,0
-0.0016006644000000003,0.0002586010000000001,0.0001298496,0.00032168440000000006,0.0008625020000000001,4.295,0,0
-0.0027604424000000002,-0.000572535,-0.0008629484,0.00019588280000000003,0.0008097196000000001,4.296,0,0
-0.0022603278,-0.0008059352,-0.001154719,0.00041473280000000007,-0.0003204364,4.297,0,0
-0.0015637848000000002,-0.0008041354,-0.0009313222000000001,0.00045835280000000003,-0.0008410804,4.298,0,0
-0.0018784724000000003,-0.0008984395599999999,-0.0009115142000000001,0.00047354260000000007,-0.0008419824000000002,4.299,0,0
-0.0017056964000000002,-0.00041394836000000005,-0.0008974062000000001,0.000802755,-0.0015500198000000002,4.3,0,0
-0.001030026,0.00011016184000000001,-0.0005998964000000001,0.0006393154,-0.0017911518000000002,4.301,0,0
-0.0012194684000000002,-2.029415999999999e-05,-0.0003939274,4.6388600000000005e-05,-0.0008466618000000001,4.302,0,0
-0.0013233988000000002,2.5191640000000014e-05,-0.00017684379999999993,-0.0002589714,-0.0005588272000000002,4.303,0,0
-7.436880000000017e-05,0.0007655350000000001,0.0005938282000000001,-0.00026937140000000005,-0.0008071554000000001,4.304,0,0
0.0013206992,0.0016817078000000002,0.0011981422000000002,-0.0006939158000000001,-0.0004274134000000001,4.305,0,0
0.0017164568,0.0018991996,0.0014855918000000001,-0.0009506568000000001,-0.0004570234,4.306,0,0
0.0021414985999999997,0.0022757518000000006,0.0016333494000000002,-0.0008493204,-0.0012476414,4.307,0,0
0.0021528095999999997,0.0023211004,0.0015064750000000002,-0.0015219744,-0.0012069144,4.308,0,0
0.0006789636000000001,0.0008734364000000001,0.0008679206000000001,-0.0018943904,-0.0003768863999999999,4.309,0,0
-0.0008173124,-0.0004042616,0.0005415372000000001,-0.0015003984,-0.00013397939999999986,4.31,0,0
-0.0017821384,-0.0010702796000000001,0.0003404832,-0.0009450993999999998,-0.00012588139999999992,4.311,0,0
-0.0029571244000000003,-0.0021495776,-0.0004143148,-0.0007432995999999998,0.0002334070000000001,4.312,0,0
-0.003469758,-0.002564816,-0.0008216964,-8.1408e-05,0.00015153040000000006,4.313,0,0
-0.0026772844,-0.00154062,-0.0007454408,0.000768676,-0.0004979854,4.314,0,0
-0.0018942518,-0.0010663668000000003,-0.0008305688000000001,0.000892532,-0.0005043134000000001,4.315,0,0
-0.0014501419999999998,-0.0008269128,-0.0010256002,0.0008702554,-0.00010754559999999996,4.316,0,0
-0.000179226,0.00019199720000000003,-0.0010085902,0.001023402,-4.4909999999999975e-05,4.317,0,0
0.0009978740000000002,0.0005399704,-0.0013665462,0.0010933034000000002,-0.0001116692,4.318,0,0
0.0010773108,0.00020644240000000004,-0.0016671234,0.00048084920000000006,0.00011094119999999998,4.319,0,0
0.0014611562,0.00021931300000000003,-0.001339254,0.0003780806000000001,8.229279999999998e-05,4.32,0,0
0.0024526944,0.000574487,-0.000703602,0.0005675982000000001,-0.00047847499999999996,4.321,0,0
0.0028244824000000003,0.0006921150000000001,0.00020025400000000002,0.00015223780000000003,-0.0005841436,4.322,0,0
0.0027322624,0.0007973968,0.0014018960000000001,0.0001819298,-7.570339999999991e-05,4.323,0,0
0.0033242700000000003,0.0009967172,0.00205616,0.0003491873,0.0001939680000000001,4.324,0,0
0.0032751720000000002,0.0006011214,0.001655593,-9.761210000000005e-05,0.0005626294000000002,4.325,0,0
0.001703216,-0.00021614260000000005,0.001054681,-0.00021443810000000004,0.0016919934000000003,4.326,0,0
0.0005639499999999998,-0.0007677426000000001,0.000296767,-4.405570000000002e-05,0.0019144252000000003,4.327,0,0
-7.575520000000017e-05,-0.0012649076,-0.0008788610000000001,-0.00041018270000000006,0.0013762792000000003,4.328,0,0
-0.0015341792000000002,-0.001784094,-0.0018725970000000002,-0.0005281330000000001,0.0012603812000000002,4.329,0,0
-0.0024959772000000004,-0.0015695038000000001,-0.001968722,-0.00037165500000000003,0.0006267752000000001,4.33,0,0
-0.0019694712000000005,-0.00094934502,-0.0019174904000000001,-0.0008669530000000002,-0.00020734039999999998,4.331,0,0
-0.0020979632,-0.0008548798200000001,-0.0019833704,-0.0010729718,-7.178559999999995e-05,4.332,0,0
-0.002177716,-0.00037350042,-0.0012175924000000001,-0.0007187092000000002,-0.0001420196,4.333,0,0
-0.0008848940000000002,0.00069063158,-0.0001142424000000001,-0.0006561892000000001,-0.0008921896,4.334,0,0
-0.00011220400000000013,0.00106464338,0.0003326675999999999,-0.0004844808,-0.0008483718000000001,4.335,0,0
0.00016403999999999995,0.0012397474,0.0007032236,-0.0001782204,-0.0007015729298,4.336,0,0
0.0012973720000000002,0.0020625122,0.0013518955999999999,2.0938599999999996e-05,-0.0010402373298,4.337,0,0
0.0020390340000000003,0.0026028628000000003,0.0012799226,-9.25218e-05,-0.0007596875298000001,4.338,0,0
0.0013059592,0.0019671106,0.0009051136,-0.0002474606,-0.00016901512980000002,4.339,0,0
0.0013054652,0.0015045905999999999,0.0010930016,-0.000475525,-0.00014846452980000002,4.34,0,0
0.0019409972000000001,0.0012440632,0.0011195159999999999,-0.0008260794000000001,-3.289880000000001e-05,4.341,0,0
0.0009102632,-8.336280000000008e-05,0.00048281999999999996,-0.000734201,0.0003750396,4.342,0,0
-0.0005232428000000002,-0.0015137128000000002,0.00020700579999999985,-0.00028262519999999996,0.00048732380000000007,4.343,0,0
-0.0009128880000000003,-0.0020886126000000003,0.00017715599999999993,-4.4533e-05,0.00025005320000000004,4.344,0,0
-0.002000244,-0.0024730166000000004,-0.0006070020000000001,0.00016357920000000003,0.0005164524000000001,4.345,0,0
-0.00400024,-0.0026987760000000004,-0.00139003,0.0006081078,0.0009476834000000001,4.346,0,0
-0.004444906,-0.0017905920000000001,-0.001490964,0.0006152072000000001,0.00044962720000000004,4.347,0,0
-0.0038069079999999995,-0.000565422,-0.00135096374,0.00014253260000000003,-2.679280000000004e-05,4.348,0,0
-0.0040696560000000005,8.277819999999989e-05,-0.00134304634,-0.0001246378,0.0001995384,4.349,0,0
-0.003683236,0.0009651741999999999,-0.0011382585399999999,0.00021324400000000005,0.0002370532,4.35,0,0
-0.001882744,0.0018839382,-0.00049247994,0.0004277934,-0.00010660480000000005,4.351,0,0
-0.0006147520000000001,0.0017613662000000002,0.00014051986,0.0005930354,0.00018370799999999998,4.352,0,0
0.00035933800000000017,0.0014318664,0.00043539079999999996,0.001181798,9.695800000000002e-05,4.353,0,0
0.0024619560000000004,0.0020105302,0.0010262682,0.0017163860000000003,-0.000749095,4.354,0,0
0.004531964000000001,0.0021976222,0.0019310744000000002,0.0014028232,-0.0011587414000000002,4.355,0,0
0.005129074,0.0016888636000000003,0.0023173878,0.0008497692000000002,-0.0013218664000000002,4.356,0,0
0.0055923480000000005,0.0017845196,0.0022549028000000003,0.0003990472,-0.0015086026000000002,4.357,0,0
0.005635486000000001,0.0013247234,0.0018423290000000004,-0.0004208788,-0.0011201506,4.358,0,0
0.003643182,-0.0003602525999999999,0.0011299012,-0.0005250728,-0.00015369500000000003,4.359,0,0
0.001446928,-0.0016380006,0.00023971219999999996,-0.00021189400000000007,7.26166e-05,4.36,0,0
0.00023383639999999988,-0.002486316,-0.00024549380000000006,-4.366280000000001e-05,-0.00020475640000000003,4.361,0,0
-0.0018245816000000002,-0.0037841100000000003,-0.0002392558000000001,-2.284639999999998e-05,0.00024331720000000002,4.362,0,0
-0.0036330436,-0.004169336,-0.0005137340000000001,-0.0001227784,0.0012575512,4.363,0,0
-0.00311483,-0.003115117,-0.0008366862,-0.00047939520000000004,0.0017116855999999999,4.364,0,0
-0.002840196,-0.002542155,-0.0011234612000000001,-0.0008571428,0.0016782894,4.365,0,0
-0.0034651244,-0.002097405,-0.0016758812000000002,-0.0007190626,0.0016977474,4.366,0,0
-0.0025834764000000005,-0.000643065,-0.0019053082000000002,-0.0004687528,0.0010152574,4.367,0,0
-0.0012141984000000002,0.0005341009999999999,-0.0014208402,-9.14868e-05,-0.0002525985999999999,4.368,0,0
-0.0010338539999999998,0.0008347879999999999,-0.0009453324000000001,0.000253095,-0.0010945225999999999,4.369,0,0
-0.00044809999999999994,0.0018169459999999998,-0.00018283640000000005,0.0005556198000000001,-0.001425006,4.37,0,0
0.00151943,0.00313551,0.0009584356000000001,0.00032948440000000003,-0.0014038172,4.371,0,0
0.002839812,0.0034246579999999997,0.0015987398000000001,-0.0002798918,-0.0008570812000000001,4.372,0,0
0.0031610759999999996,0.0034089,0.0019548618000000003,-0.0003987822,-0.00013372720000000006,4.373,0,0
0.004030814000000001,0.003332872,0.002266272,-0.0006511146,0.0002566497999999999,4.374,0,0
0.0038968614000000003,0.0023862280000000002,0.002103723,-0.0010919118,0.0009615877999999999,4.375,0,0
0.0019104234000000002,0.0009055039999999999,0.0013029090000000003,-0.0008762094,0.0017296669999999998,4.376,0,0
0.00037967739999999995,-0.00019649800000000014,0.0003980730000000001,-0.0004654708,0.0014568493999999998,4.377,0,0
-0.0009087246,-0.0012967940000000002,-0.000356921,-0.0005225784,0.0008826366000000002,4.378,0,0
-0.0027989246000000006,-0.002440022,-0.0010840070000000001,-0.000190661,0.0007489627999999999,4.379,0,0
-0.003491952,-0.00296885,-0.001615858,0.000371139,0.0005434732,4.38,0,0
-0.0026217078000000003,-0.002738762,-0.001592816,0.00016733299999999992,3.017999999999943e-07,4.381,0,0
-0.0023853258,-0.0023710114,-0.0013090774,0.00015619979999999993,-0.00044126859999999996,4.382,0,0
-0.0021004978,-0.0019918454,-0.0012471234,0.0009637558,-0.0005636778,4.383,0,0
-0.0003464537999999999,-0.0010538294,-0.0010061426,0.0010765018000000002,-0.000553141,4.384,0,0
0.0008606682,-0.0004482718,-0.0006309094800000001,0.0007830681,-0.0008361448000000001,4.385,0,0
0.001021074,-0.0006046058,-0.00058161308,0.0011240417000000001,-0.0010449224,4.386,0,0
0.002280456,-0.00032610439999999994,-0.00028146368000000013,0.0012106663,-0.0009428364,4.387,0,0
0.0041357220000000005,0.00047719160000000006,0.00027949032,0.0006308879000000002,-0.0011920484,4.388,0,0
0.004432092,0.0010324456,0.00042333631999999993,2.459390000000001e-05,-0.0013763058,4.389,0,0
0.004470194,0.002053394,0.0007285111999999999,-9.54288e-05,-0.0011966784000000002,4.39,0,0
0.004930235999999999,0.0031970120000000004,0.0013459848,-0.000132895,-0.0008284806,4.391,0,0
0.0038460167999999997,0.0029183414,0.0010729994,-4.803820000000002e-05,-1.2030599999999993e-05,4.392,0,0
0.0014231648000000003,0.0018563834000000002,0.00043454740000000005,1.566959999999999e-05,0.0007542654000000001,4.393,0,0
-0.00046859720000000035,0.0008658133999999999,0.0003869004,6.78238e-05,0.0009730884000000001,4.394,0,0
-0.0022705492000000002,-0.0006438146000000001,-4.0050400000000066e-05,2.455819999999995e-05,0.0011631266000000002,4.395,0,0
-0.0042957532,-0.0022010106,-0.0007036922000000001,-0.0003600116,0.0011509398,4.396,0,0
-0.004940726,-0.0025221360000000003,-0.0008327750000000001,-0.0003625134,0.00063715,4.397,0,0
-0.004369344000000001,-0.00234706,-0.0006203334000000001,-0.0002823766000000001,0.00013647000000000003,4.398,0,0
-0.0036683052000000007,-0.0023204260000000004,-0.0006510226,-0.00026692160000000003,-6.634799999999998e-05,4.399,0,0
-0.0025392542000000004,-0.001706789978,-0.0007324856,3.330359999999998e-05,-0.000363982,4.4,0,0
-0.0005064462000000003,-0.000869028378,-0.0004803032000000001,0.0002698108,-0.000619772,4.401,0,0
0.0010432818,-0.00040604097800000003,-0.00024545420000000005,-4.572420000000004e-05,-0.00039265720000000005,4.402,0,0
0.0020325658,0.00026030502200000003,-8.166700000000002e-05,-0.00029669500000000003,-0.0003439316,4.403,0,0
0.003366291,0.001176335022,0.0001070898,-0.00021737920000000003,-0.0004868852,4.404,0,0
0.004224656,0.0019253710000000004,0.0005138796000000001,-0.0004943064,-0.0003403916,4.405,0,0
0.004203500000000001,0.0026592434,0.000785201,-0.0007027578000000001,-0.00021322540000000002,4.406,0,0
0.004011988,0.0030894280000000004,0.0009669782,-0.0004785178000000001,-0.0004171976,4.407,0,0
0.0036161978,0.002678437,0.0011140074,-0.0005348694,-0.000298692,4.408,0,0
0.0017228958000000002,0.0014356550000000003,0.0008699927999999999,-0.0006097656000000001,8.90966e-05,4.409,0,0
-0.0004200882000000003,0.00014539900000000016,0.0003005528,-0.00015187559999999998,0.00014532900000000003,4.41,0,0
-0.0022911462,-0.001047633,-0.00010228600000000004,9.250480000000006e-05,0.0003245788,4.411,0,0
-0.0047940822,-0.002366483,-0.00033923400000000005,0.0001747746000000001,0.0007842060000000001,4.412,0,0
-0.006508132000000001,-0.0026657600000000005,-0.0006476082,0.0006413468,0.0010890488,4.413,0,0
-0.00640415,-0.0016270579999999998,-0.00033937080000000003,0.0009470904000000001,0.0008790890000000002,4.414,0,0
-0.0057182,-0.0010557302000000002,-0.0001043178,0.0006003752000000002,0.0008657560000000003,4.415,0,0
-0.005163958,-0.0009440462000000001,-0.00028977299999999995,0.00045272180000000006,0.0010182860000000002,4.416,0,0
-0.0030124540000000003,8.217579999999998e-05,-0.00015525419999999997,0.0006284960000000001,0.0005914754,4.417,0,0
-0.0007737240000000004,0.0006808818,-5.630999999999995e-05,0.00053072,4.9023399999999955e-05,4.418,0,0
-0.00015759780000000002,0.0007814218,-2.0572199999999993e-05,0.00035756760000000003,-0.0002867914000000001,4.419,0,0
0.0011313182000000001,0.00185898,0.0006111028,0.0005641414,-0.0007407886000000001,4.42,0,0
0.0032113102000000003,0.0031729320000000003,0.0011711668000000002,0.0008684286000000001,-0.0012381136,4.421,0,0
0.0041159682,0.0034836640000000005,0.0010919312,0.0004370200000000001,-0.001223623,4.422,0,0
0.0042878942,0.0034181572000000003,0.0011216866,0.00024619060000000007,-0.0006695990000000001,4.423,0,0
0.004888806,0.0033448472000000003,0.0010818426000000002,0.0003177698000000001,0.0001929889999999999,4.424,0,0
0.0041254199999999994,0.0019930952000000004,0.00035367060000000004,-0.00036076880000000003,0.001287381,4.425,0,0
0.0018536059999999998,7.685320000000017e-05,-0.0003711474000000001,-0.0007441398000000002,0.002230698,4.426,0,0
0.00018296800000000015,-0.0009817747999999998,-0.00045861600000000007,-0.0005927510000000001,0.002595312,4.427,0,0
-0.0015936980000000002,-0.002088658,-0.0007282294000000001,-0.0007350848,0.0025752460000000002,4.428,0,0
-0.0039838140000000005,-0.003687872,-0.0012083034000000001,-0.0007727302600000002,0.002382848,4.429,0,0
-0.005406094,-0.0039964480000000005,-0.0011051408,-0.00025035926000000007,0.0015957226,4.43,0,0
-0.005308794,-0.0033380360000000004,-0.0009086208,8.453813999999998e-05,0.0006600106000000001,4.431,0,0
-0.005470824,-0.0030572040000000004,-0.0010843494,-6.932726000000004e-05,0.00022863060000000005,4.432,0,0
-0.005221792,-0.0023307644000000005,-0.0008929491999999999,-0.00020061406000000006,-0.0005044934000000001,4.433,0,0
-0.0029374500000000003,-0.0009627224000000001,-0.0003347432,-0.0007278918000000001,-0.0015565434000000002,4.434,0,0
-0.0007880879999999999,0.0002643176,-0.00017413619999999993,-0.0015300988000000002,-0.0019660520000000003,4.435,0,0
0.00061617,0.0008665156000000001,-9.06384e-05,-0.0014963852,-0.0020605120000000005,4.436,0,0
0.002851558,0.0014339856000000002,0.00041063960000000007,-0.0010433240000000002,-0.0024229760000000003,4.437,0,0
0.0053629820000000005,0.0021443,0.0008041874000000001,-0.0010389560000000002,-0.002259306,4.438,0,0
0.006317074,0.0019631659999999997,0.0007796994000000002,-0.000494272,-0.0012618660000000002,4.439,0,0
0.006802888,0.0012519932000000001,0.0010228238,0.00041789800000000004,-0.0005985416000000001,4.44,0,0
0.007148504000000001,0.0007918524000000001,0.0016197320000000002,2.6568000000000007e-05,-0.00043921940000000005,4.441,0,0
0.0052326560000000005,-7.200559999999992e-05,0.0015274820000000001,-0.0004625940000000001,0.0003329626,4.442,0,0
0.0022920560000000006,-0.0011974796,0.001004515,5.3973999999999955e-05,0.0010330006,4.443,0,0
-7.40379999999998e-05,-0.0018081436,0.0007788914,0.00031858399999999996,0.0008399637,4.444,0,0
-0.002877106,-0.0023626528,0.00032259799999999995,0.000309337,0.0007032135000000001,4.445,0,0
-0.005850206,-0.0028473300000000003,-0.00046691200000000005,0.0009686110000000001,0.0005679901,4.446,0,0
-0.006540600000000001,-0.0025295394000000005,-0.0007472066,0.001546283,-0.00029493990000000007,4.447,0,0
-0.005638567600000001,-0.0015482614000000001,-0.0006626914,0.001254481,-0.0010819299,4.448,0,0
-0.005107349600000001,-0.000881513,-0.0009675098000000001,0.0009232092000000001,-0.0010682182000000002,4.449,0,0
-0.0035382850000000004,-0.00016946000000000002,-0.0007192944,0.0006846928,-0.0012562570000000002,4.45,0,0
-0.0008808730000000002,0.0012041,-0.0001256244,0.0001325744,-0.0015318838000000002,4.451,0,0
0.0010453910000000001,0.0018546273999999999,-3.0460920000000044e-05,-0.000167741,-0.0012146378000000002,4.452,0,0
0.0023474526,0.0021002034,0.00021873648,-0.00022247360000000004,-0.0009180098000000001,4.453,0,0
0.0040594726,0.0029321729999999997,0.00087236248,-0.00040847180000000004,-0.0011856506,4.454,0,0
0.005609355999999999,0.003217438,0.00113708048,-0.0002105934,-0.001213593,4.455,0,0
0.0059654420000000005,0.002786512,0.00078905868,-6.5280000000000026e-06,-0.0006492703999999999,4.456,0,0
0.005689738,0.002677452,0.0005875854,-8.293320000000004e-05,-0.0004583980000000001,4.457,0,0
0.004872700000000001,0.0018353199999999999,0.00039812299999999996,-5.6206000000000024e-05,-0.00030364680000000003,4.458,0,0
0.002836008,-0.00020386000000000004,-0.00046005300000000004,0.00010856519999999999,0.0003939652,4.459,0,0
0.00036345400000000047,-0.001651628,-0.001638853,0.00026462619999999997,0.0009838522,4.46,0,0
-0.0015741739999999998,-0.002758466,-0.0020529032,0.00013913205999999999,0.0010932716,4.461,0,0
-0.0035954940000000003,-0.00420984,-0.0023125068,-0.00011409934000000002,0.0014029112,4.462,0,0
-0.005462404,-0.0048436980000000004,-0.0029075800000000008,-5.3773740000000026e-05,0.001677222,4.463,0,0
-0.005523336,-0.0037160948,-0.0027983820000000003,5.626705999999996e-05,0.0012497806,4.464,0,0
-0.005051554000000001,-0.0022805427999999994,-0.0022539720000000004,-0.00017116594000000002,0.0006544335999999999,4.465,0,0
-0.005087154,-0.0014868011999999997,-0.0018067062000000002,0.00010988720000000004,0.00013433560000000006,4.466,0,0
-0.00341466,7.83108e-05,-0.0007388122000000002,0.0004763882000000001,-0.0009330764,4.467,0,0
-0.001044138,0.0016615268000000002,0.0004275017999999998,0.00033900540000000005,-0.0017811324,4.468,0,0
2.4275999999999996e-05,0.0019887636000000004,0.0010259817999999999,0.00032495000000000007,-0.0017071492000000003,4.469,0,0
0.0014764539999999999,0.0022246476000000004,0.0017987937999999998,0.00031908602000000003,-0.0016221178,4.47,0,0
0.0038295200000000003,0.0031717860000000002,0.002279114,0.00014462502,-0.0013598284000000003,4.471,0,0
0.004873492,0.0036360439999999997,0.0017656836,2.328242e-05,-0.0005369594,4.472,0,0
0.004935798,0.003110046,0.0013464462000000001,0.00018490222000000001,0.0002795426,4.473,0,0
0.005614378000000001,0.0028121365999999996,0.0015611042,0.00030741042000000004,0.0005351488,4.474,0,0
0.004925336000000001,0.0023188723999999997,0.0013125722000000002,1.588539999999996e-05,0.0009245163999999999,4.475,0,0
0.0026477920000000004,0.0007562744000000003,0.0008976039000000001,-0.00028155100000000006,0.001476991,4.476,0,0
0.0009423860000000001,-0.0006677736,0.0010280083,-0.00016848000000000004,0.0014301740000000002,4.477,0,0
-0.0009623500000000001,-0.0013868195999999998,0.0007834423000000001,-0.00025968700000000004,0.0011925905999999999,4.478,0,0
-0.0036512380000000002,-0.0024645562,-0.0001175417,-0.00033880720000000007,0.0012813505999999999,4.479,0,0
-0.005058486000000001,-0.003363088,-0.0006994817000000001,0.0002556008,0.0009997146400000001,4.48,0,0
-0.004729180000000001,-0.0029609188,-0.0008770014000000001,0.0004364422,0.00036643784,4.481,0,0
-0.004758944,-0.0024281198,-0.0010996902200000002,-3.739520000000003e-05,0.00068292984,4.482,0,0
-0.004514210000000001,-0.0019425599999999999,-0.0010936120200000002,-7.505980000000003e-05,0.00068420464,4.483,0,0
-0.0028725860000000003,-0.0005053239999999999,-0.0006515144200000001,-0.00015978392000000005,0.00012243344,4.484,0,0
-0.0014572040000000001,0.00104289,-0.00020399802000000005,-0.00064369932,0.0004577634,4.485,0,0
-0.000545306,0.0020093128,-0.00018661622,-0.0006921819200000001,0.0007880662000000001,4.486,0,0
0.0011663420000000001,0.0029817118,8.95126e-05,-0.00036236092000000006,0.00032318920000000005,4.487,0,0
0.0033645080000000004,0.00396151,0.0008217618,-0.00029276652000000006,0.0001660362,4.488,0,0
0.004523956000000001,0.004104882,0.0009164840000000001,-0.00035545620000000005,0.0004557436000000001,4.489,0,0
0.005263950000000001,0.003678492,0.0008677648,-6.321399999999998e-05,-0.00010268639999999999,4.49,0,0
0.005893092000000001,0.0028724759999999997,0.0014849190000000001,0.00011372699999999998,-0.00047627300000000004,4.491,0,0
0.0049120100000000005,0.0010845619999999999,0.0013296560000000002,0.0001295868,0.00023804599999999995,4.492,0,0
0.002770676,-0.0007795980000000002,0.0004125880000000001,0.00032014740000000004,0.0005998275999999999,4.493,0,0
0.0009108040000000002,-0.002098562,0.00018277380000000004,0.00033594720000000003,0.0005829549999999999,4.494,0,0
-0.001216914,-0.00345166,3.056600000000002e-05,-0.00018876760000000005,0.001098685,4.495,0,0
-0.003916454,-0.00454941,-0.000824284,-0.00040484900000000004,0.0011260364,4.496,0,0
-0.005117472,-0.0044709960000000005,-0.0013196610000000002,3.914019999999997e-05,0.0003166124000000001,4.497,0,0
-0.005064806,-0.0039275080000000006,-0.001378397,-0.0002421742000000001,3.62108e-05,4.498,0,0
-0.005456216,-0.0035533160000000004,-0.0017079286000000003,-0.0004621868000000001,-9.763739999999997e-05,4.499,0,0
-0.004911696,-0.0024673440000000002,-0.0015034284000000004,5.740240000000002e-05,-0.0006232454000000001,4.5,0,0
-0.0030026280000000002,-0.0011720761999999998,-0.0009482320000000001,-3.9849000000000004e-05,-0.0008242682,4.501,0,0
-0.0017203240000000003,-0.0002294262000000001,-0.00045747879999999993,-0.0004957557999999999,-0.0008023222,4.502,0,0
-0.000640296,0.0008623538,0.0004914152,-0.0002779924,-0.0010865166,4.503,0,0
0.0017657060000000001,0.0020540458000000003,0.0013364332,6.988880000000001e-05,-0.0013123500000000003,4.504,0,0
0.003913098,0.0027900998,0.0014958836000000001,0.0004039116,-0.0009887504000000002,4.505,0,0
0.004601494,0.003265154,0.0015642872000000002,0.00120066,-0.0005266466,4.506,0,0
0.005320366000000001,0.003859686,0.001335829,0.0017107368,-0.0001019541999999999,4.507,0,0
0.00568377,0.003756666,0.0006805238,0.0017322152000000001,0.0006054518,4.508,0,0
0.003987046000000001,0.0027769748,0.000345842,0.0013785240000000001,0.0013651798,4.509,0,0
0.0017821260000000002,0.0016646748,9.928199999999977e-06,0.0007981114000000001,0.0016978762000000001,4.51,0,0
0.00033971399999999997,0.0007028628000000001,-0.00044781780000000004,7.094219999999993e-05,0.0017148548,4.511,0,0
-0.0018023660000000001,-0.0007633612000000001,-0.0007743308000000001,-0.0006741778,0.0015356590200000003,4.512,0,0
-0.0038386,-0.0021205952000000004,-0.0014345976000000001,-0.00045929580000000003,0.0011574492600000003,4.513,0,0
-0.0041549840000000005,-0.002027007,-0.0023079858,0.0002433062000000001,0.0005862672600000001,4.514,0,0
-0.004172918,-0.0018534380000000002,-0.0027100840000000006,8.305280000000007e-05,6.851806000000001e-05,4.515,0,0
-0.0046538840000000005,-0.002180346,-0.002691418,-0.00027450599999999994,0.00011243985999999999,4.516,0,0
-0.0036906618000000003,-0.0015096362,-0.002432181,-0.000313526,0.00016788704,4.517,0,0
-0.0015360158000000002,-0.0006257634000000001,-0.0016439098,-0.000870608,-0.00014834920000000005,4.518,0,0
-0.00017650980000000031,-0.0008538464,-0.0006563224,-0.0013694596000000002,-0.00031526960000000006,4.519,0,0
0.0011949422,-0.00044065940000000007,8.060159999999998e-05,-0.0012899615999999998,-0.0006357484000000001,4.52,0,0
0.0034810662,0.0006387666,0.0009926136,-0.0011320575999999999,-0.0013457166,4.521,0,0
0.0049784140000000005,0.0005933267999999999,0.0018236086000000002,-0.0009494992,-0.0015172266000000002,4.522,0,0
0.005075052,0.000741642,0.0023489474,-0.000826189,-0.0014354586000000001,4.523,0,0
0.005365872,0.0014837039999999998,0.0028309040000000004,-0.0009284817999999999,-0.0018540402,4.524,0,0
0.0049899620000000006,0.0011168432,0.0026980842,-0.0009530077999999999,-0.0015269807999999999,4.525,0,0
0.002907648,0.00026030520000000013,0.0020908766,-0.0006381778,-0.0007469148,4.526,0,0
0.0009540099999999999,1.8172000000001628e-06,0.0016426606000000002,-0.0003440966,-0.0008587846,4.527,0,0
-0.0006104719999999999,-0.0007321188,0.0009863504000000001,-0.0003048324,-0.0004841922,4.528,0,0
-0.0029406579999999996,-0.0020766188,0.00019845940000000003,-6.98786e-05,0.0005844778000000001,4.529,0,0
-0.004601236,-0.0024933660000000003,-0.0001313258,0.0004223854000000001,0.0008364388000000001,4.53,0,0
-0.004524956,-0.00207068252,-0.00039967060000000007,0.0005490954000000001,0.0006651864,4.531,0,0
-0.00468364,-0.0022304705200000005,-0.0010802706000000001,0.00043025920000000007,0.0006159824,4.532,0,0
-0.004755772,-0.00214505452,-0.0014242384000000001,0.0007324068000000002,-0.00011669399999999998,4.533,0,0
-0.003107036,-0.0010597157200000003,-0.0008557953999999999,0.0010566974,-0.0013738140000000001,4.534,0,0
-0.001300406,-0.00040918972000000007,-0.00026076439999999995,0.000884869,-0.0016063278000000001,4.535,0,0
-0.0004200286000000001,0.00016429280000000007,0.00011553400000000006,0.0009065572000000001,-0.0013168554,4.536,0,0
0.0011566474000000002,0.0017748348000000001,0.00077895,0.0009696726,-0.0012297374,4.537,0,0
0.0035006934,0.0033544708000000003,0.0014293320000000002,0.0005362324,-0.0006942742000000001,4.538,0,0
0.004646511400000001,0.004130858,0.001250166,0.000330238,-0.00023833620000000003,4.539,0,0
0.004685797400000001,0.004864404,0.0006622376,0.0004941424,-0.00044466680000000003,4.54,0,0
0.004835686000000001,0.004923408,0.0004068602,0.00012161019999999996,-0.0006709272000000002,4.541,0,0
0.0037220140000000005,0.003497126,5.188920000000002e-05,-0.0004669466000000002,9.616280000000006e-05,4.542,0,0
0.0007562139999999998,0.001509748,-0.0003217822,-0.0003130964000000002,0.0009457956,4.543,0,0
-0.001739702,-0.00017811400000000005,-0.00045111780000000007,-0.0003308126000000001,0.0016240296000000001,4.544,0,0
-0.0035701300000000004,-0.001789488,-0.0004427294,-0.0008240166000000001,0.0025097856000000003,4.545,0,0
-0.0056078280000000005,-0.003356482,-0.0005780122,-0.00047866680000000004,0.0024735494000000004,4.546,0,0
-0.006400482000000001,-0.0037434620000000004,-0.0006104094,0.0003438512,0.0014073894000000001,4.547,0,0
-0.00547975,-0.0031327590000000006,-0.000786452,0.0004762978,6.924540000000025e-05,4.548,0,0
-0.004835763999999999,-0.0025634142,-0.0011244004000000001,0.0005210184,-0.0007138346,4.549,0,0
-0.0038814440000000004,-0.0017969888,-0.00081557,0.0009259534000000001,-0.0013822168,4.55,0,0
-0.0015797180000000001,-0.00045420280000000007,-0.0003741918000000002,0.0007685120000000001,-0.0018542661999999999,4.551,0,0
0.00038506200000000014,0.00045697719999999997,-1.0687400000000083e-05,0.00033723320000000006,-0.0017250502,4.552,0,0
0.0019238420000000003,0.0009353502,0.00031425101999999996,0.00045691860000000005,-0.0016711602,4.553,0,0
0.0039162879999999995,0.0017682134,0.0007855850200000001,0.00041592660000000004,-0.0019866102,4.554,0,0
0.005694889999999999,0.0022111080000000003,0.00133243062,4.2231599999999984e-05,-0.002226912,4.555,0,0
0.0062205640000000005,0.0021569460000000003,0.00116582522,-0.00019260679999999995,-0.0013615440000000001,4.556,0,0
0.006514267999999999,0.001869602,0.00100232296,-0.000408788,-0.00021173799999999994,4.557,0,0
0.006423266,0.0009657300000000003,0.0010437325400000001,-0.000739303,0.0007196760000000001,4.558,0,0
0.004449369999999999,-0.0007088919999999999,0.0002008285399999999,-0.0011054972,0.001817922,4.559,0,0
0.002063914,-0.002332504,-0.0008168514600000001,-0.0010895472,0.0022410288,4.56,0,0
-2.8552000000000156e-05,-0.0035516360000000004,-0.0009883078600000002,-0.0008854436000000001,0.0017882404,4.561,0,0
-0.0028879360000000002,-0.004640066,-0.0012938098000000002,-0.00055345478,0.0013643724000000001,4.562,0,0
-0.0055989920000000006,-0.0048168659999999995,-0.0016641438000000001,7.102222000000005e-05,0.0012716304,4.563,0,0
-0.00656812,-0.0036949063999999997,-0.0013725858,0.0009771224200000002,0.0007176784,4.564,0,0
-0.006704276,-0.0022369124,-0.0013006518,0.00137504502,0.00030054760000000006,4.565,0,0
-0.006649116,-0.0009387404000000001,-0.00132529,0.0015196866200000003,0.0003307904000000001,4.566,0,0
-0.005372844000000001,0.0010386876,-0.0008733664,0.0020417858000000002,-0.00018672940000000004,4.567,0,0
-0.0033083239999999996,0.0030396056,-0.0003657294,0.0012656138000000001,-0.000741049,4.568,0,0
-0.001348124,0.0039014260000000004,6.786020000000005e-05,4.070380000000006e-05,-0.0005969148,4.569,0,0
0.0006525239999999998,0.004371740000000001,0.0006365682000000001,-0.0003735788,-0.0003154528,4.57,0,0
0.003685102,0.004787488,0.0009729362,-0.001006328,-0.0004497574,4.571,0,0
0.006627186,0.004492236,0.0011226066000000002,-0.001981048,-0.00038711339999999994,4.572,0,0
0.007979448,0.0033891294,0.0014605436000000001,-0.00228627,-0.0002220112,4.573,0,0
0.009040502,0.0023803376,0.0016706980000000002,-0.002317262,-0.0004354394,4.574,0,0
0.009060174,0.0011009336,0.0016019080000000002,-0.002747916,-0.00031416559999999997,4.575,0,0
0.006601282,-0.0006636763999999999,0.0013021196000000002,-0.002824826,0.00011296059999999999,4.576,0,0
0.003283776,-0.0018190504,0.0007864176000000003,-0.002875916,0.0001666184,4.577,0,0
0.0002594699999999999,-0.0024029998,8.142580000000004e-05,-0.002906744,1.157979999999998e-05,4.578,0,0
-0.0033125000000000003,-0.002932954,-0.0006015342000000001,-0.0023069606,0.00039682060000000003,4.579,0,0
-0.006172428000000001,-0.003057128,-0.0010565582,-0.0009723906,0.0004296736,4.58,0,0
-0.006966372,-0.0022572064,-0.0011034430000000002,0.0007522014000000002,-0.0004571064,4.581,0,0
-0.007522786,-0.0016170906000000003,-0.0012997470000000002,0.0025858174000000004,-0.000534445,4.582,0,0
-0.007868864,-0.0012145818000000002,-0.0017771712000000002,0.0047334574,-6.07899999999998e-06,4.583,0,0
-0.006500318,-0.00024011380000000008,-0.0018536092,0.006281488,3.912760000000001e-05,4.584,0,0
-0.0047418664,0.0006803522,-0.0018647952,0.006477368000000001,0.00047411480000000004,4.585,0,0
-0.0042248844,0.0005103525999999999,-0.0018293154000000001,0.006225668000000001,0.0019539588000000003,4.586,0,0
-0.0029725848000000006,6.30687999999999e-05,-0.0012290452000000003,0.005928356,0.0030824714,4.587,0,0
-0.0006236528,0.0002082589999999999,-0.0004236626000000001,0.00491699,0.0038095174000000002,4.588,0,0
0.0003537292,-0.000541417,0.0004035874000000001,0.0034760570000000003,0.0047437320000000005,4.589,0,0
0.0011155476000000001,-0.001289437,0.0015502474,0.002201133,0.004528842,4.59,0,0
0.0026204656,-0.0008537815999999998,0.0023541508,0.00031034500000000007,0.0033805344000000003,4.591,0,0
0.0026874624,-0.0008720256,0.0022668364,-0.0024563270000000003,0.0015565563999999999,4.592,0,0
0.0017769880000000002,-0.0016030506000000002,0.0015971898,-0.005158853,-0.0015336256000000003,4.593,0,0
0.0018138660000000003,-0.0015706586000000002,0.0005857317999999997,-0.0071772960000000005,-0.004707477600000001,4.594,0,0
0.001640612,-0.0012016128000000002,-0.0003886926000000001,-0.008474518,-0.0067371696000000005,4.595,0,0
0.0006908174000000001,-0.0008891742000000002,-0.001139477,-0.008786504,-0.008251844000000001,4.596,0,0
0.0006236138000000001,0.00025187379999999995,-0.0015717088,-0.007814564000000001,-0.0086919,4.597,0,0
0.0014339942000000001,0.0012376938,-0.0010651728000000001,-0.006156926,-0.007123934,4.598,0,0
0.0015457702000000002,0.0014688356,-0.0005218918000000001,-0.004422385,-0.004880613800000001,4.599,0,0
0.0014575622,0.0015213337999999998,-0.0004831118,-0.002217601,-0.0030231218000000004,4.6,0,0
0.0023903908000000003,0.0014726758,-0.00023095939999999998,6.121299999999996e-05,-0.0008924438,4.601,0,0
0.003100172,0.0011020997999999999,-0.00017628540000000004,0.0015998270000000003,0.0021872022,4.602,0,0
0.00281611,0.0010368738,-5.0186200000000024e-05,0.0028189270000000006,0.0050480362,4.603,0,0
0.00296869,0.0019468820000000003,0.0006475028,0.0033805180000000008,0.007171676,4.604,0,0
0.0035392880000000002,0.002785614,0.0011289712,0.0028662149200000004,0.009565542,4.605,0,0
0.0032670920000000005,0.0027664720000000003,0.0013292452,0.0021111033200000005,0.011692985999999999,4.606,0,0
0.0033249560000000004,0.002647688,0.0021069132000000003,0.0014115211200000002,0.011044929999999998,4.607,0,0
0.0037434360000000006,0.0026662179999999997,0.0021951376,0.00026632711999999997,0.008618530000000001,4.608,0,0
0.0028767878000000003,0.0015461060000000002,0.0010060995999999997,0.00030266511999999993,0.006361484,4.609,0,0
0.0018125622000000005,8.146599999999998e-05,0.00010900559999999984,0.0021313682000000003,0.0023353160000000005,4.61,0,0
0.0012180793200000002,-0.0007464100000000001,-0.0004772266000000002,0.0035929498,-0.0030633640000000003,4.611,0,0
-0.0009171526800000001,-0.002305138,-0.0015706946000000003,0.004714558000000001,-0.007132833999999999,4.612,0,0
-0.00428832468,-0.004429586,-0.0021612902000000002,0.006202040000000001,-0.009059548,4.613,0,0
-0.00629083248,-0.005554374000000001,-0.0011642802,0.006889888,-0.008286680000000001,4.614,0,0
-0.00811854688,-0.006025364000000001,-0.00018577619999999987,0.006068448,-0.004058451999999999,4.615,0,0
-0.010486386,-0.0067114259999999995,0.00010703300000000011,0.005047124,0.0020953280000000005,4.616,0,0
-0.01105937,-0.005985334,0.0008430394000000002,0.004453374,0.008445288,4.617,0,0
-0.009882334,-0.0039856884,0.0015827954000000003,0.003697434,0.014379342000000002,4.618,0,0
-0.008688188000000001,-0.0022211304,0.0010649876000000003,0.0019503600000000004,0.018507120000000002,4.619,0,0
-0.007553148000000001,-8.824039999999998e-05,0.00015486159999999994,-0.0005806639999999999,0.01940112,4.62,0,0
-0.00576762,0.0027109876,0.00026832259999999997,-0.0040409040000000005,0.016128829600000002,4.621,0,0
-0.004113334000000001,0.0048526456,0.00019113240000000003,-0.009703494,0.008131209600000001,4.622,0,0
-0.0019683820000000003,0.0061968859999999995,-0.0004216996000000001,-0.016330980000000002,-0.004935670400000001,4.623,0,0
0.001650192,0.0075817919999999995,-0.0005749738000000001,-0.021804154,-0.022544290400000003,4.624,0,0
0.006023344,0.007911221999999999,-0.0005485798,-0.022449820000000002,-0.0385628104,4.625,0,0
0.010944216,0.007492642,-0.0002923318,-0.014456740000000003,-0.04462698,4.626,0,0
0.016425248000000003,0.007480998,0.00047568,0.0006752000000000008,-0.040274797800000005,4.627,0,0
0.019907460000000002,0.006778068,0.001091146,0.018661820000000003,-0.0288578178,4.628,0,0
0.019067158,0.004492332,0.0012264246,0.03604082,-0.0132629778,4.629,0,0
0.015601781400000002,0.0019341339999999997,0.0015593006000000002,0.04713462,0.0014153221999999993,4.63,0,0
0.0101622914,-0.0005273420000000003,0.0008563926000000001,0.04621218,0.0098753822,4.631,0,0
0.0028024114000000004,-0.00341392,-0.0010106034,0.034359504,0.012512720000000001,4.632,0,0
-0.0036350886,-0.005413894,-0.00044283340000000025,0.015906844000000003,0.01313194,4.633,0,0
-0.0067213206000000005,-0.0055762400000000005,0.0025563340000000004,-0.005385555999999999,0.01341894,4.634,0,0
-0.0075127300000000004,-0.004933596,0.003673954,-0.025690536,0.014065820000000001,4.635,0,0
-0.0065352726,-0.004048096,0.003184224,-0.041128336,0.012944134000000001,4.636,0,0
-0.0029311926,-0.0020720860000000003,0.0028042219999999994,-0.04937958,0.008027974,4.637,0,0
0.0018273074,0.00032851799999999976,0.0006520459999999999,-0.05104256,-0.00039008599999999956,4.638,0,0
0.0064632414,0.002783042,-0.0020204339999999998,-0.046738100000000005,-0.009222906000000001,4.639,0,0
0.010997107400000001,0.005746106000000001,-0.002664088,-0.03724871600000001,-0.014599026000000003,4.64,0,0
0.014634620000000001,0.008274898000000001,-0.0008576819999999996,-0.025384608,-0.015528080000000001,4.641,0,0
0.015188478,0.008697036000000002,0.0022162379999999997,-0.013769319999999998,-0.011305034000000002,4.642,0,0
0.012017186000000001,0.006928198000000001,0.004122178000000001,-0.0027114399999999994,-0.0029817940000000016,4.643,0,0
0.006546046,0.0035852780000000003,0.0037843638000000005,0.006495780000000001,0.005778606,4.644,0,0
-0.000411214,-0.0015092620000000008,0.0019458038000000003,0.011716296000000001,0.011752306,4.645,0,0
-0.008383834,-0.0067596620000000005,-0.0018429082000000002,0.014364388,0.014656906,4.646,0,0
-0.015096171999999998,-0.011047298000000002,-0.0061524162,0.017084540000000002,0.015088120000000002,4.647,0,0
-0.018766199999999997,-0.013836984000000002,-0.0080478942,0.0210629,0.014586519999999999,4.648,0,0
-0.021171099999999998,-0.014771800000000002,-0.008728798,0.02652836,0.014165260000000002,4.649,0,0
-0.0217423,-0.013939152000000002,-0.008178032,0.03338378,0.01299188,4.65,0,0
-0.018887398000000003,-0.011805872000000002,-0.005617787200000001,0.039759680000000006,0.01187398,4.651,0,0
-0.015474184,-0.009492126,-0.0026705192,0.04339454,0.011416679999999998,4.652,0,0
-0.013503984000000002,-0.006931884000000001,-0.0008454712000000002,0.042738500000000006,0.0100984,4.653,0,0
-0.011568944000000001,-0.003933590000000001,0.0006380488000000001,0.0365045,0.0074816966000000006,4.654,0,0
-0.009904683999999999,-0.000655842,0.0022154028000000003,0.025577262,0.006326314600000001,4.655,0,0
-0.010093298,0.002159368,0.0031393780000000004,0.012038962,0.007589594600000001,4.656,0,0
-0.010424162000000002,0.005671822,0.003284098,-0.001676818000000001,0.0105299546,4.657,0,0
-0.009935798000000001,0.00910264,0.0013370160000000001,-0.014481658000000001,0.0142480546,4.658,0,0
-0.009571698,0.010193746000000002,-0.0016063460000000005,-0.024730418000000004,0.016040808,4.659,0,0
-0.008355056,0.010422664000000002,-0.003539032,-0.031062600000000003,0.013033060000000003,4.66,0,0
-0.004844131999999999,0.0100921,-0.004565766000000001,-0.0352284,0.0039557800000000025,4.661,0,0
0.0015627180000000003,0.008618094,-0.004463660000000001,-0.0378432,-0.00992524,4.662,0,0
0.011205954,0.007373618,-0.0028110100000000005,-0.03780706,-0.02565692,4.663,0,0
0.022174674,0.006758162000000001,0.000753014,-0.035516900000000004,-0.03852313,4.664,0,0
0.030120932,0.004801428,0.0041935340000000005,-0.0321923,-0.04479446,4.665,0,0
0.033232160000000004,0.002076388000000001,0.004827188,-0.026103466000000002,-0.04360216,4.666,0,0
0.03216314,0.0002442540000000004,0.0041290244,-0.017142994,-0.03641794,4.667,0,0
0.026644059999999997,-0.0016067899999999999,0.0037975862,-0.008341194000000001,-0.025892342,4.668,0,0
0.017888851600000002,-0.00337411,0.0019545922,-0.0007479139999999997,-0.014680368,4.669,0,0
0.0104387056,-0.0036376800000000003,-0.0007141878000000001,0.005422046000000001,-0.006737555600000001,4.67,0,0
0.0064812936,-0.0025146860000000004,-0.0010142082,0.009186104,-0.0029521235999999994,4.671,0,0
0.0037873596,-0.00147554,-0.0002624766000000002,0.010078742000000002,-0.0012782076000000002,4.672,0,0
0.0020584496,-0.000760496,0.0012893636,0.010308942000000001,1.0372399999999948e-05,4.673,0,0
0.003323594,0.0003550980000000001,0.0049376736,0.011443362,0.0024803384000000005,4.674,0,0
0.0052011620000000005,0.0013200220000000001,0.0083742336,0.013071602000000002,0.0063376660000000005,4.675,0,0
0.0043862356,0.0014928282000000004,0.010085026,0.015492210000000003,0.010892814,4.676,0,0
0.0023532256000000007,0.0014036162000000002,0.010447666000000001,0.01798668,0.014789878000000003,4.677,0,0
-0.0005893443999999998,0.0009968956,0.008862333200000003,0.018439320000000002,0.017469940000000003,4.678,0,0
-0.0060780604,-0.0005086784000000001,0.005079237200000001,0.016317486,0.018021080000000002,4.679,0,0
-0.0126065424,-0.0028397184,0.0012133692000000002,0.013287786000000003,0.01599946,4.68,0,0
-0.018103764,-0.0054798646,-0.0009183268000000002,0.010351942000000001,0.012971952000000002,4.681,0,0
-0.023000100000000002,-0.0086301986,-0.0020049802,0.007192418000000001,0.010184742,4.682,0,0
-0.026113640000000004,-0.011581442,-0.0023803014,0.004799598,0.007255558,4.683,0,0
-0.024880320000000004,-0.012524326,-0.0021692294,0.0033577964000000003,0.003751298,4.684,0,0
-0.020408920000000004,-0.011279008,-0.0039023614,0.0013722184000000003,0.0017925568000000003,4.685,0,0
-0.014249074,-0.0087060924,-0.007240997400000001,-0.0010747076,0.0020713488,4.686,0,0
-0.006463694,-0.004636650400000001,-0.010034726,-0.0036598556000000003,0.0030675928000000003,4.687,0,0
0.0014269860000000003,0.0005978095999999997,-0.013012544000000001,-0.005357245600000001,0.0047843568,4.688,0,0
0.0071726459999999995,0.0055997496,-0.0170796,-0.004937598,0.0075595768,4.689,0,0
0.010834406000000001,0.0097513776,-0.017395360000000002,-0.00193712,0.009578442,4.69,0,0
0.01361982,0.013353782,-0.011889400000000001,0.003488190000000001,0.009986182000000001,4.691,0,0
0.014102380000000001,0.0150802,-0.008029964,0.010269222000000001,0.010468748,4.692,0,0
0.011760201999999999,0.014417304,-0.0067779039999999995,0.015960632000000002,0.011052248,4.693,0,0
0.008782944,0.012321656000000002,-0.0039253180000000006,0.017309322000000002,0.010701928000000001,4.694,0,0
0.004996688000000001,0.00815035,0.0003257420000000004,0.013387836,0.009310426,4.695,0,0
-0.001093752,0.0020575499999999996,0.0034740820000000007,0.004537736000000001,0.006902816000000001,4.696,0,0
-0.006590212000000001,-0.0035668900000000005,0.007012066000000001,-0.007177864000000001,0.0020764760000000007,4.697,0,0
-0.009105274,-0.008126014,0.011186266000000002,-0.019194724,-0.005446704,4.698,0,0
-0.011321176000000002,-0.012609206000000001,0.010496840000000002,-0.027656526,-0.012315104,4.699,0,0
-0.012771300000000001,-0.013803082000000001,0.005763280000000001,-0.029101119999999998,-0.017038146,4.7,0,0
-0.010925400000000002,-0.010466196,0.0006251229999999992,-0.025205864,-0.020367140000000002,4.701,0,0
-0.007251446000000001,-0.005458876000000001,-0.0027928010000000006,-0.01725835,-0.02056492,4.702,0,0
-0.003198712000000001,0.0013792639999999994,-0.003052447,-0.00581753,-0.017347576,4.703,0,0
0.0017316680000000002,0.009879224,-1.4247000000000218e-05,0.00657761,-0.014386764,4.704,0,0
0.007140688000000001,0.017109246,0.0037137230000000004,0.01666163,-0.012287824000000001,4.705,0,0
0.010879388000000002,0.021133259999999997,0.004952014,0.023894214,-0.008823834000000001,4.706,0,0
0.012848954000000001,0.023013220000000004,0.008757738000000001,0.02900814,-0.004223754000000001,4.707,0,0
0.013178696000000002,0.01819973,0.014351444000000001,0.029947960000000003,0.001701481999999999,4.708,0,0
0.010333366000000002,0.0032594500000000023,0.016569484,0.025767482,0.009509130000000001,4.709,0,0
0.005878110000000001,-0.01085717,0.017884994,0.016720562000000005,0.017214010000000002,4.71,0,0
0.00183967,-0.017933849999999998,0.016915845000000002,0.002649262000000001,0.021770100000000004,4.711,0,0
-0.00340257,-0.023256251999999998,0.008257625000000001,-0.015007018,0.021668186000000002,4.712,0,0
-0.010304926,-0.02340341,-0.004071735000000001,-0.03198453800000001,0.016708512000000002,4.713,0,0
-0.015428095999999999,-0.013534704,-0.010152935000000002,-0.044169560000000004,0.007573732,4.714,0,0
-0.01759654,-0.0048793556,-0.011794574799999999,-0.04957132000000001,-0.0031821279999999993,4.715,0,0
-0.017881974000000002,-0.003520803600000001,-0.0111971758,-0.04606788000000001,-0.013510048,4.716,0,0
-0.014284046,-0.0030211996,-0.0057822318,-0.034089208,-0.020682514000000003,4.717,0,0
-0.006006826,-0.0021275276,0.0033790281999999997,-0.018150668000000002,-0.021561438000000002,4.718,0,0
0.0027520740000000006,-0.0025028976000000002,0.012586728200000001,-0.002316628000000001,-0.016559978000000003,4.719,0,0
0.009342434,-0.00273887,0.016117728,0.011869112000000001,-0.008610598,4.72,0,0
0.015099648000000002,-0.0008823919999999999,0.014894584,0.022860752,0.00026238200000000024,4.721,0,0
0.018736960000000004,0.001437672,0.01109392,0.02884954,0.007963442000000001,4.722,0,0
0.018664620000000003,0.0037049960000000003,0.0029347800000000005,0.02985462,0.010533484000000001,4.723,0,0
0.01796458,0.0071766600000000005,-0.00818502,0.026501366,0.007953602,4.724,0,0
0.016169718,0.010173004000000001,-0.01605266,0.019525004,0.004778797999999999,4.725,0,0
0.010701148,0.011165434000000002,-0.016967744,0.011203776000000002,0.003952352,4.726,0,0
0.004366432,0.011111366000000001,-0.013447586,0.004366964000000001,0.005721232000000001,4.727,0,0
-0.0009982880000000002,0.009623416,-0.009086218,0.0007809020000000001,0.010586508,4.728,0,0
-0.005961728,0.005770760000000001,-0.0049378040000000005,0.000591336,0.017339610000000002,4.729,0,0
-0.007956852000000002,0.001515466,-0.0010453679999999999,0.00264597,0.021771934,4.73,0,0
-0.005013058000000001,-0.0024166579999999995,-0.003535044,0.003394176,0.018542281999999997,4.731,0,0
-0.00039878199999999987,-0.006130216,-0.013883202,2.778799999999951e-05,0.004337961999999997,4.732,0,0
0.0038470979999999998,-0.008282590000000001,-0.02130625,-0.005569030000000001,-0.016307537999999996,4.733,0,0
0.008224232,-0.008065514000000001,-0.021825732,-0.011408390000000001,-0.036034618,4.734,0,0
0.009418524,-0.006709004000000001,-0.019136568,-0.015908362000000002,-0.049280198000000004,4.735,0,0
0.0050199599999999995,-0.005159164000000001,-0.010838188000000002,-0.016476820000000003,-0.05102862,4.736,0,0
-0.0015313000000000006,-0.0028955112,0.005864032000000001,-0.012728968,-0.040349581999999995,4.737,0,0
-0.007804800000000001,-0.0004703232000000001,0.022072012000000002,-0.007071512000000002,-0.022289682,4.738,0,0
-0.014594894,0.0014853428,0.027076180000000005,-0.001230656,-0.002948761999999997,4.739,0,0
-0.0200005,0.0035995888,0.023981934000000003,0.003908844,0.012315878000000002,4.74,0,0
-0.02127784,0.005934892800000001,0.018443948000000005,0.007085284000000001,0.020004138000000005,4.741,0,0
-0.0199443,0.006661286000000001,0.010599541200000001,0.008419078,0.022828700000000004,4.742,0,0
-0.016484602,0.0059037034999999995,0.0033635272000000003,0.008249902,0.023144680000000004,4.743,0,0
-0.009399202,0.00480034226,0.0014431492000000004,0.0072339119999999995,0.02154808,4.744,0,0
-0.00012782199999999966,0.0023384762599999998,0.0034959432,0.005494934,0.02005464,4.745,0,0
0.008348698,0.00019834345999999997,0.0059604312,0.0035149376000000003,0.01919028,4.746,0,0
0.014376838000000001,0.00096131746,0.007650198,0.0027232336000000005,0.017440174,4.747,0,0
0.016886104000000002,0.00290886196,0.0066783960000000005,0.0026708056,0.013536829000000002,4.748,0,0
0.013967136000000002,0.0038588092,0.004629068,0.0019066754000000002,0.007413289000000001,4.749,0,0
0.007266996000000001,0.0042166912,0.0028782900000000004,0.0006103154000000001,-0.0012367309999999996,4.75,0,0
0.0016873419999999999,0.003576301999999999,-0.001460252,-0.0004910982,-0.009819271000000001,4.751,0,0
-0.001151302,9.315600000000027e-05,-0.013592252,-0.0026929322000000004,-0.015610525,4.752,0,0
-0.0017249419999999997,-0.005820878,-0.031283796,-0.0048771242,-0.01840288,4.753,0,0
0.001568546,-0.01099405,-0.04597691,-0.005134436000000001,-0.017493826,4.754,0,0
0.009213666,-0.012463736000000001,-0.055360000000000006,-0.004518664,-0.012803972,4.755,0,0
0.01700898,-0.011270746,-0.056062680000000004,-0.0033782902000000004,-0.006648893999999999,4.756,0,0
0.021193664,-0.008410672000000003,-0.044392116,-0.0017100282000000002,-0.0019118700000000004,4.757,0,0
0.02226182,-0.003086753999999999,-0.019971656000000004,-0.0006776102000000002,0.001256954,4.758,0,0
0.0197336714,0.0016449300000000002,0.009923043999999999,-0.00014443540000000008,0.003587526,4.759,0,0
0.0122317914,0.004055052,0.033125304,0.0007898806,0.004899354000000001,4.76,0,0
0.002386151400000001,0.0050726880000000005,0.046978344000000005,0.0014056948000000001,0.005749012,4.761,0,0
-0.0065483486,0.003820186,0.05447466000000001,0.0024241428,0.007619128000000001,4.762,0,0
-0.0141726686,0.0008153699999999999,0.05131904000000001,0.0053185048,0.009948284000000002,4.763,0,0
-0.01967628,-0.0004443060000000002,0.03710136600000001,0.008742866,0.011197138,4.764,0,0
-0.022716520000000004,-0.0005963180000000001,0.024085317999999998,0.010847456,0.011658056000000002,4.765,0,0
-0.02459352,-0.0020020474,0.016576758,0.011449834,0.011589010000000002,4.766,0,0
-0.024186740000000005,-0.0010836634000000005,0.011160118,0.010209576,0.009815218000000002,4.767,0,0
-0.020737498,0.0029846746,0.006388462,0.006373066,0.00563015,4.768,0,0
-0.015743778,0.0071672865999999995,0.005214782,0.001146326,0.0004064099999999994,4.769,0,0
-0.009571636,0.0104855646,0.005179966,-0.0035828120000000003,-0.004877050000000001,4.77,0,0
-0.0024179359999999994,0.014269269999999999,-0.0030079340000000003,-0.0071420680000000005,-0.00934008,4.771,0,0
0.0035260840000000005,0.013159036,-0.014769054,-0.009193488,-0.010748477999999999,4.772,0,0
0.006899512,0.0018659559999999985,-0.026478138,-0.009703100000000001,-0.008960039999999999,4.773,0,0
0.009175488,-0.008938504,-0.044246544,-0.009635481999999999,-0.006562108,4.774,0,0
0.010793046,-0.013445312000000001,-0.061348,-0.009329262,-0.0033312020000000006,4.775,0,0
0.010875486000000002,-0.0174064698,-0.06334556000000001,-0.008203112,0.0005444360000000001,4.776,0,0
0.010641946000000001,-0.0175678578,-0.04811818,-0.0069195839999999995,0.001550296,4.777,0,0
0.010577416000000001,-0.0090981258,-0.022614259999999997,-0.006018814,0.0008030999999999998,4.778,0,0
0.008158986,-0.0015980352000000003,0.0034527400000000028,-0.005078076000000001,0.0007928199999999999,4.779,0,0
0.002949486,-0.0006053052,0.022761680000000003,-0.0033658068,-0.00032547199999999994,4.78,0,0
-0.0024608340000000003,-0.0008644234,0.03696414,-0.0011031387999999999,-0.002443976,4.781,0,0
-0.007415414,-0.0015531114,0.04507976,0.0008899732000000001,-0.0027419488,4.782,0,0
-0.011679594,-0.0022609874,0.04577596,0.0025423952000000003,-0.0023737096,4.783,0,0
-0.012766831999999999,-0.001996982,0.04595642,0.0036840392,-0.0034754736,4.784,0,0
-0.010709804000000002,-0.001896536,0.047908179999999995,0.0038265680000000007,-0.0047410876,4.785,0,0
-0.007534840000000001,-0.0017947720000000003,0.04517428,0.0030453639999999996,-0.0049436776,4.786,0,0
-0.003607880000000001,0.0001228599999999998,0.03381676,0.00255346,-0.0046747488,4.787,0,0
0.0011154039999999997,0.00307434,0.02166538,0.002812854,-0.00345301,4.788,0,0
0.0056012760000000005,0.004990484,0.015002548000000003,0.003481024,-0.0005168539999999995,4.789,0,0
0.008825008,0.007321176,0.008651420000000002,0.004165224,0.0030104460000000004,4.79,0,0
0.011685924,0.010902028,-0.001576179999999999,0.00455718,0.004940886,4.791,0,0
0.013103344000000001,0.012978576,-0.01301518,0.00432642,0.005757292000000001,4.792,0,0
0.012137684000000001,0.012449754,-0.02137392,0.0035538320000000003,0.0065626980000000005,4.793,0,0
0.009275726,0.010384438,-0.026977048000000003,0.002557727,0.006487682,4.794,0,0
0.0055443160000000005,0.0071750519999999995,-0.028863840000000005,0.0017393253999999998,0.006236106,4.795,0,0
0.0013336879999999998,0.0025978059999999994,-0.024883480000000003,0.0016499794,0.006411882,4.796,0,0
-0.0019769419999999998,-0.0019901320000000004,-0.017896101999999997,0.0019305174000000002,0.00579943,4.797,0,0
-0.00248202,-0.0034319648000000003,-0.012750032,0.0023186514000000003,0.002620138,4.798,0,0
-0.0027949259999999997,-0.0030007888000000006,-0.010503772000000001,0.0027543764000000004,-0.0008515099999999998,4.799,0,0
-0.00228284,-0.0027214584000000005,-0.008929472,0.0032526000000000005,-0.005441013999999999,4.8,0,0
-0.002002532,-0.0020907084000000003,-0.00575503,0.0030132700000000006,-0.008793174,4.801,0,0
-0.0006500979999999999,-0.0005970024,-0.0010963879999999998,0.0017112560000000004,-0.005975674,4.802,0,0
-0.0018127499999999997,-0.0016319916,0.002310142,4.858000000000379e-06,-0.0016552199999999985,4.803,0,0
-0.011907006,-0.006528391600000001,0.00513098,-0.002151636,0.0025043000000000005,4.804,0,0
-0.023404442,-0.011353076,0.006924096000000001,-0.003978856,0.008123620000000002,4.805,0,0
-0.031766562,-0.01616724,0.0050098320000000005,-0.004512662000000001,0.011117700000000001,4.806,0,0
-0.038419126,-0.019375948000000004,-0.0016120879999999996,-0.004389382,0.007342026000000001,4.807,0,0
-0.039070138000000004,-0.017111256000000002,-0.010225308,-0.004277648,0.0016979859999999999,4.808,0,0
-0.026807050000000002,-0.008874936000000002,-0.016050346,-0.0036822600000000006,-0.004310794000000001,4.809,0,0
-0.007830390000000003,0.001981724,-0.018225382,-0.003645576,-0.010962174000000002,4.81,0,0
0.01172353,0.013432724,-0.01999016,-0.004543638,-0.015257534000000001,4.811,0,0
0.029511830000000003,0.021908984000000003,-0.022061160000000003,-0.0037317720000000004,-0.016694524000000002,4.812,0,0
0.043154788,0.02416348,-0.022488240000000003,-0.0006540979999999997,-0.013846372000000001,4.813,0,0
0.05225484,0.02355572,-0.02579356,0.0027775180000000005,-0.0072663319999999995,4.814,0,0
0.052186060000000006,0.02062174,-0.03205858,0.006414232000000001,0.001970208,4.815,0,0
0.04423644,0.015314522,-0.035031660000000006,0.010186026,0.012091048000000002,4.816,0,0
0.030740220000000002,0.008917672,-0.031447776000000004,0.011628426,0.021148252000000003,4.817,0,0
0.01258152,0.002172452,-0.021047816,0.010483308,0.028314940000000004,4.818,0,0
-0.006169599999999998,-0.005286668,-0.010899250000000001,0.00837131,0.031627520000000006,4.819,0,0
-0.02119724,-0.011229248,-0.0021457890000000004,0.004349191999999999,0.028360038000000004,4.82,0,0
-0.03139966,-0.014392730000000001,0.011346251,-0.0010762280000000007,0.019550638000000002,4.821,0,0
-0.03642094,-0.02049544,0.027246287,-0.005728094,0.008911577999999998,4.822,0,0
-0.03424634,-0.024748140000000002,0.039733847,-0.009825176000000001,-0.0029261820000000007,4.823,0,0
-0.026305942000000002,-0.01968755,0.049239781,-0.013238978000000002,-0.015188722000000002,4.824,0,0
-0.015996342000000004,-0.011657450000000001,0.05477578,-0.0151101,-0.025382580000000002,4.825,0,0
-0.003145482,-0.0030168699999999996,0.05197182,-0.015646820000000002,-0.033156580000000005,4.826,0,0
0.011485418,0.01167705,0.045585640000000004,-0.015072040000000002,-0.038151660000000004,4.827,0,0
0.023452418000000003,0.025394370000000003,0.04047998,-0.012966280000000002,-0.038704300000000004,4.828,0,0
