bandpass 1,bandpass 2,bandpass 3,bandpass 4,bandpass 5,time,onset,mark
-0.0011129290000000001,-0.0038024900000000004,-0.00044530800000000016,-0.0022377800000000004,0.001221183,6.501,1,1
-0.0024401690000000003,-0.005725764,0.0016676719999999996,-0.0025475360000000004,0.001143544,6.502,0,0
-0.004322653,-0.007328076,0.003001824,-0.0022178840000000003,0.001611484,6.503,0,0
-0.005904384,-0.006962192000000001,0.0037027640000000003,-0.000434288,0.001232318,6.504,0,0
-0.006582552,-0.005908262000000001,0.0036977619999999994,0.0007411400000000002,0.0009361672600000001,6.505,0,0
-0.006538934000000001,-0.004805146000000001,0.002555868,0.0017640440000000002,0.00090959126,6.506,0,0
-0.0051587166,-0.0024669439999999996,6.28540000000001e-05,0.002623488,0.00088658686,6.507,0,0
-0.0026138305999999995,4.946399999999993e-05,-0.0018865300000000002,0.0025067180000000002,0.00027600046,6.508,0,0
-0.0003496765999999999,0.0012775680000000002,-0.0022773800000000003,0.00182737088,-0.00043702154,6.509,0,0
0.0018845234,0.002699692,-0.00228376,0.0016408928799999999,-0.000530754,6.51,0,0
0.0043559954,0.004525474,-0.002100294,0.0008536888800000002,-0.00037594319999999996,6.511,0,0
0.005367370000000001,0.005091676,-0.0018769576,-0.00061097912,-0.00017711579999999993,6.512,0,0
0.0055120460000000005,0.005041982,-0.0013844520000000002,-0.0014430331200000002,5.370020000000006e-05,6.513,0,0
0.005543058,0.005291406,0.00020551199999999993,-0.001882678,0.00024428640000000005,6.514,0,0
0.004002468,0.0041328538,0.002310806,-0.002648198,0.00018217400000000006,6.515,0,0
0.001178598,0.0018829138000000002,0.003694656,-0.002744764,5.254440000000026e-06,6.516,0,0
-0.0008575039999999999,7.994980000000022e-05,0.0046560496,-0.0018321840000000002,-0.00013277176,6.517,0,0
-0.0027717519999999997,-0.0015993422000000002,0.005042546,-0.000994908,-0.00016594176000000001,6.518,0,0
-0.004877196,-0.0036723102,0.003563544,-0.00015174799999999994,-0.00021192736,6.519,0,0
-0.005675466,-0.0052662740000000005,0.0010769560000000002,0.001019868,-0.00054272376,6.52,0,0
-0.005081136,-0.0051303880000000005,-0.0007521520000000001,0.00212533,-0.00048288700000000004,6.521,0,0
-0.0045077139999999995,-0.004666818000000001,-0.001985726,0.0027987700000000003,7.679319999999993e-05,6.522,0,0
-0.00369863,-0.0040300982,-0.002709224,0.00355222,0.0003637176,6.523,0,0
-0.001369066,-0.0018003542000000002,-0.0024630186,0.004024642,0.000644001,6.524,0,0
0.0007799080000000003,0.0008129337999999998,-0.0014718386,0.003574016,0.0010944082000000001,6.525,0,0
0.0021205200000000003,0.0026152518,-7.856059999999986e-05,0.0031442940000000006,0.0007697292000000001,6.526,0,0
0.004200152,0.0043635478,0.0010557054000000002,0.0026309754000000004,-0.0001976407999999999,6.527,0,0
0.006234488,0.00551741,0.0017893614000000003,0.0013637774,-0.0010479088,6.528,0,0
0.0065006560000000005,0.005110072,0.002262338,-5.703460000000001e-05,-0.0016775228,6.529,0,0
0.006693086000000001,0.004389696,0.0020994684000000003,-0.0011979946,-0.0017413488,6.53,0,0
0.007108948000000001,0.0032863294000000003,0.0014004188,-0.0023737146,-0.0012280628,6.531,0,0
0.0053159434,0.0009027574000000003,0.0006516916000000002,-0.0032507559999999996,-0.0007121832,6.532,0,0
0.0026439154000000007,-0.0014032366000000002,0.0001873842,-0.0034752040000000004,-0.0006839232,6.533,0,0
0.0006028254000000004,-0.0027775146000000002,-0.0003910856,-0.0033833640000000007,-0.0007753131999999999,6.534,0,0
-0.0021850346,-0.0043496806,-0.001055682,-0.0028893220000000006,-0.0004263983999999999,6.535,0,0
-0.0053101806000000005,-0.0058912140000000005,-0.0016041884,-0.0019851896000000003,-5.39564e-05,6.536,0,0
-0.006380234,-0.005632110000000001,-0.0020331612,-0.0010171436,-3.0276600000000048e-05,6.537,0,0
-0.006074774000000001,-0.004302910000000001,-0.0020338338,-0.0002888156000000001,0.0005082750000000001,6.538,0,0
-0.005709732000000001,-0.0038108860000000003,-0.0021470039999999997,0.00028423779999999996,0.0015427350000000002,6.539,0,0
-0.0041226436,-0.0026315918000000002,-0.002257912,0.0007759128,0.0013490866,6.54,0,0
-0.0018157656000000002,-0.00036146180000000004,-0.0018830600000000002,0.0011664504,0.0004095346,6.541,0,0
-0.0004335716,0.0011596562,-0.0018308900000000002,0.0012503364,0.00038622459999999994,6.542,0,0
0.0007168364,0.0024799202,-0.0020284020000000003,0.0012875564,0.0003607792,6.543,0,0
0.0026022324,0.0044908182,-0.001385626,0.0015746090000000003,-0.00024738500000000003,6.544,0,0
0.004095728,0.005996014000000001,0.0002500200000000001,0.0014247087,-9.976259999999997e-05,6.545,0,0
0.004753998,0.0059344720000000005,0.0018380380000000002,0.0007716047,0.0005030914,6.546,0,0
0.00556036,0.005626688,0.0033350700000000003,-3.823329999999998e-05,0.0007718800000000001,6.547,0,0
0.00558444,0.00462643,0.0041985780000000006,-0.0011191373,0.0011322158,6.548,0,0
0.0033327420000000005,0.0020982320000000002,0.0037727458000000004,-0.0020172633,0.0013773254000000001,6.549,0,0
0.000934792,-0.00024702799999999983,0.0027431378000000004,-0.0019098076000000001,0.0012169224000000002,6.55,0,0
-0.0006847560000000002,-0.00157458,0.0007563417999999998,-0.0014988502000000002,0.0007240604,6.551,0,0
-0.003095276,-0.00330309,-0.0015253982000000004,-0.0008361725999999999,-8.563600000000048e-06,6.552,0,0
-0.0047422,-0.004840492,-0.0030091242000000007,0.0005529934,-0.0006674116000000001,6.553,0,0
-0.0044599999999999996,-0.00429342,-0.0035519860000000005,0.0016683774,-0.001130869,6.554,0,0
-0.00435385,-0.003677848,-0.0037248760000000007,0.0018662890000000001,-0.00129444,6.555,0,0
-0.004709026,-0.003534704,-0.003401298,0.001731696,-0.0007655980000000001,6.556,0,0
-0.003491625,-0.0020044040000000004,-0.0019754820000000006,0.0019056904000000002,1.6282000000000004e-05,6.557,0,0
-0.0018072849999999998,-0.000194946,-0.000636908,0.0016337184,0.00027273200000000003,6.558,0,0
-0.000686365,0.000605908,0.000252346,0.0011757224,0.00030581600000000004,6.559,0,0
0.0010657890000000001,0.0020491600000000004,0.001366852,0.0012129164,0.0003147630000000001,6.56,0,0
0.0032522890000000002,0.0036980780000000005,0.0024506680000000005,0.0010860222000000001,9.094260000000001e-05,6.561,0,0
0.004543972,0.0037717460000000003,0.002689388,0.0002905881999999999,-0.00012039180000000002,6.562,0,0
0.004599558,0.0031494676000000006,0.0027472860000000003,-0.0005898338000000001,0.00013322419999999994,6.563,0,0
0.00437473,0.0027019560000000006,0.002952206,-0.0012141438,0.0008407942,6.564,0,0
0.003134228,0.001240034,0.001978063,-0.0023009878000000003,0.0014453691999999998,6.565,0,0
0.0006942540000000003,-0.001286824,0.000536311,-0.00310354,0.0014851596,6.566,0,0
-0.001387054,-0.002571514,-8.013880000000016e-05,-0.0030408120000000004,0.0011779272000000001,6.567,0,0
-0.003058206,-0.0030898676000000003,-0.0006607884000000002,-0.0028122800000000003,0.0006268412,6.568,0,0
-0.004828698,-0.004486236,-0.0017183164000000003,-0.0024549212000000006,-0.00023987680000000014,6.569,0,0
-0.005677972,-0.005392736,-0.0019535794,-0.0012627691999999998,-0.0009096122000000001,6.57,0,0
-0.00533621,-0.004433380000000001,-0.0015562714,5.914880000000008e-05,-0.0013402342000000003,6.571,0,0
-0.005262422000000001,-0.0036907796,-0.0018089416,0.0007247548000000001,-0.0016312834000000002,6.572,0,0
-0.004884854000000001,-0.0029858124,-0.0018145846000000001,0.0016348807999999999,-0.0015542474,6.573,0,0
-0.003189786,-0.0005228183999999999,-0.0012471189,0.0021743319999999997,-0.0016282834,6.574,0,0
-0.0014352980000000002,0.0017488956,-0.0007854375000000001,0.0018883086000000002,-0.0020306680000000002,6.575,0,0
0.00023751200000000016,0.0031786476,-0.00035043370000000006,0.0017273006000000004,-0.002197488,6.576,0,0
0.00281948,0.0048977012,0.00016186289999999998,0.0014514146000000003,-0.002020888,6.577,0,0
0.0053590040000000005,0.006297048,0.0004938909,0.0006437506000000001,-0.00142449,6.578,0,0
0.006531418,0.006338578000000001,0.0009453812,-9.757539999999995e-05,-0.000441712,6.579,0,0
0.007030018000000001,0.005753936000000001,0.0015909778000000002,-0.00052388,0.000494366,6.58,0,0
0.007082940000000001,0.004824760600000001,0.0018769580000000002,-0.0011635999999999999,0.0011977440000000002,6.581,0,0
0.005439215400000001,0.0027310046000000006,0.0020202494,-0.001607766,0.0016839360000000002,6.582,0,0
0.002999853400000001,0.00043242460000000003,0.0018655246000000001,-0.001168957,0.0015887180000000002,6.583,0,0
0.0010175174000000003,-0.0011140534,0.0012838796000000001,-0.0005187029999999999,0.0010979138,6.584,0,0
-0.0013401666,-0.0026611814,0.0003111096,-0.0002529411800000001,0.0004802438,6.585,0,0
-0.0038108126000000004,-0.0039933320000000005,-0.0004967984,1.154541999999996e-05,-8.609619999999998e-05,6.586,0,0
-0.0047650340000000005,-0.004027632,-0.000856653,0.0006533874200000001,-0.0004987148000000001,6.587,0,0
-0.00490976,-0.0033985024,-0.0011066256000000002,0.00081679242,-0.0009654532000000001,6.588,0,0
-0.005378264000000001,-0.0027974924,-0.0010247856,0.00051491442,-0.0011250462,6.589,0,0
-0.004470544000000001,-0.0013010664000000002,-0.0009210564,0.0008352326000000001,-0.0012850782000000003,6.59,0,0
-0.0021961060000000006,0.0009031376,-0.0010725484000000001,0.0013690920000000001,-0.0015316682000000002,6.591,0,0
-0.0006045660000000001,0.0025327396,-0.0011962438,0.001365926,-0.0015924496000000001,6.592,0,0
0.001070354,0.0037851000000000004,-0.0007764957999999999,0.0012078514000000002,-0.001366499,6.593,0,0
0.0037279740000000002,0.004981758000000001,-0.00011219279999999995,0.0012912578,-0.0008779658000000001,6.594,0,0
0.005632176000000001,0.005335088,0.00040498399999999994,0.0007965425999999999,7.297219999999988e-05,6.595,0,0
0.006149112,0.004415690400000001,0.0008202548,-0.00019433740000000002,0.0013746842000000002,6.596,0,0
0.006246384000000001,0.0034111434000000003,0.0012969788000000001,-0.0008360994,0.0019471102,6.597,0,0
0.0055977480000000005,0.0019983674,0.0013948068,-0.0014609768,0.002200586,6.598,0,0
0.0034402020000000003,-0.0010437326000000001,0.00040265480000000007,-0.0020821892,0.002549588,6.599,0,0
0.0008374819999999996,-0.0032545946000000006,-0.00042936119999999997,-0.0020453855999999996,0.002376594,6.6,0,0
-0.0015368940000000005,-0.004306147,-0.0005796719999999999,-0.0015973118,0.0018111598,6.601,0,0
-0.0041111260000000005,-0.006049286,-0.001261676,-0.0007911177999999999,0.0016709496000000003,6.602,0,0
-0.006326394000000001,-0.007161262000000001,-0.001792306,0.0004883882,0.0016057276000000001,6.603,0,0
-0.0070684300000000005,-0.006465373999999999,-0.0015109736000000003,0.0012825281999999999,0.0006788716000000001,6.604,0,0
-0.006599774,-0.005656268,-0.0012878756,0.0014601412,-0.00043478839999999995,6.605,0,0
-0.005945578,-0.005222512,-0.0012002354000000002,0.0019139074,-0.0012017362,6.606,0,0
-0.004156966,-0.0031962400000000004,-0.0009830434,0.0020043154,-0.0018661200000000002,6.607,0,0
-0.0015333040000000005,-0.0008777619999999998,-0.0006836436600000001,0.0012564152000000002,-0.0021952122,6.608,0,0
0.00047895399999999997,0.000642224,-0.00032507206000000007,0.0008529766000000001,-0.0018635642000000001,6.609,0,0
0.002198012,0.002770212,0.00023219194,0.0007218508000000001,-0.00110485532,6.61,0,0
0.0042651500000000005,0.005173864,0.00072050774,1.7296800000000088e-05,-0.00035131072,6.611,0,0
0.005582806,0.006011814,0.00117686374,-0.0009087472000000001,0.00032626528000000003,6.612,0,0
0.005532962,0.005937676,0.00176624,-0.001391465,0.00082616148,6.613,0,0
0.005901277999999999,0.006252322,0.0021991380000000002,-0.0018547904,0.00117663548,6.614,0,0
0.005384692,0.0046070544,0.0020814624,-0.002500754,0.0014906546,6.615,0,0
0.0031478320000000006,0.0013447823999999998,0.0017392784000000003,-0.002522318,0.0015227574000000002,6.616,0,0
0.0011896019999999999,-0.0008443816000000002,0.0012738584000000002,-0.0020950118,0.0012476870000000001,6.617,0,0
-0.0005171500000000001,-0.0026942156000000004,0.00016900040000000012,-0.001825083,0.000589215,6.618,0,0
-0.003514222,-0.0050111616,-0.0008612116000000002,-0.0010870288,-0.00017693899999999993,6.619,0,0
-0.006231854,-0.005978300000000001,-0.001581078,-3.5662800000000054e-05,-0.000758697,6.62,0,0
-0.006500698,-0.00509403,-0.001866628,0.00036802000000000004,-0.0015855644000000002,6.621,0,0
-0.006498274000000001,-0.004490892,-0.0015539676,0.0006889218000000001,-0.0022796860000000004,6.622,0,0
-0.006320346000000001,-0.0038081500000000006,-0.0009180426000000001,0.001365341,-0.0025468380000000005,6.623,0,0
-0.0042759978,-0.0016332780000000002,-0.00017235059999999987,0.0015931268,-0.0027586220000000005,6.624,0,0
-0.0016524558,0.0005591999999999997,0.0006185374000000001,0.0015098668,-0.0027638640000000004,6.625,0,0
-0.00014828979999999986,0.0022653580000000003,0.0012105494000000001,0.0018637220000000002,-0.0020547478000000003,6.626,0,0
0.0017262782000000002,0.004162688,0.0014988010000000001,0.002074462,-0.0010602037999999999,6.627,0,0
0.004092264200000001,0.005503844,0.0018852600000000001,0.0014183308,4.6700200000000065e-05,6.628,0,0
0.004947644000000001,0.005454686,0.00198295,0.00035682279999999986,0.0016240882000000002,6.629,0,0
0.0054029080000000005,0.0047486080000000005,0.0018269434000000003,-0.0003655232,0.0026140142,6.63,0,0
0.005825360000000001,0.0037430738000000002,0.0016439488,-0.0011098412,0.0029715740000000003,6.631,0,0
0.004335656,0.0014147778000000001,0.0013402068000000003,-0.0017016071999999998,0.003477712,6.632,0,0
0.0016895420000000007,-0.0014210181999999999,0.0004319128,-0.0014752936000000001,0.003458512,6.633,0,0
-0.00018878600000000025,-0.0035266382,-0.0005057432,-0.0008998216000000001,0.0024775908000000003,6.634,0,0
-0.002470694,-0.0051622762,-0.0008915606,-0.0002958658,0.0016316992000000002,6.635,0,0
-0.005370824,-0.0065680040000000006,-0.001433856,0.00037841620000000003,0.0012302848000000002,6.636,0,0
-0.006603688,-0.006202527999999999,-0.001916712,0.0008986202,0.00041843279999999994,6.637,0,0
-0.005980598,-0.003973336,-0.0018802200000000002,0.0013531098000000002,-0.0007139052,6.638,0,0
-0.0052337944,-0.002241106,-0.0013933414000000001,0.0018841138000000002,-0.0013066660000000002,6.639,0,0
-0.0036379924,-0.00013509200000000007,-0.0011781558,0.0019452140000000002,-0.0014220664000000002,6.64,0,0
-0.0004195783999999998,0.0031196480000000005,-0.0010414678000000002,0.0014945896000000001,-0.0016231112000000003,6.641,0,0
0.0026870676000000007,0.005438954000000001,-0.0005696698,0.0007562156000000002,-0.0014169340000000003,6.642,0,0
0.0050687576,0.006486106,0.0001387482,-0.0001833944,-0.0005984440000000001,6.643,0,0
0.007335224000000001,0.007669488,0.0010238076,-0.0009896224,0.00011304119999999999,6.644,0,0
0.008736748,0.007939632,0.002006664,-0.0016403584,0.0005869732,6.645,0,0
0.00835433,0.006295612,0.0028986420000000003,-0.0022345380000000003,0.0012086864,6.646,0,0
0.007345460000000001,0.0043131108000000005,0.0032418020000000002,-0.002407628,0.0012533562,6.647,0,0
0.005501992400000001,0.0020048608,0.0028430812,-0.0022835540000000006,0.0009549802000000001,6.648,0,0
0.0020276304,-0.0014364832000000002,0.0015625792000000002,-0.0021866560000000004,0.0008021790000000001,6.649,0,0
-0.0012983376,-0.0046880692000000005,0.0005425821999999999,-0.0016217268000000003,0.00027029700000000007,6.65,0,0
-0.0037952376,-0.0066945932000000005,-0.00016666819999999998,-0.0007548237999999999,-0.0004918570000000001,6.651,0,0
-0.006471863600000001,-0.008628524,-0.0019321482000000001,-0.0002847517999999999,-0.001169542,6.652,0,0
-0.008443974,-0.009663758000000001,-0.0037276574,0.00020967420000000007,-0.0016646060000000003,6.653,0,0
-0.008272652,-0.008338336,-0.0050208774,0.0010911422,-0.001985626,6.654,0,0
-0.007336718,-0.006383987000000001,-0.0063633024000000005,0.001355495,-0.00206661,6.655,0,0
-0.006338718,-0.0046492135999999995,-0.006849586,0.0017068060000000002,-0.002246744,6.656,0,0
-0.003670538,-0.0012798056000000002,-0.005538958,0.0025973560000000003,-0.0022197220000000004,6.657,0,0
-0.00013444400000000006,0.0025796584000000004,-0.0020817659999999997,0.0024011562,-0.002120202,6.658,0,0
0.00211497,0.0045451264,0.002253738,0.0015154562,-0.0018629304000000002,6.659,0,0
0.003910804,0.0063908894,0.005167342,0.0008208161999999999,-0.0010991324000000002,6.66,0,0
0.006102042,0.00817258,0.006313796,-0.00021248380000000024,-0.0005178210000000001,6.661,0,0
0.006789538,0.007749868,0.0063711440000000005,-0.0014855898,0.00032340900000000003,6.662,0,0
0.005913570000000001,0.0059012912,0.0047969544,-0.0018639520000000003,0.0016172310000000002,6.663,0,0
0.00544353,0.0042758872,0.0022849044,-0.0017718546,0.0024249534000000002,6.664,0,0
0.004302932,0.0019082752000000001,0.0007645693999999999,-0.0019481206000000002,0.0027028614,6.665,0,0
0.0013815400000000005,-0.0014521287999999999,0.0003227856,-0.0017585546000000003,0.0030249520000000005,6.666,0,0
-0.001243514,-0.0037930548000000004,0.0005358016,-0.0011132726000000002,0.0026179602000000004,6.667,0,0
-0.0036293700000000003,-0.005216282,0.00040260160000000003,-0.0003832066,0.0013615702000000002,6.668,0,0
-0.006607244,-0.006680634,-0.00035647639999999997,7.728599999999998e-05,8.942420000000002e-05,6.669,0,0
-0.008579078,-0.007279778000000001,-0.0008855534,0.0007551498,-0.0008993537999999999,6.67,0,0
-0.008420809999999999,-0.005990658,-0.0014866915999999998,0.0016318818000000002,-0.0014822436,6.671,0,0
-0.007318440000000001,-0.004151906,-0.0019976196,0.0021641218,-0.0017469618,6.672,0,0
-0.0055506054,-0.002312432,-0.0020635906000000003,0.0028329158,-0.0018422398000000001,6.673,0,0
-0.0021442474000000003,0.001018892,-0.001549008,0.0033273518,-0.0017657398,6.674,0,0
0.0012200966000000001,0.003941364,-0.000667922,0.0031890812,-0.0016542918,6.675,0,0
0.0037341706000000004,0.005314996000000001,5.768599999999996e-05,0.0029622272,-0.0018083600000000002,6.676,0,0
0.005967518600000001,0.006771986,0.0002842446,0.00233137,-0.0014711502000000001,6.677,0,0
0.007922846,0.0074101359999999995,0.00010138119999999996,0.000931812,-0.0008229966,6.678,0,0
0.008567424,0.0063232,-0.0004268754000000001,-4.294800000000001e-05,-0.00039648539999999994,6.679,0,0
0.008247808,0.004965594000000001,-0.0017075574,-0.0002186354,0.0002505866,6.68,0,0
0.007796562,0.0038626648000000003,-0.0029538614,-0.0005395652,0.0009322665999999999,6.681,0,0
0.0055479660000000005,0.0013695768000000002,-0.0032316999999999997,-0.0009728260000000001,0.0016585588000000001,6.682,0,0
0.002159918,-0.0016197452000000002,-0.0017291280000000001,-0.0010233440000000002,0.0028002872000000003,6.683,0,0
-0.0008675080000000006,-0.0035709672,0.0010564540000000003,-0.0010059138,0.0035375300000000005,6.684,0,0
-0.003829634,-0.005291707200000001,0.002934348,-0.0012650436000000002,0.003525342,6.685,0,0
-0.00680558,-0.00689074,0.0033694759999999997,-0.0015618858000000001,0.003692822,6.686,0,0
-0.007976568,-0.006870574,0.0036199061999999996,-0.0013882336000000002,0.0030135502,6.687,0,0
-0.007169948000000001,-0.0049579762,0.0025942164000000005,-0.0012433036,0.0014823442,6.688,0,0
-0.006390376,-0.0031048701999999997,-0.0001260856000000001,-0.0013114378,0.0008003602,6.689,0,0
-0.004676991000000001,-0.0007224762,-0.0012432556,-0.00099014,0.00024993579999999996,6.69,0,0
-0.0016372810000000002,0.0022456078,-0.000727284,-0.0009557799999999999,-0.0006914562000000001,6.691,0,0
0.0005228129999999999,0.0039201978000000005,-0.0004344029999999999,-0.0011307962,-0.0009335572000000001,6.692,0,0
0.001962777,0.004720616,-4.0929200000000055e-05,-0.0009074062,-0.00067236018,6.693,0,0
0.004110405,0.005588458,0.0007842088,-0.0008713962,-0.00086267938,6.694,0,0
0.00552538,0.0057986140000000005,0.0013405907999999998,-0.001281974,-0.00108345898,6.695,0,0
0.005403576,0.004752388000000001,0.0016651811999999998,-0.001438828,-0.00095822898,6.696,0,0
0.005268418,0.0037540485400000007,0.0016378598,-0.0012644572000000001,-0.00126820018,6.697,0,0
0.0045153712,0.0022678825400000006,0.0009160742,-0.0013366802,-0.0017798632,6.698,0,0
0.0019883692000000003,-0.0006011674600000002,0.00028511819999999985,-0.0013351320000000002,-0.0016852764000000002,6.699,0,0
-0.0006487668,-0.0032602994600000003,-0.0003826458000000001,-0.0008085272,-0.0014871500000000002,6.7,0,0
-0.0025698668,-0.00497774146,-0.0011512538000000001,-0.0002556324,-0.0012319532,6.701,0,0
-0.0045165948,-0.006606174,-0.0017799156,-0.0001615072,-0.0006450002000000001,6.702,0,0
-0.006118198,-0.007643156000000001,-0.002191604,0.0002493898,-0.00011468399999999997,6.703,0,0
-0.006138467999999999,-0.0069952140000000005,-0.0023693560000000004,0.0008760556,3.3918199999999997e-05,6.704,0,0
-0.005412458000000001,-0.0063357840000000006,-0.0024173460000000003,0.0008474127600000001,3.607579999999997e-05,6.705,0,0
-0.005139058,-0.006032132000000001,-0.002286452,0.00106631196,0.00022260040000000002,6.706,0,0
-0.0037132952,-0.004122117999999999,-0.0021181159999999997,0.0016888639600000002,0.000164105,6.707,0,0
-0.0016788712,-0.0012324860000000003,-0.002079126,0.00168133396,0.00010797399999999999,6.708,0,0
-0.0004561051999999999,0.000814616,-0.0019949480000000003,0.00145971996,0.00016070120000000003,6.709,0,0
0.0008970088,0.00312755,-0.0015287406,0.001455644,-5.42928e-05,6.71,0,0
0.0030602008,0.006341676000000001,-0.00106151,0.0009457972,-0.0003157124,6.711,0,0
0.00475685,0.007635032000000001,-0.0006802811999999999,0.00014654779999999997,-7.205599999999998e-05,6.712,0,0
0.00549267,0.007374534,0.00031200680000000004,-0.00011519200000000006,0.00019767680000000004,6.713,0,0
0.006605313999999999,0.007522346000000001,0.0016250388,-0.00012607440000000003,-7.730239999999999e-05,6.714,0,0
0.006898039999999999,0.006299314000000001,0.0024221854,-0.00011657594000000003,0.00028478876,6.715,0,0
0.005104698000000001,0.0036174640000000004,0.0027387028000000002,-0.00015705713999999998,0.0008269989600000001,6.716,0,0
0.0027108520000000006,0.0016416239999999997,0.002899056,-0.00043942574,0.0007025139600000001,6.717,0,0
0.0006405680000000003,-9.027799999999984e-05,0.00291076,-0.00078364194,0.00055155676,6.718,0,0
-0.002185324,-0.002778384,0.002229694,-0.0009723944599999998,0.0008909855600000001,6.719,0,0
-0.0047299180000000005,-0.004693752000000001,0.0008835599999999998,-0.0008686985199999999,0.00089449554,6.72,0,0
-0.0050479900000000005,-0.004956646,3.7909999999999994e-05,-0.00054597952,0.0004334223400000001,6.721,0,0
-0.005082924000000001,-0.005113234,-0.00040497340000000007,0.00014177647999999999,0.00049794334,6.722,0,0
-0.005156316,-0.0051155260000000004,-0.0012027774,0.00080130048,0.00051475534,6.723,0,0
-0.0036284208,-0.0035202286,-0.0016352322,0.0010234334,0.00045801853999999993,6.724,0,0
-0.0017634667999999998,-0.0014174305999999997,-0.0010934158000000002,0.001106411,0.00057981,6.725,0,0
-0.0006129547999999998,-0.00038865859999999983,-0.00026346979999999996,0.0012147140000000002,0.0005094582,6.726,0,0
0.0011967532000000001,0.0013542534,0.0004705916000000001,0.001240826,-9.757980000000004e-05,6.727,0,0
0.0037104492000000003,0.0035266294,0.0011756596000000001,0.000839044,-0.0007211646,6.728,0,0
0.004997376,0.004279818,0.0017793644000000002,0.0006427514,-0.0010778984,6.729,0,0
0.005633512,0.004434042,0.002153054,0.0009026574,-0.001599177,6.73,0,0
0.006343433999999999,0.004561258,0.0018560602000000002,0.0006780362,-0.0017979640000000002,6.731,0,0
0.005703118,0.0031475860000000004,0.0013365563599999999,-7.70678e-05,-0.0011863820000000001,6.732,0,0
0.003970669,0.00074401,0.0009537273600000002,-0.00037904180000000005,-0.0006930496,6.733,0,0
0.0028358890000000003,-0.0007756620000000001,0.00032357536000000007,-0.0005331364000000001,-0.0006638634000000001,6.734,0,0
0.001493373,-0.002442018,-0.0004423186400000001,-0.0012315324000000002,0.00014776859999999993,6.735,0,0
-0.0010095810000000003,-0.004158866000000001,-0.00107972284,-0.0011469442,0.0007547585999999999,6.736,0,0
-0.002650579,-0.004380134,-0.0015377490000000001,-0.0002736002,0.0002081765999999999,6.737,0,0
-0.00349827,-0.0035945942000000005,-0.0017809440000000002,0.00012753420000000002,-0.0002743398,6.738,0,0
-0.004805084,-0.0032873762000000003,-0.0026355780000000004,0.00041992000000000006,-0.000611486,6.739,0,0
-0.005067558,-0.0022947446000000002,-0.0041023660000000005,0.0010629440000000001,-0.0012893400000000001,6.74,0,0
-0.0038320626000000004,-0.00019548859999999994,-0.005042044,0.0010614134000000001,-0.0014360796000000002,6.741,0,0
-0.0027039526,0.0010095094000000002,-0.005550757999999999,0.00030658740000000007,-0.0007404896000000002,6.742,0,0
-0.0016416964000000001,0.0018397596,-0.0053703478,6.26142e-05,0.00011202040000000008,6.743,0,0
0.00016838560000000005,0.0035799216,-0.0042110336000000005,5.616019999999999e-05,0.0008251776000000001,6.744,0,0
0.0017544336000000001,0.005181716,-0.0011327116,-0.0004574416000000001,0.0012631538,6.745,0,0
0.0022352942,0.005218238000000001,0.0033539644000000006,-0.0008183640000000002,0.0015562354000000001,6.746,0,0
0.0027473702,0.0051096180000000015,0.006107906400000001,-0.0003243466000000001,0.0016729354,6.747,0,0
0.003298782,0.005120146000000001,0.007029456200000001,-0.0002130600000000001,0.0020218894000000004,6.748,0,0
0.0021505820000000003,0.003200884,0.007778666,-0.0008412746000000001,0.0025800922,6.749,0,0
0.00052173,0.0005659340000000001,0.006911976000000001,-0.0009586728000000001,0.0025858782000000003,6.75,0,0
-0.0003642099999999999,-0.001046604,0.0040729772,-0.000857058,0.0018372662000000002,6.751,0,0
-0.0021090980000000002,-0.003042986,0.0019636252,-0.0013325134,0.0006951682,6.752,0,0
-0.004256822,-0.0054107140000000005,0.0007319692000000001,-0.0013284430000000001,-0.00037158980000000013,6.753,0,0
-0.004779366,-0.005567338,-0.00021550639999999994,-0.000494443,-0.0014156638,6.754,0,0
-0.004697926000000001,-0.0045125842,-0.0007470434000000001,-9.180559999999997e-05,-0.0019042820000000002,6.755,0,0
-0.005075822000000001,-0.0041795342,-0.0011796946,0.0002713106,-0.0015235218,6.756,0,0
-0.00412581,-0.0027506796,-0.0012160986,0.0008336636000000001,-0.0010510018,6.757,0,0
-0.0021919120000000003,-0.00038871960000000003,-0.0011436126,0.0010307802,-0.0010089338,6.758,0,0
-0.0007985660000000001,0.0007242944,-0.0011974000000000002,0.0010103822,-0.0012520098,6.759,0,0
0.0008726579999999999,0.0016766785999999998,-0.0011564324000000001,0.0012556888,-0.0018138098,6.76,0,0
0.0034238460000000004,0.0036845046,-0.0010946258,0.0014101098000000002,-0.002428878,6.761,0,0
0.005299588000000001,0.00461734,-0.0009332570000000002,0.0010733384000000002,-0.0021480988,6.762,0,0
0.005935044,0.004177824000000001,-0.0007130920000000001,0.0006863076000000001,-0.0016222176,6.763,0,0
0.006658022,0.004263716000000001,-0.0002733750000000001,0.00018497280000000005,-0.000912806,6.764,0,0
0.006512703999999999,0.0032554220000000004,0.0002939063999999999,-0.00043547720000000005,0.0004904800000000002,6.765,0,0
0.00460424,0.000291204,0.0008090898,-0.0006498448000000001,0.001305932,6.766,0,0
0.00251602,-0.0017255579999999999,0.001239329,-0.0006217756000000002,0.0013512558,6.767,0,0
0.0007599499999999999,-0.002909046,0.001124824,-0.0010305916000000002,0.0011844756,6.768,0,0
-0.002014076,-0.00507467,0.000524884,-0.0014285128000000001,0.0009540809999999999,6.769,0,0
-0.004907574,-0.00623353,-0.00015831740000000002,-0.0013087134,0.0006154210000000001,6.77,0,0
-0.00587612,-0.005258916000000001,-0.0010039094,-0.0011709478,0.0003095158,6.771,0,0
-0.006365454,-0.004468382,-0.0018074174,-0.0010133101999999998,0.00023754860000000004,6.772,0,0
-0.006842068,-0.0037470780000000005,-0.0018794634000000002,-0.00030213019999999986,0.00028846480000000005,6.773,0,0
-0.005470944000000001,-0.0013508259999999998,-0.0015012334000000002,0.00034057440000000004,6.450580000000002e-05,6.774,0,0
-0.0030317720000000007,0.0009000700000000001,-0.0009291379999999999,0.00033613980000000006,-0.00044162020000000006,6.775,0,0
-0.0008398560000000004,0.0017453480000000003,-0.00022397979999999986,0.0004324778,-0.0007331290000000001,6.776,0,0
0.001671812,0.003137056,0.0006273022000000001,0.0009119634,-0.0014085488000000002,6.777,0,0
0.004517526,0.004970418000000001,0.0014302742000000001,0.0008057488,-0.001788426,6.778,0,0
0.006579166,0.0054308659999999995,0.0015936222000000003,0.0008137769999999999,-0.0017517180000000002,6.779,0,0
0.00742088,0.005859304,0.0011751842,0.0014544382000000002,-0.0021116600000000004,6.78,0,0
0.007764106000000001,0.006626620000000001,0.0008584486000000001,0.0013024596,-0.0019368594000000001,6.781,0,0
0.007098944000000001,0.005736032,0.0003193686000000001,0.0007506294000000002,-0.0010643854,6.782,0,0
0.005247054400000001,0.0039291952,-0.0009258494,0.0009826398,-0.00042168739999999994,6.783,0,0
0.0036591904000000007,0.0026491192000000006,-0.0015704593999999999,0.0011585070000000002,-0.0001480834,6.784,0,0
0.0022257676000000002,0.0012816211800000003,-0.0017948934,0.0003375830000000001,0.0006137506000000001,6.785,0,0
0.00012317760000000013,-0.0007819148200000001,-0.0018171329999999999,0.00025160340000000007,0.0009710400000000002,6.786,0,0
-0.0015219864,-0.0013534188200000003,-0.002060731,0.00030711682000000005,0.0008318552,6.787,0,0
-0.0017115268,-0.0012352760200000003,-0.0014255297999999999,-0.00116804698,0.0015656092,6.788,0,0
-0.0024978748,-0.0012567092200000004,0.0011909882,-0.00245188898,0.0030244892,6.789,0,0
-0.0022694361999999997,-0.0005529492000000001,0.0031907182000000004,-0.00290744298,0.004436035200000001,6.79,0,0
-0.0008478602,-0.0027877752000000002,0.0039044092000000002,-0.003945994780000001,0.005643219200000001,6.791,0,0
-0.0034270302000000002,-0.0088891112,0.0043603586,-0.004398468,0.006563352000000001,6.792,0,0
-0.009417738200000001,-0.015935907200000002,0.0033232954000000014,-0.00310470544,0.006085778,6.793,0,0
-0.0164768502,-0.023439314000000003,-0.0007612825999999998,-0.00206783504,0.004467805400000001,6.794,0,0
-0.025199710000000004,-0.030487840000000002,-0.0049005386000000005,-0.0006749930400000001,0.0024066794000000002,6.795,0,0
-0.03224326,-0.030915280000000003,-0.0077441406,0.00162138496,7.180939999999996e-05,6.796,0,0
-0.0317528,-0.023865160000000003,-0.009560662000000001,0.0032283289600000004,-0.0023901426000000003,6.797,0,0
-0.024992168000000002,-0.01300664,-0.009362554000000002,0.0038838304,-0.0043648626,6.798,0,0
-0.013555068000000002,0.0012303800000000005,-0.007573018,0.004288806,-0.005326786,6.799,0,0
0.002204771999999997,0.016745080000000002,-0.004463522000000001,0.004032966,-0.005743204,6.8,0,0
0.017884892,0.03009074,-0.0008976620000000002,0.002627944,-0.005304636,6.801,0,0
0.031298332,0.03935016,0.00280589,0.0013607604,-0.0041018544,6.802,0,0
0.04193976,0.04502242,0.006459072000000001,0.0005660596000000001,-0.0026330644000000006,6.803,0,0
0.047907040000000005,0.0449241,0.009254534000000002,-0.0002857624000000001,-0.0007589484000000001,6.804,0,0
0.04700854000000001,0.037989180000000004,0.010479888000000001,-0.0011849984000000002,0.0012829056,6.805,0,0
0.040310740000000005,0.026928442,0.010693884,-0.0015089864,0.0028212035999999998,6.806,0,0
0.028888802,0.012546522000000001,0.009707650000000002,-0.0017061008000000002,0.003831052,6.807,0,0
0.012886242000000003,-0.004082618,0.006884992400000001,-0.0017579932,0.00428077,6.808,0,0
-0.0045550980000000005,-0.019301458,0.0034722384,-0.0010340791999999999,0.003740984,6.809,0,0
-0.020012738000000002,-0.030362198,3.750440000000019e-05,-0.00039789960000000005,0.0024469979999999997,6.81,0,0
-0.032504778000000005,-0.037438,-0.0032913196000000002,-3.1537599999999994e-05,0.0010033660000000001,6.811,0,0
-0.04095266,-0.039853080000000006,-0.006191163600000001,0.0007342024,-0.00068109,6.812,0,0
-0.04292698,-0.036289,-0.008191466,0.0016900656,-0.0024581819999999997,6.813,0,0
-0.03839762,-0.027870003400000003,-0.008977024000000002,0.0019337356,-0.0035917640000000003,6.814,0,0
-0.028972594,-0.0167607234,-0.008253036,0.0019254008000000001,-0.004193032,6.815,0,0
-0.015905993999999996,-0.003178463400000002,-0.006116652,0.0021175308,-0.004771344,6.816,0,0
-0.000802634,0.0111413766,-0.003592866000000001,0.0018505448,-0.004869132000000001,6.817,0,0
0.013454626,0.0224232966,-0.0009268200000000001,0.0007450208,-0.004153006000000001,6.818,0,0
0.025087626000000002,0.030194960000000003,0.001768496,-0.00027742319999999996,-0.0032085502,6.819,0,0
0.03396706,0.034409260000000004,0.003969508,-0.000931494,-0.0018767202000000002,6.82,0,0
0.03787858,0.03287296,0.005377382,-0.002367284,7.874980000000008e-05,6.821,0,0
0.035945200000000004,0.025872846,0.006339614,-0.0034165140000000007,0.0024154898,6.822,0,0
0.029672274000000002,0.016098246,0.0068569600000000005,-0.003323562,0.0042658638,6.823,0,0
0.019008834000000006,0.003989186000000001,0.006488718000000001,-0.0033258420000000003,0.005283822,6.824,0,0
0.004695314000000001,-0.009068914,0.005451600000000001,-0.0029943392,0.005586644,6.825,0,0
-0.009273866,-0.019680294,0.0036154504000000002,-0.0018717632,0.0046665047999999995,6.826,0,0
-0.020638546,-0.027142979999999997,0.0008217924000000001,-0.0009425880000000001,0.0029519968,6.827,0,0
-0.02973684,-0.03178976,-0.0028918796,-1.2300000000000678e-06,0.001472404,6.828,0,0
-0.03486122,-0.031873280000000004,-0.0065245016,0.001197712,0.0003227995999999999,6.829,0,0
-0.03444986,-0.026628272,-0.0085800096,0.0018464292000000002,-0.0010806344000000002,6.83,0,0
-0.029663640000000005,-0.018586758,-0.00949238,0.0022999072,-0.0021185652000000003,6.831,0,0
-0.021894232,-0.008487438000000002,-0.008911886,0.002512386,-0.0025572292000000003,6.832,0,0
-0.011057632000000001,0.003574862000000001,-0.005184946000000001,0.0020116616000000003,-0.0031160304000000002,6.833,0,0
0.001324727999999999,0.014537742000000001,-0.000370586,0.0011251386000000001,-0.003526942,6.834,0,0
0.012544128000000002,0.022219714,0.002872976,0.00038572260000000006,-0.0031909840000000004,6.835,0,0
0.021925228,0.0270971,0.005701182,2.0868800000000087e-05,-0.0024230588000000008,6.836,0,0
0.02887654,0.02899934,0.008486848,-0.0005693892,-0.0013840568,6.837,0,0
0.0313796,0.02633992,0.008633548,-0.0016166207999999999,0.00016925920000000001,6.838,0,0
0.028951260000000003,0.020046170999999998,0.006238068,-0.0022698518,0.0017157632,6.839,0,0
0.022827902,0.011719531,0.0038070760000000004,-0.0024649858000000005,0.0027695772,6.84,0,0
0.013003401999999999,0.001208031000000001,0.0005443640000000003,-0.002723622,0.003450598,6.841,0,0
0.0006979419999999991,-0.009716529000000002,-0.003095294,-0.0023323742,0.003545508,6.842,0,0
-0.010516198000000001,-0.017925649000000002,-0.005205672,-0.0012036282000000003,0.0025979466000000005,6.843,0,0
-0.019528718,-0.02332418,-0.006012688,-0.0001238462,0.0012213846,6.844,0,0
-0.02665096,-0.026392880000000004,-0.004745918,0.0007217718,0.00011475259999999996,6.845,0,0
-0.029300400000000004,-0.025408720000000003,-0.0021697220000000002,0.0017310538,-0.0012048534,6.846,0,0
-0.027123440000000002,-0.020624074000000003,-0.0009496079999999998,0.002244368,-0.0030457914,6.847,0,0
-0.022593231999999998,-0.014240498,-0.00046263799999999997,0.0021186044,-0.0037968180000000004,6.848,0,0
-0.015369872,-0.006066258,0.0004650160000000001,0.0023755464000000002,-0.0036465926000000004,6.849,0,0
-0.005345091999999999,0.003692122000000001,-8.208119999999999e-05,0.0023404924,-0.0036934086000000002,6.85,0,0
0.004617368,0.012507922000000001,-0.0008556032000000002,0.0015845100000000003,-0.0026931358000000004,6.851,0,0
0.012999087999999999,0.019245876,0.00020432080000000002,0.0008790768000000002,-0.0009192198000000001,6.852,0,0
0.020415899999999997,0.02381476,0.0014081388,0.0005959382,6.392680000000001e-05,6.853,0,0
0.025286879999999998,0.02514132,0.0025789368000000003,-0.0001816758,0.0007216674,6.854,0,0
0.02581852,0.022391438000000003,0.00349014,-0.0010414438,0.0019337914,6.855,0,0
0.022892460000000003,0.016751668000000004,0.003895804,-0.0011124394000000001,0.0026758066,6.856,0,0
0.017280139199999996,0.009079268000000001,0.004143614,-0.0012382382,0.0033157766,6.857,0,0
0.0086679392,5.768000000001047e-06,0.003741164,-0.0014406820000000002,0.004319592000000001,6.858,0,0
-0.0012998208,-0.008358612000000001,0.003145078,-0.0011358345999999998,0.00475702,6.859,0,0
-0.009801480800000002,-0.014643449999999999,0.0022160892,-0.00045820180000000004,0.004212698,6.86,0,0
-0.0165538608,-0.01876688,0.00017751919999999997,-0.00014235780000000002,0.0031412332000000003,6.861,0,0
-0.021375380000000003,-0.02064696,-0.0023721268,0.0004910962000000001,0.0020173435999999998,6.862,0,0
-0.02255298,-0.01909226,-0.0043451148,0.0015872542,0.0002903316,6.863,0,0
-0.020255332000000004,-0.015004555000000001,-0.0058562528,0.0020030928,-0.0013530844000000002,6.864,0,0
-0.016064600000000002,-0.010152853,-0.006603328,0.0018924298000000002,-0.0024145964000000003,6.865,0,0
-0.009677812000000001,-0.0034395529999999997,-0.005929202,0.0018027346000000003,-0.0033773096000000004,6.866,0,0
-0.0013856720000000001,0.004362087000000001,-0.00411257,0.0014851666000000002,-0.004093944,6.867,0,0
0.006463308000000001,0.010443527000000001,-0.0017386259999999998,0.0004517425999999999,-0.0038293560000000003,6.868,0,0
0.01291772,0.014413542,0.00047825600000000004,-0.0005666353999999999,-0.0030247150000000003,6.869,0,0
0.018269628000000003,0.01713808,0.0025282260000000006,-0.0009878032,-0.0023298878,6.87,0,0
0.0212226,0.016860470000000002,0.004310794000000001,-0.001500892,-0.0010002938,6.871,0,0
0.020516740000000002,0.0128410432,0.004909292000000001,-0.0020826580000000003,0.0004077022000000001,6.872,0,0
0.017521194000000004,0.0076894572,0.004565260000000001,-0.002105898,0.0010806882,6.873,0,0
0.012412310000000001,0.0015224972000000008,0.003893868000000001,-0.0018166480000000001,0.0018864431999999999,6.874,0,0
0.00507569,-0.0057532428,0.002486498,-0.0015120046000000004,0.002982416,6.875,0,0
-0.0025621899999999998,-0.0112494728,0.0009496500000000002,-0.0009452894000000001,0.003097586,6.876,0,0
-0.00928719,-0.014263126,-0.00043821800000000004,-5.2391400000000184e-05,0.00261201098,6.877,0,0
-0.014840384000000002,-0.01627948,-0.002000674,0.0004994146,0.00218743038,6.878,0,0
-0.01783984,-0.01593581,-0.0032277900000000003,0.0012077526,0.0010064803799999995,6.879,0,0
-0.0173786,-0.012276068000000001,-0.00397816,0.0019834792,-0.0005436496200000001,6.88,0,0
-0.01509555,-0.0077870080000000015,-0.004432834,0.0020562560000000002,-0.00133618362,6.881,0,0
-0.010723516,-0.002711972000000001,-0.00421415,0.0020494980000000003,-0.0016612326,6.882,0,0
-0.004213716,0.0038672280000000003,-0.0030481508,0.00182068,-0.001924142,6.883,0,0
0.0023040639999999998,0.009745438,-0.0017498488000000003,0.0013232984,-0.001860022,6.884,0,0
0.007698904,0.013622036,-0.0003635728000000001,0.0005596204000000001,-0.0013793138,6.885,0,0
0.012323594,0.016370616,0.0014209272,-9.502959999999999e-05,-0.0006895117999999999,6.886,0,0
0.01579576,0.017940980000000002,0.0032816852000000004,-0.0006924224000000001,-0.00010737179999999993,6.887,0,0
0.0162471,0.016587634,0.004416218,-0.0013311804,0.00046778620000000005,6.888,0,0
0.014131368,0.012704827140000001,0.0046060400000000005,-0.0018326088000000002,0.0010407362,6.889,0,0
0.010538554,0.00832271514,0.004436764000000001,-0.0022510568,0.0012951160000000002,6.89,0,0
0.005161236000000001,0.00258943714,0.0034424196,-0.0022653528000000003,0.0014015920000000001,6.891,0,0
-0.0015004440000000005,-0.00433788286,0.0015851036,-0.0022344260000000003,0.0013728640000000001,6.892,0,0
-0.0073805039999999995,-0.009801256860000001,-0.0003233464,-0.0016768564000000001,0.00067866,6.893,0,0
-0.011732772,-0.01292897,-0.0016561604,-0.0007759984000000001,-0.00032422399999999996,6.894,0,0
-0.015298217999999999,-0.015140258,-0.0028848984,0.00020222960000000005,-0.0009519180000000001,6.895,0,0
-0.0166316,-0.015281780000000002,-0.004117418,0.0013651256000000002,-0.0014052899999999998,6.896,0,0
-0.01518889,-0.0119934942,-0.004351918000000001,0.0018847936,-0.002072094,6.897,0,0
-0.012999334000000001,-0.008105410200000001,-0.0038184258,0.0021197516000000002,-0.002225712,6.898,0,0
-0.009506534,-0.0038347102,-0.0031947748,0.0023887176000000005,-0.0019165000000000002,6.899,0,0
-0.003830318,0.0019139297999999998,-0.0019368888000000002,0.0020049548,-0.0017994920000000004,6.9,0,0
0.0016320220000000006,0.0065469698,-9.523880000000015e-05,0.0008729948,-0.0015671562000000002,6.901,0,0
0.005772252,0.008896864,0.0012136232000000001,0.0001562108,-0.0012522678,6.902,0,0
0.009869016000000001,0.010866660000000002,0.0021033530000000005,-0.0002585208,-0.0005113702,6.903,0,0
0.012978056,0.012140260000000002,0.0026360740000000004,-0.0013573948,0.00033110780000000003,6.904,0,0
0.013117786,0.010510486000000001,0.0027416920000000004,-0.001822662,0.0008474638000000001,6.905,0,0
0.011594054,0.007370574,0.00247337,-0.0014633282,0.001533826,6.906,0,0
0.009262006,0.004193928000000001,0.0018511890000000003,-0.0015037102000000002,0.0023600396,6.907,0,0
0.004991588,-0.00047489199999999976,0.001356007,-0.0014650492,0.002518164,6.908,0,0
-1.596600000000007e-05,-0.005667432,0.0012033649999999999,-0.0006801951999999999,0.0023077300000000005,6.909,0,0
-0.0037315300000000003,-0.008849778,0.001159279,-2.4197200000000013e-05,0.002055506,6.91,0,0
-0.006643458,-0.010739586,0.000542991,5.5078600000000005e-05,0.0007877220000000001,6.911,0,0
-0.00910619,-0.01200588,-0.00029000200000000014,0.000557485,-0.00040329399999999995,6.912,0,0
-0.009409201999999998,-0.010497668,-0.0010925740000000002,0.001154984,-0.0008756834000000001,6.913,0,0
-0.00827835,-0.007447664,-0.00216849,0.001305742,-0.0015476894,6.914,0,0
-0.007367947999999999,-0.0050550460000000005,-0.002960304,0.001259722,-0.0017100978,6.915,0,0
-0.005048908,-0.0012633959999999995,-0.0026725684000000003,0.001307261,-0.0012213048,6.916,0,0
-0.0011506140000000003,0.003554184,-0.0017605329999999999,0.0013026210000000001,-0.0009859388,6.917,0,0
0.002365654,0.006616732,-0.0010310081999999996,0.00091721726,-0.0007909112199999999,6.918,0,0
0.005409556,0.008360328,-7.653979999999993e-05,0.0008535232600000001,-0.00037257782,6.919,0,0
0.008851152,0.010223890000000001,0.0010230322000000002,0.0008487272600000001,0.00010047658000000005,6.92,0,0
0.010959152,0.010502044000000002,0.0021009786,0.00012547465999999995,0.0007312575800000001,6.921,0,0
0.01027434,0.008121103400000001,0.0029810732,-0.0003422937400000001,0.00124550158,6.922,0,0
0.0085119112,0.0052193334000000015,0.0034937484,-0.000136056,0.0012303534000000001,6.923,0,0
0.006023273199999999,0.0020615374000000006,0.0035467479999999997,-0.0005316200000000001,0.0015049640000000001,6.924,0,0
0.0021257812000000003,-0.0019914606,0.00254996,-0.0008995652000000001,0.001804278,6.925,0,0
-0.0017777308000000002,-0.0055446846000000004,0.00022418799999999995,-0.00013131600000000006,0.0012289324,6.926,0,0
-0.0045065028,-0.0073658099999999995,-0.003293102,0.0003351414,0.0008748306,6.927,0,0
-0.007037532,-0.008394162,-0.00648294,-6.979600000000017e-06,0.0010035564,6.928,0,0
-0.009023954,-0.008873797999999999,-0.007942062,-5.564800000000002e-05,0.0006334732,6.929,0,0
-0.009260346,-0.007419286000000001,-0.008282116,-3.385620000000001e-05,-0.0006171808,6.93,0,0
-0.008590436,-0.0053112174,-0.0068428246,-0.0005767294,-0.0015236792,6.931,0,0
-0.0069772782,-0.0035732144000000005,-0.0024063306,-0.0008283143999999999,-0.0016938413999999999,6.932,0,0
-0.0034602462,-0.0007084964000000002,0.0021214693999999992,-0.0007623002,-0.0021323372,6.933,0,0
0.0004449618000000003,0.0024460616,0.0049318254,-0.0011336078,-0.002556192,6.934,0,0
0.003496363800000001,0.004360619600000001,0.0070488534,-0.0012699884,-0.002252048,6.935,0,0
0.0064622658,0.006223749,0.00755839,-0.0009085566000000001,-0.001612464,6.936,0,0
0.008917438000000001,0.008293812000000001,0.006195086,-0.00074357602,-0.0014052192000000002,6.937,0,0
0.009308232000000001,0.008366484,0.004657794000000001,-0.0007999896200000001,-0.0005175912000000001,6.938,0,0
0.008264174,0.007118024,0.0034024100000000002,-0.00032575362000000004,0.0007866448000000001,6.939,0,0
0.007334574000000002,0.00629261,0.0021104044000000003,0.00032398238,0.0012427676000000003,6.94,0,0
0.005040033600000001,0.0040288799999999994,0.0014398464,0.00038724422,0.0017848736000000002,6.941,0,0
0.0015346216000000003,0.000520632,0.0009938176000000001,0.00010261523999999998,0.0025953868000000006,6.942,0,0
-0.0010608764,-0.001919172,0.0006791006000000001,-0.00011102836000000002,0.0026094068,6.943,0,0
-0.0033275124,-0.0037329960000000006,-4.513739999999997e-05,-0.00022764656000000006,0.0018041557,6.944,0,0
-0.0060050504,-0.006199438000000001,-0.0017454258,-0.0006961983600000001,0.0014010889,6.945,0,0
-0.007565938000000001,-0.00743581,-0.0035882378,-0.000612775,0.0007965309,6.946,0,0
-0.007515488000000001,-0.0066957959999999995,-0.004750993,3.6048999999999966e-05,-0.0007013811000000001,6.947,0,0
-0.007699354000000001,-0.0062264239999999995,-0.004690140000000001,0.000279714,-0.0017623191000000003,6.948,0,0
-0.0074043040000000004,-0.00519156,-0.004382381000000001,0.0006499322,-0.001967366,6.949,0,0
-0.0054457690000000005,-0.002994156,-0.0024196830000000006,0.0011311620000000002,-0.0018629192,6.95,0,0
-0.003424725,-0.0009075140000000002,0.0012054990000000003,0.0012296540000000002,-0.0015312574,6.951,0,0
-0.0015836749999999997,0.0008095899999999998,0.0034686090000000005,0.0009769650000000002,-0.0007290310000000001,6.952,0,0
0.001468873,0.003022986,0.0035839070000000003,0.0011739234000000002,-6.333260000000002e-05,6.953,0,0
0.004915949000000001,0.005369026000000001,0.0021175860000000007,0.0011173154000000002,0.0002859068,6.954,0,0
0.006671632000000001,0.0061746859999999995,-0.0006645839999999997,0.0005941836000000001,0.00090665,6.955,0,0
0.007310432000000001,0.00622113,-0.0042445980000000005,0.0005383730000000001,0.0010961262,6.956,0,0
0.0075983920000000016,0.005826880000000001,-0.006594228000000001,0.00019894,0.0009707066000000001,6.957,0,0
0.006108880000000001,0.0037252099999999996,-0.0070708882,-0.0004192754,0.0013579042000000001,6.958,0,0
0.003472544,0.0007468220000000001,-0.0050579322,-0.0007077378,0.0014939448000000001,6.959,0,0
0.001520128,-0.0010605500000000002,-0.0005840321999999996,-0.0006018434,0.0011932293999999998,6.96,0,0
-0.0002322279999999998,-0.0025840999999999998,0.0044039718,-0.0006465732,0.000861619,6.961,0,0
-0.0026865260000000003,-0.00452927,0.0077267658,-0.0003095896000000001,0.00030073419999999994,6.962,0,0
-0.004245594,-0.004667576,0.008544564000000001,0.0004687484,-0.0005892418000000002,6.963,0,0
-0.004388348,-0.00378686,0.00811396,0.00045247960000000003,-0.0012527138000000002,6.964,0,0
-0.004900514,-0.0038089,0.005735092,0.00016032699999999993,-0.0015116698000000003,6.965,0,0
-0.004514238000000001,-0.0030593210000000003,0.0018291339999999998,-0.0001485896,-0.0015897944000000002,6.966,0,0
-0.0025615300000000002,-0.0006817910000000002,-0.000859084,-0.0005738352,-0.0012430604000000002,6.967,0,0
-0.0010228960000000001,0.0007813630000000001,-0.001730504,-0.0008830909999999999,-0.0007464840000000002,6.968,0,0
8.536999999999987e-05,0.001390453,-0.0018865248000000004,-0.0010093666,-0.00030408320000000014,6.969,0,0
0.002292888,0.0032185490000000002,-0.0015018356000000004,-0.0006036036000000001,-9.064700000000001e-05,6.97,0,0
0.004185606,0.004272968000000001,-0.00045848559999999995,-0.0002605956,0.0001347858,6.971,0,0
0.00408718,0.0031474628400000003,0.0002653864,-0.00023354760000000006,0.0007190278000000001,6.972,0,0
0.004002200000000001,0.00252754684,0.0005536942,0.0002160722,0.0010199514,6.973,0,0
0.0037005502000000004,0.0023504728400000003,0.0008787895999999999,0.000617391,0.0012083726,6.974,0,0
0.0019245522000000002,0.00054918884,0.0010425144,0.00027664,0.0017270338,6.975,0,0
0.0003567392000000001,-0.00066025716,0.0012246984,0.0001224048,0.0018169375999999998,6.976,0,0
9.864000000000053e-06,-0.0008492984000000001,0.0013138364,0.0003299586,0.0010243715999999998,6.977,0,0
-0.000531966,-0.0020193524000000004,0.0007199446,-3.93964e-05,0.0002442075999999998,6.978,0,0
-0.0014434422000000001,-0.0033065784000000003,-0.00010043800000000011,-0.00019431719999999994,7.216699999999873e-06,6.979,0,0
-0.0013707502,-0.0033997584000000003,-0.0009889440000000003,0.0002339648,-0.0005676886800000002,6.98,0,0
-0.0015559852000000002,-0.0035141364000000003,-0.0027115640000000005,0.0004081782,-0.00110034628,6.981,0,0
-0.0024700520000000004,-0.003986732000000001,-0.004633376000000001,0.0004108646000000001,-0.0009011382800000001,6.982,0,0
-0.0024112599999999997,-0.0028352658000000003,-0.00524987,0.00035019960000000003,-0.00063849328,6.983,0,0
-0.0014751874000000003,-0.0011767778000000004,-0.005277554000000001,0.000193268,-0.00062730278,6.984,0,0
-0.0009157434000000002,-0.00011239980000000012,-0.0053104020000000005,1.1180600000000026e-05,-0.0009242354000000001,6.985,0,0
-0.0005308558000000003,0.0011584802,-0.004056259000000001,9.921240000000003e-05,-0.0009004314000000001,6.986,0,0
0.0008801642,0.0028862882000000004,-0.001623997,0.0003042358,-0.0010477134,6.987,0,0
0.0021843442,0.0036690740000000005,0.00029860299999999993,6.338380000000008e-05,-0.0015283744,6.988,0,0
0.0025678556,0.003604158,0.001623431,-6.848779999999994e-05,-0.0015767828000000002,6.989,0,0
0.0030410916000000003,0.004119786,0.003119459,-0.00019863739999999994,-0.0015023048000000002,6.99,0,0
0.003163932,0.003550758,0.003674276,-0.0009556714,-0.001118307,6.991,0,0
0.002275646,0.001807076,0.0030094574,-0.001492255,-0.00047601300000000007,6.992,0,0
0.0010784502000000002,0.0005748680000000001,0.0024173394,-0.0011766188,5.548452000000001e-05,6.993,0,0
0.0004135985999999999,-0.000412092,0.0019786422,-0.0010022382,0.00047941932000000005,6.994,0,0
-0.0006213594000000001,-0.0022421159999999997,0.0011549422,-0.0011862652000000002,0.0011725473200000002,6.995,0,0
-0.0015416094000000003,-0.003344488,4.817220000000004e-05,-0.0005096228000000002,0.0013716815200000001,6.996,0,0
-0.0014724588000000001,-0.0027853186000000004,-0.0007933452000000001,0.00036822319999999995,0.0010262201200000002,6.997,0,0
-0.0018871750000000005,-0.0028421226,-0.0016113911999999998,0.00043846179999999996,0.0010080026000000002,6.998,0,0
-0.0026897134000000004,-0.0031210986,-0.002939766,0.0005880502,0.0006643634000000001,6.999,0,0
-0.0025009904,-0.0020178820000000004,-0.00390945,0.0009824810000000001,-5.1156600000000024e-05,7.0,0,0
-0.0018166144000000002,-0.0008584020000000001,-0.003791678,0.0009096528,-0.0007214526,7.001,0,0
-0.0019194770000000002,-0.0005040954000000001,-0.0031963760000000003,0.0006164634000000001,-0.0009260772,7.002,0,0
-0.0014974736,0.0008228126,-0.002227368,0.0006649424000000001,-0.0008346106000000002,7.003,0,0
-4.609359999999997e-05,0.0030033146,-0.0007407319999999998,0.0007851834000000001,-0.0006829774000000001,7.004,0,0
0.0004618034000000001,0.003467714,0.0008829840000000001,0.000565968,-1.8489399999999925e-05,7.005,0,0
0.00048348320000000006,0.00362755,0.002401,7.218780000000003e-05,0.0006644806,7.006,0,0
0.0013278932000000002,0.004613336,0.003176674,-0.0005280568000000001,0.0009256496000000002,7.007,0,0
0.0017391678,0.003985668,0.003245078,-0.0009599206000000002,0.0010855250000000002,7.008,0,0
0.0010395600000000001,0.0026044834,0.0030773403999999997,-0.0011514502000000001,0.0013554090000000001,7.009,0,0
0.0007416746000000001,0.0022040184000000004,0.0025405427999999996,-0.0011209358000000003,0.001195667,7.01,0,0
0.0005667130000000002,0.0012040664000000003,0.0015569422000000002,-0.0006623002,0.001222725,7.011,0,0
-0.000553561,-0.0008912276,0.0007840368000000001,-0.00010778420000000002,0.001855274,7.012,0,0
-0.001350109,-0.0017131696,0.000394246,4.008000000000115e-07,0.001915968,7.013,0,0
-0.0018548352,-0.002203165,0.0001084134,-0.00011330640000000002,0.0019343940000000003,7.014,0,0
-0.0028663438,-0.0034360099999999998,-0.0001187746,0.00013970879999999997,0.002415944,7.015,0,0
-0.0032381860000000005,-0.00357061,-0.00020167,0.0004716192,0.0022645182,7.016,0,0
-0.0028685400000000006,-0.0032408300000000005,0.0002446454,0.0005928872,0.0014673442,7.017,0,0
-0.002701808,-0.0035849140000000007,0.0004577022,0.0006546001999999999,0.0010759632000000002,7.018,0,0
-0.002404336,-0.0035613080000000004,0.00038653760000000004,0.0005609176000000001,0.00013660520000000005,7.019,0,0
-0.00142400384,-0.0022156300000000006,0.00046347240000000007,0.000566826,-0.0012209028000000001,7.02,0,0
-0.0006771758400000001,-0.0011632360000000004,0.0005411814000000001,0.00029095940000000006,-0.0016185730000000003,7.021,0,0
-0.0006455108400000001,-0.0007830170000000002,7.430859999999998e-05,-2.111179999999999e-05,-0.0018636990000000003,7.022,0,0
-7.029084000000007e-05,0.0005573350000000001,-0.00037887540000000006,0.0006032642,-0.002350726,7.023,0,0
0.00099124516,0.001736239,3.299539999999999e-05,0.0013273096,-0.002316054,7.024,0,0
0.001430931,0.0014961388000000002,0.0001702162,0.0015194422,-0.0022228860000000003,7.025,0,0
0.0018719750000000001,0.0015352368000000002,-1.9621999999999983e-05,0.0018008328,-0.0027688020000000003,7.026,0,0
0.0026008840000000004,0.0024746878,0.0001808122,0.0018943492,-0.002812582,7.027,0,0
0.0027624040000000004,0.0023856818,0.000459696,0.0015749732,-0.0022128564,7.028,0,0
0.0022480984000000006,0.0014114818,7.748000000000021e-06,0.0014080192,-0.0012444364,7.029,0,0
0.0018624484000000004,0.001288429,-0.0002338406,0.0008324974,-2.657640000000008e-05,7.03,0,0
0.0013017340000000001,0.000509843,-3.8486200000000025e-05,-0.00016139660000000005,0.0011889376,7.031,0,0
8.804200000000009e-05,-0.0016458970000000001,-0.00039626760000000005,-0.0006819597999999999,0.0022747656,7.032,0,0
-0.0008086200000000001,-0.002783415,-0.0006605960000000001,-0.0010727692,0.0024259506,7.033,0,0
-0.0011555822000000001,-0.0027003272,-0.0006406980000000001,-0.001566871,0.0018389627999999998,7.034,0,0
-0.0016886002,-0.0030051802,-0.0005723812000000001,-0.0015994092,0.0013859407999999998,7.035,0,0
-0.0022490298,-0.0028458282,-0.0004930544000000001,-0.0011385586,0.0011133614000000001,7.036,0,0
-0.0015739880599999999,-0.0007677441999999997,-0.0002323762000000001,-0.0008106502000000001,0.0002632154,7.037,0,0
-0.00072722006,0.0006576318,1.0388199999999997e-05,-0.0008596928,-0.0004647412,7.038,0,0
-0.00043407845999999996,0.0009462686,0.00024351060000000002,-0.0009137376,-0.0006031111999999999,7.039,0,0
0.00073035354,0.0024244946000000003,0.00033315967999999997,-0.000862726,-0.0010773472,7.04,0,0
0.00199720154,0.0033934646000000003,0.00029649028,-0.0011386745999999999,-0.0013215441999999999,7.041,0,0
0.0026043758,0.0027916078,0.00061412208,-0.0014431070000000001,-0.0005583982000000001,7.042,0,0
0.0032033258,0.0027280418,0.0007715402800000001,-0.00121457658,0.0006317598000000001,7.043,0,0
0.0036907640000000005,0.0030061391999999998,0.0007573912800000001,-0.00099283978,0.0012905856000000001,7.044,0,0
0.003329002,0.0020211936,0.00074405838,-0.0007315565800000001,0.0013662090000000004,7.045,0,0
0.0027954900000000003,0.0013366608,0.0004766145800000001,-0.00010200658000000001,0.0010854094,7.046,0,0
0.002602052,0.0013698898,-0.00059698742,0.00071691742,0.00023760940000000014,7.047,0,0
0.0015597173999999999,0.0003842838000000001,-0.00230833742,0.001076435,-0.0005608341999999999,7.048,0,0
0.00020291739999999986,-0.0007471982000000001,-0.00381466682,0.0008226848,-0.0010314369999999998,7.049,0,0
-0.0003154823999999999,-0.0011470606,-0.0048467612,0.0006889458,-0.0012779204000000002,7.05,0,0
-0.0010304144,-0.0017279058000000003,-0.005727332,0.0001965697999999999,-0.0010007086,7.051,0,0
-0.0026239124,-0.0024488420000000006,-0.005604926,-0.0005676501999999999,-0.0007459422,7.052,0,0
-0.0031370778000000005,-0.0021739962000000006,-0.0026761059999999997,-0.0009388310999999999,-0.0010563186,7.053,0,0
-0.0022178796,-0.0012466861999999997,0.001205444,-0.0008055265000000002,-0.0014001718000000002,7.054,0,0
-0.0020964242000000004,-0.0010917627999999999,0.0034380240000000005,-0.0008220665,-0.0011361588000000002,7.055,0,0
-0.0017697876,-0.0006568288000000001,0.004845656,-0.0004803325,-0.0010285206,7.056,0,0
1.1826399999999965e-05,0.0007624352000000001,0.005669974,0.0003491655,-0.001081884,7.057,0,0
0.0010853984000000001,0.0010776274,0.004475354,0.0003661952,-0.0004755156,7.058,0,0
0.0011153302000000002,0.0006780016,0.0025076200000000003,0.0006050233999999999,0.0001690364,7.059,0,0
0.0020004166000000003,0.0011457782000000001,0.0016289820000000002,0.0010487936,-1.0300599999999967e-05,7.06,0,0
0.003023702,0.0014097562000000001,0.0013627864,0.0007892455999999999,-0.0005393246,7.061,0,0
0.002843964,0.0006911606,0.0013181033999999999,2.5537599999999943e-05,-0.0006732316,7.062,0,0
0.0027540600000000004,0.0004998324,0.0010997454200000001,-5.237720000000003e-05,-0.001180068,7.063,0,0
0.0026419478000000007,0.0003846042,0.0006452416200000001,-9.728140000000001e-05,-0.00190686,7.064,0,0
0.0012208238,-0.0012013718000000002,0.00012565842000000004,-0.0007570974,-0.0017682688000000002,7.065,0,0
-0.00033461220000000004,-0.0027077258000000005,-0.00045455598000000003,-0.0004553012,-0.0011467342,7.066,0,0
-0.0013780402000000001,-0.0032290042000000002,-0.00091262098,0.00011780080000000002,-0.0006845168000000001,7.067,0,0
-0.0028967702,-0.003695594,-0.001227315,0.0001714948,-0.00010766279999999996,7.068,0,0
-0.004234272000000001,-0.004027582,-0.0014704392,0.00014324680000000003,0.00038231500000000004,7.069,0,0
-0.004472956,-0.002590111,-0.001584032,0.0006556628000000001,0.00047719340000000013,7.07,0,0
-0.00458036,-0.000603529,-0.001599546,0.0008751546000000002,0.0004468192,7.071,0,0
-0.004705764,1.3573000000000041e-05,-0.001756282,0.000677255,0.0007105118000000001,7.072,0,0
-0.0035014300000000003,0.001263779,-0.0018195239999999999,0.0008752662,0.0010828278,7.073,0,0
-0.001593392,0.0028077989999999997,-0.0017018326,0.000808806,0.0011399173999999998,7.074,0,0
-0.0004306580000000001,0.0028288280000000002,-0.0012352061999999998,0.000408672,0.0014108977999999998,7.075,0,0
0.000763528,0.002982488,-0.0004870101999999999,7.9654e-05,0.0017266273999999998,7.076,0,0
0.002666298,0.0039496340000000005,9.802720000000006e-05,-8.571740000000002e-05,0.0018405134,7.077,0,0
0.0038950020000000003,0.0038407860000000005,0.000282135,-0.00043061200000000003,0.0020359254,7.078,0,0
0.00362391,0.0027750870000000003,-1.8563999999999777e-06,-0.00047785820000000007,0.002422486,7.079,0,0
0.0034908498,0.002341197,-0.000344722,-0.00021034960000000002,0.002646746,7.08,0,0
0.0032105662000000003,0.0012050350000000001,-0.00040630800000000003,-0.00035105179999999996,0.002484808,7.081,0,0
0.0013839242,-0.0014195530000000003,-0.00022781339999999997,-0.0003021282,0.0018038764000000002,7.082,0,0
-0.0006523398000000001,-0.0029957150000000004,0.00018372079999999998,9.535119999999999e-05,0.0008014804000000001,7.083,0,0
-0.0018903178000000001,-0.0031930640000000002,0.0011127948000000001,7.096719999999997e-05,0.0002458800000000001,7.084,0,0
-0.0032357876,-0.0036179320000000004,0.0022704440000000004,2.295439999999999e-05,-2.432080000000004e-05,7.085,0,0
-0.004366134000000001,-0.0034253244,0.0025494500000000004,0.0005407906,-0.00012659700000000005,7.086,0,0
-0.0037949144,-0.0016161964000000004,0.0016092600000000004,0.000937546,-0.0001601816,7.087,0,0
-0.0028678396000000003,-0.0003995104,0.0004949860000000001,0.0008901888000000001,-0.0003515596,7.088,0,0
-0.0023388796,0.0003110156,-0.0007256079999999999,0.0010112604,-0.000305796,7.089,0,0
-0.0006763136,0.0021863356000000004,-0.0022744420000000002,0.0011830626000000001,-0.00044710144,7.09,0,0
0.0011156424000000002,0.0031979120000000007,-0.003074822,0.0007178874,-0.00099899924,7.091,0,0
0.0017043728000000003,0.00313814,-0.0025849030000000004,0.00012163739999999999,-0.00106635704,7.092,0,0
0.0025903820000000004,0.0036826800000000002,-0.0009885729999999998,-8.426140000000001e-05,-0.00091881704,7.093,0,0
0.0040963580000000005,0.003924274,0.001204243,-0.0001747452,-0.00104815804,7.094,0,0
0.0049183280000000005,0.0027925352,0.002825873,-0.0005316188,-0.0010593703,7.095,0,0
0.005105292000000001,0.0018514768000000004,0.0033769010000000003,-0.0007586536,-0.0004946579,7.096,0,0
0.005152840000000001,0.0016530138000000003,0.0035676746,-0.0007384816,4.086010000000007e-05,7.097,0,0
0.004176625800000001,0.00016480979999999998,0.0028560046000000003,-0.0009879536000000002,0.0002922201000000001,7.098,0,0
0.0020104618,-0.0020597182000000004,0.0009946186,-0.0012513636000000001,0.0005630225,7.099,0,0
-4.812020000000009e-05,-0.0030988574000000006,-0.000249799,-0.001379414,0.0008082650000000002,7.1,0,0
-0.0019270722,-0.004101705000000001,-0.0005242790800000001,-0.001268774,0.0009448506000000001,7.101,0,0
-0.0040369942,-0.005605912000000001,-0.00045902308000000014,-0.0011588074000000001,0.0007070070000000001,7.102,0,0
-0.005171106,-0.005499512000000001,-0.00024467308000000005,-0.0005553674,0.0006032934,7.103,0,0
-0.004534986,-0.0039640785999999996,-0.0002763470800000001,0.0002259966000000001,0.0003928918000000001,7.104,0,0
-0.004196756,-0.0032294726,-0.0003712714800000001,0.0005082302000000001,-3.6079800000000006e-05,7.105,0,0
-0.0037727760000000003,-0.0019419946,-0.0002971442000000001,0.0007677068000000001,-0.0005732658,7.106,0,0
-0.001823066,0.00046727740000000013,-0.0004979588,0.0007767732000000001,-0.0006990428,7.107,0,0
-0.00021760599999999985,0.0015451934,-0.000582297,0.00023087740000000002,-0.00023002919999999994,7.108,0,0
0.0002880532000000001,0.002397694,0.00011648699999999994,-0.0003789288,-0.0001414096,7.109,0,0
0.0013530712,0.004155588,0.000731331,-0.00015008239999999998,-0.00023827199999999998,7.11,0,0
0.0026547992000000003,0.0051030780000000005,0.0010642538,6.047499999999999e-05,-0.00013021839999999995,7.111,0,0
0.0024071898,0.004370764,0.0012899306,6.337080000000001e-05,2.7913200000000043e-05,7.112,0,0
0.0020772898,0.0036465418000000004,0.0013192294000000002,0.0005262346,-9.002279999999999e-05,7.113,0,0
0.0023290486,0.0029909002000000004,0.0014896774000000002,0.0011542028,0.0002841326,7.114,0,0
0.0013397686,0.0007988142000000003,0.0014836234,0.0011330548000000001,0.0009847766,7.115,0,0
-6.475139999999996e-05,-0.0014412798,0.0010121140000000002,0.0008687768000000001,0.0011375078,7.116,0,0
-0.0005511560000000001,-0.0024273778,0.00015369319999999995,0.0010750560000000002,0.0009898468,7.117,0,0
-0.0014630880000000002,-0.0032752676,-0.0010294574000000003,0.0007091582000000002,0.0005813886,7.118,0,0
-0.0028695820000000003,-0.004512664,-0.0023959354,-2.115979999999998e-05,-0.0001024054000000001,7.119,0,0
-0.0030905000000000004,-0.004220296,-0.0034908194,-0.00017919779999999997,-0.0007554934,7.12,0,0
-0.0024394930000000005,-0.002958672,-0.0036328292000000002,-0.00011927299999999997,-0.0010858642000000003,7.121,0,0
-0.0021982754,-0.0023121502,-0.0029129830600000003,-0.000427325,-0.0015993702000000002,7.122,0,0
-0.0012109834000000002,-0.0011495012,-0.0021798730600000003,-0.0002175208,-0.002414896,7.123,0,0
0.0008115726,0.0003993668,-0.0008191630600000001,0.00010862839999999998,-0.0028727040000000007,7.124,0,0
0.0018674526000000001,0.0012111048,0.0006052829400000001,-4.6338200000000017e-05,-0.0028749680000000003,7.125,0,0
0.0022137556,0.0018328868,0.0007707165400000001,-7.868730000000002e-05,-0.0027397080000000004,7.126,0,0
0.003024708,0.0031526850000000006,0.0006087364,-0.00016103730000000002,-0.0020882458,7.127,0,0
0.003422318,0.003970756000000001,7.023039999999993e-05,-0.0005795197,-0.0008155058000000001,7.128,0,0
0.0028614580000000003,0.003888982,-0.0016283756,-0.0010763109000000001,0.0004118082,7.129,0,0
0.00279894,0.0036263040000000003,-0.0032531056000000003,-0.0013668903,0.0012184162,7.13,0,0
0.0024072174000000003,0.002541658,-0.003600898,-0.0018180000000000002,0.0013622920000000002,7.131,0,0
0.0006260374000000002,0.00029843200000000017,-0.0038351020000000004,-0.0020928020000000004,0.0010518398,7.132,0,0
-0.0010570005999999998,-0.001669348,-0.002680524,-0.0019834920000000003,0.0008027112000000002,7.133,0,0
-0.0025047526,-0.0030380320000000004,0.001130484,-0.0015161662000000003,0.0007298932000000002,7.134,0,0
-0.0043139486,-0.004464742000000001,0.0041755,-0.0009184762000000002,0.0007056272,7.135,0,0
-0.005500046,-0.0049429240000000004,0.005124102,0.00022442780000000008,0.00079165792,7.136,0,0
-0.004987382,-0.004320392,0.005589325799999999,0.0017363518000000004,0.00103616852,7.137,0,0
-0.004173972400000001,-0.0035213948,0.004750205799999999,0.0023256498000000007,0.0013224091199999998,7.138,0,0
-0.0035868083999999996,-0.0025430348000000003,0.0018195097999999998,0.0025579800000000005,0.00116122912,7.139,0,0
-0.0017823943999999998,-0.0007205488000000002,-0.00018771499999999997,0.0027489020000000005,0.00044792491999999995,7.14,0,0
0.0002976035999999999,0.0011178212000000002,-0.000144555,0.002020232,0.0001922564,7.141,0,0
0.0015623476000000002,0.0022453992000000004,0.00019935719999999996,0.0009801304,0.00028868819999999996,7.142,0,0
0.00316152,0.0033590080000000006,0.0009594812000000002,0.0006874946000000001,0.00010040379999999998,7.143,0,0
0.00522771,0.004190426000000001,0.0019271452,0.00029482499999999997,3.826980000000001e-05,7.144,0,0
0.005914772,0.003997332,0.0019130968,-0.0002806894,0.00010238600000000003,7.145,0,0
0.005709718,0.003181082,0.0008342508,-0.00037796680000000004,2.346000000000005e-05,7.146,0,0
0.005727264,0.0026150092000000002,-7.49072e-05,-0.0006803852,-0.00035048839999999996,7.147,0,0
0.0043587724000000005,0.0012087572,-0.0005904432,-0.0011046934,-0.000558164,7.148,0,0
0.0021362964,-0.0007963748000000001,-0.0012771266,-0.0009884468,-0.000665274,7.149,0,0
0.0007023543999999999,-0.0017855408000000002,-0.0015576434,-0.0008472924,-0.000930354,7.15,0,0
-0.0006693376,-0.0025681288,-0.0015309654,-0.0009608749999999999,-0.0007418608,7.151,0,0
-0.0027877836,-0.003960130000000001,-0.0015685774,-0.0007572970000000001,-0.00043178,7.152,0,0
-0.004081948,-0.004447998,-0.0017443974,-0.0005583318000000001,-0.00066855,7.153,0,0
-0.004115022,-0.003670338,-0.0019944180000000004,-0.0008294188,-0.0011783,7.154,0,0
-0.004683432,-0.0037979479999999998,-0.0021552620000000002,-0.0008855932,-0.001067428,7.155,0,0
-0.00483046,-0.0038884260000000004,-0.002230938,-0.0005679114,-0.0007786800000000001,7.156,0,0
-0.003605707800000001,-0.0026225724000000007,-0.0017734574000000001,-0.0004500734,-0.0006691830000000002,7.157,0,0
-0.0026568858,-0.001489476,-0.0012393074,-0.0005599026000000001,-5.975100000000003e-05,7.158,0,0
-0.0022984518000000002,-0.0004796439999999999,-0.0010151957999999998,-0.00028254120000000005,0.0006247730000000001,7.159,0,0
-0.0009949518,0.0016911600000000001,-0.0003400018,0.00018880519999999994,0.0009628478,7.16,0,0
0.0005391302000000001,0.003775336,0.0007090302,0.00018645939999999999,0.0009053298,7.161,0,0
0.001290156,0.004660856400000001,0.0013245396,0.0004025262,0.0004722500000000002,7.162,0,0
0.002539238,0.005828234000000001,0.0018438256,0.0011366362,-5.5143999999999945e-05,7.163,0,0
0.004014954,0.006511102,0.002576798,0.0009631759999999999,-0.00020003639999999998,7.164,0,0
0.004079488000000001,0.0053166920000000005,0.002573082,8.363999999999963e-06,0.00020261880000000006,7.165,0,0
0.0032716734000000003,0.0038338556000000004,0.0018811051999999997,-3.986380000000001e-05,0.0005164636000000001,7.166,0,0
0.0025623252000000003,0.00289428616,0.0010106952,-3.9343599999999994e-05,0.0007380486,7.167,0,0
0.0008945932000000002,0.0008069761599999998,0.0001673551999999999,-0.0007238686,0.0010373312000000001,7.168,0,0
-0.0013641308000000001,-0.00174242984,-0.0007572508000000001,-0.00034141980000000003,0.0007703452000000001,7.169,0,0
-0.0022790068000000004,-0.0027720338400000002,-0.0015176088,0.0008906462,7.78152e-05,7.17,0,0
-0.0024577982,-0.00355254544,-0.0014520644,0.0010123040000000001,-0.000329764004,7.171,0,0
-0.0032497,-0.004841342,-0.0012094255999999999,0.0008926490000000001,-0.00034354680400000006,7.172,0,0
-0.0031787,-0.004880684,-0.0012143616000000002,0.0012266006,-0.000218736204,7.173,0,0
-0.0022476158000000004,-0.003699822,-0.0009220062,0.0009152524000000001,-0.000182696804,7.174,0,0
-0.0021059398,-0.0028995222,-0.00033242160000000005,0.0002731986,-0.000101044004,7.175,0,0
-0.0015517538,-0.0016557722000000005,-5.6979400000000026e-05,0.00021835059999999998,8.541720000000003e-05,7.176,0,0
0.0004513942,0.0005298837999999999,0.00034245179999999997,0.0005135326,0.00010408100000000005,7.177,0,0
0.0023160461999999996,0.0023058278,0.0009929538,0.0002792588,-1.590719999999997e-05,7.178,0,0
0.0030521299999999997,0.0035059238000000005,0.0013713004,-0.00015137500000000003,0.0002490312,7.179,0,0
0.003987168,0.004413582,0.0016638858,-0.0005422492,0.0006081284,7.18,0,0
0.004697412,0.00455006,0.001787378,-0.0012132532000000001,0.0007273564,7.181,0,0
0.003892982,0.0037610824,0.0016705900000000002,-0.0019181212000000001,0.0010745924,7.182,0,0
0.0026968026,0.0025805824,0.0015225500000000003,-0.0017140522,0.0009810402000000001,7.183,0,0
0.0018264128000000002,0.0012086644,0.0010417212,-0.0010494576,0.00046951280000000006,7.184,0,0
0.00034773680000000035,-0.0005550456,-0.00017047280000000002,-0.0005981562,0.0003630558000000001,7.185,0,0
-0.0014281352000000001,-0.0021713096,-0.0013033188000000002,0.0004962657999999999,0.00022474820000000002,7.186,0,0
-0.0023610672,-0.003016838,-0.0019469448000000002,0.0014346158,-0.00019474260000000001,7.187,0,0
-0.0032502758000000002,-0.003476106,-0.0028918268000000004,0.0015693740000000001,-0.0001606092,7.188,0,0
-0.0037504980000000005,-0.0038489980000000006,-0.0035095580000000003,0.0018084414,0.00014064260000000003,7.189,0,0
-0.00269417,-0.003272408,-0.0025536538,0.0022032640000000004,-0.0003072184,7.19,0,0
-0.0015832640000000002,-0.001851612,-0.0010411298,0.00168910582,-0.0006602120000000001,7.191,0,0
-0.0009113043800000003,-0.0008995720000000003,-0.00022195979999999993,0.0009236618200000003,-0.0003634154,7.192,0,0
0.00050048362,0.00044754999999999996,0.0003589566000000002,0.0004502438200000002,-0.00040728359999999997,7.193,0,0
0.0024096256200000004,0.0024854200000000003,0.0009086588,-0.0006153481799999999,-0.00038553639999999994,7.194,0,0
0.00346772162,0.0036355880000000004,0.0010317526000000001,-0.00163678818,0.0002315616,7.195,0,0
0.00391660162,0.003970638,0.0007482786,-0.0017849522,0.00042055790000000004,7.196,0,0
0.0048001499999999996,0.004444702,0.0007838586,-0.0015840575999999998,0.0002677469,7.197,0,0
0.004446395999999999,0.0035924886000000007,0.0015535182,-0.0017108496,0.0007027909000000001,7.198,0,0
0.00258549,0.0011464646,0.002093708,-0.0012487672,0.0011673659,7.199,0,0
0.0011081187999999998,-0.0003789733999999998,0.0018968738,-0.0007358034,0.0010805819,7.2,0,0
-0.0002481992000000001,-0.0016366054000000003,0.0016410399999999999,-0.0010453571999999999,0.0012479136,7.201,0,0
-0.0025217112000000003,-0.0036886574000000003,0.0010806366,-0.0010638078000000002,0.0016515408000000002,7.202,0,0
-0.0042918652,-0.004831316,0.00017443860000000003,-0.0003692718,0.0014534168,7.203,0,0
-0.0047991592,-0.0044415620000000005,-0.00028982119999999996,0.00019906380000000003,0.00103086934,7.204,0,0
-0.005610388,-0.004666914,-0.000837803,0.0005374780000000001,0.0010149499400000002,7.205,0,0
-0.006076604,-0.004817254,-0.0014511832,0.0012657880000000001,0.0008605815600000001,7.206,0,0
-0.00506345,-0.0029244540000000004,-0.0014389008000000002,0.0013838818000000003,-0.0001719944400000001,7.207,0,0
-0.0034000519999999998,-0.0012481380000000002,-0.0013896054,0.0010135968000000001,-0.00098605644,7.208,0,0
-0.001952536,-0.0003192800000000001,-0.0012876016000000002,0.0006601800000000001,-0.0013546069800000002,7.209,0,0
-3.1871999999999955e-05,0.0016434720000000002,-0.0006242644,0.0001615506,-0.00208283158,7.21,0,0
0.002312824,0.00361986,9.323160000000008e-05,-0.0001624702,-0.00245828,7.211,0,0
0.0036482080000000004,0.004292758000000001,0.0006087406000000001,-0.0003204236,-0.002242626,7.212,0,0
0.0042636620000000005,0.005164322000000001,0.0012170612,-0.00023806020000000002,-0.002067634,7.213,0,0
0.004936294,0.0061096860000000005,0.0013639978,-0.00017879780000000002,-0.0019838020000000002,7.214,0,0
0.004294662,0.005190634,0.0010049596000000001,-0.0002453644,-0.0012854218000000002,7.215,0,0
0.002297734,0.0033311520000000004,0.0006797942,-0.00021579360000000003,-0.0003866617999999999,7.216,0,0
0.0008026960000000001,0.0016634980000000002,0.0001659304000000001,-4.991260000000002e-05,0.00015540560000000005,7.217,0,0
-0.000701456,-0.0005143160000000001,-0.0003478146,1.244979999999999e-05,0.0008725216000000001,7.218,0,0
-0.002907616,-0.002865236,-0.0006939372,0.0002660062,0.0013955716,7.219,0,0
-0.004086988,-0.0038287,-0.0007898622000000001,0.0007203922000000001,0.001084513,7.22,0,0
-0.003951944000000001,-0.003849254,-0.0006347464,0.0006795304,0.00036222260000000003,7.221,0,0
-0.00430674,-0.004248916,-0.0006479748,0.0004861026000000002,-6.016280000000008e-05,7.222,0,0
-0.0038153980000000002,-0.0034313966,-0.0006567560000000001,0.00034646540000000004,-0.0005107394000000001,7.223,0,0
-0.00199311,-0.0014279566,-0.00035606700000000006,-0.000130899,-0.0009288240000000002,7.224,0,0
-0.0007339339999999999,-0.0003462226000000001,-0.0001506694,-0.000689003,-0.0010747916,7.225,0,0
0.0005156420000000002,0.0007735313999999999,-0.00030216039999999997,-0.0006228678600000001,-0.0012367532,7.226,0,0
0.0027341580000000004,0.0026721313999999996,0.00012783780000000006,-0.00015433146000000007,-0.0012809092000000003,7.227,0,0
0.004535122,0.0037139499999999993,0.000917136,-0.00010023586000000001,-0.0013670046,7.228,0,0
0.005038248,0.0038970059999999997,0.0012764170000000002,-0.00010503425999999999,-0.0012586012,7.229,0,0
0.0057699280000000006,0.004638768,0.0016094154,0.00021870274,-0.0009478610000000001,7.23,0,0
0.005915128000000001,0.004716461999999999,0.001678032,0.00027401939999999994,-0.00058501242,7.231,0,0
0.004359212,0.0031384839999999995,0.0012269073999999999,4.4081399999999974e-05,-3.0642000000004983e-07,7.232,0,0
0.002550186,0.0014014339999999996,0.0007298090000000001,0.0002005636,0.00045922358,7.233,0,0
0.0012292360000000005,-0.000294158,0.000685045,0.000383221,0.00045088278,7.234,0,0
-0.000641782,-0.002910676,0.00040827100000000004,0.00045037300000000006,0.00011520657999999998,7.235,0,0
-0.002666974,-0.00511832,-0.00037909500000000003,0.000619953,-0.000313546,7.236,0,0
-0.0034406439999999996,-0.0051053900000000004,-0.0006355724000000001,0.0006165900000000001,-0.0007346978,7.237,0,0
-0.004053312,-0.004552182,-0.001175602,0.00039157220000000004,-0.0007356238000000001,7.238,0,0
-0.004772924,-0.0046499620000000005,-0.0030364080000000004,0.000267608,-0.00019564780000000008,7.239,0,0
-0.004221259999999999,-0.0032018490000000005,-0.003967052,0.000225233,0.0005379962000000001,7.24,0,0
-0.0030204038,-0.0010584589999999999,-0.002951136,-9.827100000000001e-05,0.0013003862,7.241,0,0
-0.0022690098000000005,-0.00019081499999999994,-0.002273394,-0.00016259640000000001,0.001620581,7.242,0,0
-0.0008178837999999999,0.001230757,-0.001513732,-7.700980000000001e-05,0.0013159504,7.243,0,0
0.0011523202000000001,0.003504239,0.0005362580000000002,1.2169159999999998e-05,0.0011407424000000003,7.244,0,0
0.0021507042000000003,0.004613148,0.0021285979999999998,2.9219239999999996e-05,0.0012084144,7.245,0,0
0.002764092,0.004564294,0.002690134,1.7014400000000065e-06,0.0011989904,7.246,0,0
0.0037323720000000003,0.004492012,0.003109298,0.00014493864,0.0010721726,7.247,0,0
0.00359427,0.0030979879999999994,0.003125772,0.00020914784000000003,0.0013153274,7.248,0,0
0.0020806,0.000643408,0.0026656882,0.0003183942800000001,0.0017253254,7.249,0,0
0.00107659,-0.001184294,0.0020098322,0.00042500040000000006,0.0015548934,7.25,0,0
-5.132200000000002e-05,-0.003054376,0.0010085962000000001,0.0004334254,0.0014588414,7.251,0,0
-0.0020592500000000003,-0.005187982,-0.0006851597999999999,2.7262600000000026e-05,0.0017366182,7.252,0,0
-0.003323686,-0.006391882000000001,-0.0029207278,-0.0003578328,0.001294386,7.253,0,0
-0.003033526,-0.006035954,-0.005056988,-0.000655032,-7.067e-05,7.254,0,0
-0.003145756,-0.005535892000000001,-0.006491244,-0.000889163,-0.001059548,7.255,0,0
-0.003220814,-0.0043650742,-0.006795752,-0.0006394592,-0.0018343320000000001,7.256,0,0
-0.001562808,-0.0015189442,-0.0062435400000000005,-0.0002198072,-0.0025651360000000004,7.257,0,0
-0.0001728919999999999,0.0008041678000000001,-0.003529712000000001,0.00016394199999999998,-0.002227272,7.258,0,0
0.0004936879999999999,0.0019573298,0.0010588280000000004,0.00035366548,-0.0013337160000000002,7.259,0,0
0.002051486,0.0037139358,0.0041506320000000005,0.00039401328000000004,-0.0007605343999999999,7.26,0,0
0.0041062040000000005,0.005288482000000001,0.005629246,0.00033270288,-0.0002523084,7.261,0,0
0.004734428000000001,0.005201334000000001,0.006663156,0.00010435248,0.00011045039999999995,7.262,0,0
0.00469847,0.005133876,0.006021644,-3.896199999999866e-07,-0.00020866760000000001,7.263,0,0
0.004860676,0.005048676,0.003692124,5.769240000000007e-06,-0.0007936036,7.264,0,0
0.0038393960000000006,0.0033145500000000003,0.002030336,-0.00035957176000000004,-0.0010456392000000002,7.265,0,0
0.0018973320000000003,0.0012384420000000002,0.0011827384,-0.00062513836,-0.0011663544000000002,7.266,0,0
0.00011967599999999998,2.076599999999997e-05,0.0006123484,-0.0008185679599999999,-0.0010179249999999998,7.267,0,0
-0.001586252,-0.0014744040000000001,0.00029113860000000007,-0.0014900470600000002,-0.0005513170000000001,7.268,0,0
-0.0036829160000000005,-0.0030101480000000007,-0.0005065194,-0.0016964706,-0.00029789800000000005,7.269,0,0
-0.005135832,-0.0033434880000000004,-0.0012952294,-0.001176551,-0.00024096600000000004,7.27,0,0
-0.0054443980000000005,-0.003305942,-0.0020874238,-0.001204891,-0.00044614880000000005,7.271,0,0
-0.005582924,-0.003860398,-0.0024605918,-0.001180291,-0.0004649846000000001,7.272,0,0
-0.0048633240000000005,-0.0036481600000000006,-0.002003454,-0.00048610000000000005,-2.959259999999993e-05,7.273,0,0
-0.002848384,-0.002131726,-0.001171828,-0.00046593380000000003,0.00040088840000000004,7.274,0,0
-0.0013809059999999999,-0.0011559540000000003,0.00022289800000000007,-0.0007056578,0.0011025524,7.275,0,0
-0.0003844559999999998,-5.496000000000125e-06,0.002007442,-0.0002901358,0.0018092284,7.276,0,0
0.0014838540000000002,0.00252728,0.002844126,0.00021058220000000002,0.0018836526000000002,7.277,0,0
0.0031898280000000005,0.004630106,0.001937246,0.00039657920000000005,0.0017498326,7.278,0,0
0.003947576,0.005209914,0.0009563420000000002,0.0009682956000000001,0.0017405646,7.279,0,0
0.004748682000000001,0.00588992,0.00023991240000000009,0.001767106,0.0015878206,7.28,0,0
0.005203538000000001,0.006236434,-0.0007902466,0.0018268100000000001,0.0017002746,7.281,0,0
0.0041035028000000005,0.003897396,-0.0011114336,0.0013413958000000003,0.0019403220000000002,7.282,0,0
0.002349958800000001,0.001071404,-0.0003024276,0.0011256755095,0.0017895520000000002,7.283,0,0
0.0006889548000000001,-0.000980746,0.0007308724,0.0008993387095000002,0.0015350426000000001,7.284,0,0
-0.0014560112000000002,-0.003927594,0.0010366042,0.0002690378295,0.0011790150000000003,7.285,0,0
-0.0035867312,-0.006407576,0.0007429972,0.00039396182950000006,0.000608537,7.286,0,0
-0.004449492,-0.00668939,0.00040661720000000014,0.0009353120295000001,-1.4619000000000004e-05,7.287,0,0
-0.004821728,-0.0062232960000000006,-8.130819999999995e-05,0.0007373699200000002,-0.0005814710000000001,7.288,0,0
-0.00537284,-0.005750944,-0.0007374422000000001,0.0004406079200000002,-0.0009892536,7.289,0,0
-0.004485046,-0.0037807068,-0.0008989568000000001,0.00041067080000000013,-0.0016519500000000001,7.29,0,0
-0.002501886,-0.0014745128000000001,-0.0006669665800000001,-0.00015061239999999997,-0.002430288,7.291,0,0
-0.0010961760000000001,0.00015578320000000012,-0.0007087775800000001,-0.0008175684,-0.0025007180000000003,7.292,0,0
0.00050032,0.0019759452,-0.0008387441800000001,-0.0008791660000000001,-0.0026100140000000003,7.293,0,0
0.0028094620000000004,0.0034294312,-0.0007366561800000001,-0.0008786514000000001,-0.00267573,7.294,0,0
0.004244646,0.0038281620000000004,-0.00090064838,-0.0009583638000000001,-0.0018707008000000002,7.295,0,0
0.004683334,0.0035770619999999998,-0.0010230670000000001,-0.0009095758000000001,-0.0007654748,7.296,0,0
0.005257096000000001,0.003186102,-0.000800045,-0.000679791,-2.8098799999999894e-05,7.297,0,0
0.004878482,0.0019462180000000004,-0.00047408348,-0.0006945390000000001,0.0006405732,7.298,0,0
0.002796444,0.00030225399999999996,-4.789747999999996e-05,-0.0004507818000000001,0.0014151492,7.299,0,0
0.0005111499999999995,-0.0009403060000000001,0.00026456012,0.00017018060000000002,0.001669932,7.3,0,0
-0.0014682140000000002,-0.002164008,0.00062193652,0.00021710520000000008,0.0016263726,7.301,0,0
-0.0037596240000000005,-0.0034972659999999997,0.00077534472,-2.002359999999997e-05,0.0016004746,7.302,0,0
-0.005642014000000001,-0.004427772,0.0003137852000000001,0.00027314662,0.0014995886,7.303,0,0
-0.005797252000000001,-0.00392313,-0.0005006968000000001,0.0005760496200000002,0.0012050252,7.304,0,0
-0.005265082,-0.0030436555999999995,-0.0011147738000000002,-2.108980000000015e-06,0.0008487894,7.305,0,0
-0.0049688860000000005,-0.0021827788,-0.0014018486,-3.790117999999999e-05,0.00017647279999999995,7.306,0,0
-0.0033403879999999997,6.0957200000000007e-05,-0.0012745708,0.0005938808200000001,-0.0009227652000000002,7.307,0,0
-0.0008633639999999999,0.0024915972,-0.0007680088000000001,0.0003883692,-0.0015413032000000002,7.308,0,0
0.0009256340000000002,0.0036915452,-0.0003805728,1.0342199999999963e-05,-0.0019095978000000001,7.309,0,0
0.003132656,0.005059334800000001,-2.4350999999999984e-05,0.0005159728,-0.002322056,7.31,0,0
0.005877490000000001,0.006510816000000001,0.00018424100000000005,0.0007016864000000001,-0.0021904140000000003,7.311,0,0
0.007163186,0.006271154,-0.00011429319999999994,0.0004256550000000001,-0.0014936884,7.312,0,0
0.007575256000000001,0.00572427,-0.000252216,0.0008230884000000002,-0.0007527164,7.313,0,0
0.007700784000000001,0.005619608,0.0003589260000000001,0.0007166500000000002,-0.00022755639999999996,7.314,0,0
0.005808590000000001,0.003846498,0.0007444182000000001,9.662240000000001e-05,0.00044931560000000003,7.315,0,0
0.002812032,0.0012499000000000006,0.0004969418,-7.600319999999998e-05,0.0009027932000000001,7.316,0,0
0.00045346799999999984,-0.0006959959999999999,0.0006798888,-0.0004249678,0.0008677732,7.317,0,0
-0.002229214,-0.0032227840000000002,0.0009256900000000001,-0.0009826718000000001,0.0006600197999999999,7.318,0,0
-0.005227163999999999,-0.005744782,0.00024025599999999994,-0.0008131724000000001,0.00043171098000000007,7.319,0,0
-0.00652623,-0.006602158000000001,-0.0006846620000000002,-0.00041325880000000006,0.00025666818000000003,7.32,0,0
-0.006614782,-0.006425734000000001,-0.0009159488,-0.00045370680000000007,-2.666802000000001e-05,7.321,0,0
-0.00672719,-0.006015118000000001,-0.0011103598,-0.00026603779999999995,-0.00024019962,7.322,0,0
-0.005523531,-0.0044335972,-0.0015555922000000002,0.0004375602,-0.00046689642,7.323,0,0
-0.002912333,-0.0022727072,-0.0012548957200000002,0.0007013202,-0.0006660498,7.324,0,0
-0.0005835309999999999,-0.0006282172000000003,-0.00035475772000000003,0.0004608122000000001,-0.001106563,7.325,0,0
0.001375857,0.0012357468,0.00024489427999999997,0.0009282310000000001,-0.0014648624,7.326,0,0
0.0036609450000000005,0.0034943488000000003,0.00052655448,0.001295612,-0.00121837348,7.327,0,0
0.005378318,0.005057786000000001,0.00098050648,0.000831385,-0.00099880168,7.328,0,0
0.005826548000000001,0.005193388,0.00139716,0.0005525644000000001,-0.00080237718,7.329,0,0
0.0059828780000000005,0.00520081,0.001722674,0.0005394834000000001,-0.00038673951999999997,7.33,0,0
0.005756318,0.0046620540000000005,0.001847404,-0.00010264460000000003,8.527227999999999e-05,7.331,0,0
0.00402621,0.00243393,0.0015628776000000003,-0.0008314246000000001,0.00021931536,7.332,0,0
0.0015825300000000004,0.000290742,0.0014851160000000003,-0.0008436422,0.00034386376,7.333,0,0
-0.00010008599999999999,-0.0011756840000000002,0.0012725000000000002,-0.0009805114,0.00058150146,7.334,0,0
-0.002027592,-0.0031363280000000003,0.000437434,-0.0011283536000000001,0.0007674200000000001,7.335,0,0
-0.00423468,-0.004621618,-0.000669696,-0.000852511,0.0010909742,7.336,0,0
-0.004781692000000001,-0.00446471,-0.0011795196000000002,-0.000641565,0.0010502122,7.337,0,0
-0.004624598,-0.004242812,-0.0012278706000000003,-0.00068443,0.0006733242,7.338,0,0
-0.004882190000000001,-0.004038364,-0.0015129548000000002,-0.0007213276000000001,0.00023321559999999998,7.339,0,0
-0.0037647694000000004,-0.0024807148000000005,-0.0012916888,-0.000390421,-0.00039960860000000007,7.34,0,0
-0.0016342274000000002,-0.0007735588,-0.0005116964,-0.000187916,-0.0008339296000000002,7.341,0,0
-0.0004274354000000002,0.00016063319999999983,9.758580000000002e-05,-6.125179999999999e-05,-0.0006583576,7.342,0,0
0.0013726726000000001,0.0015279152,0.00020450320000000004,0.0004300338000000001,-0.00039503399999999995,7.343,0,0
0.0040777746,0.0033599392000000002,0.000415779,0.000478984,-0.00011430860000000002,7.344,0,0
0.005247758,0.00433929,0.000902721,-0.00011402739999999997,0.0006013974000000001,7.345,0,0
0.005343748,0.0042814640000000004,0.0014779106,-0.0001697766,0.0011741544,7.346,0,0
0.005868268,0.004178754,0.0020627904000000002,9.609740000000004e-05,0.0011574324,7.347,0,0
0.005142598,0.0033471952000000004,0.0013519456,-0.00038283420000000004,0.0011557612,7.348,0,0
0.002834122,0.0010644752000000003,-0.0001879919999999999,-0.000562189,0.0014894864,7.349,0,0
0.00093968,-0.0007903447999999998,-0.0016159039999999998,-6.29824e-05,0.0015232864,7.35,0,0
-0.001236784,-0.0022803288,-0.003446476,5.635119999999999e-05,0.0015505904,7.351,0,0
-0.004275198000000001,-0.0043948948,-0.00525957,7.689099999999999e-05,0.0018731624,7.352,0,0
-0.0064387360000000005,-0.0057157860000000005,-0.005179556,0.0004696606,0.00207987,7.353,0,0
-0.00702947,-0.005341626,-0.00250959,0.0009139046,0.0020215800000000003,7.354,0,0
-0.007317346000000001,-0.005064772,0.0004949800000000003,0.000932851,0.0018764580000000001,7.355,0,0
-0.006936708000000001,-0.0047566940000000005,0.0025020440000000006,0.0006650429999999999,0.0014793162000000001,7.356,0,0
-0.0046274194,-0.0024147540000000003,0.0038674506000000008,0.0004817189999999999,0.0008210330000000001,7.357,0,0
-0.0023442054000000004,-5.46940000000001e-05,0.004315930000000001,-4.5583e-05,0.00020700500000000001,7.358,0,0
-0.0010863894,0.0014411740000000001,0.0029179664000000003,-0.0009331790000000001,-0.000779839,7.359,0,0
0.0008812906000000001,0.003630886,0.0009311596000000001,-0.0013885,-0.0014783550000000002,7.36,0,0
0.0031545366000000005,0.005873934,0.0004286956,-0.0015693340000000001,-0.0016365336000000003,7.361,0,0
0.004267854000000001,0.006223118000000001,0.0006571050000000001,-0.00205739,-0.0017398342000000003,7.362,0,0
0.005102478000000001,0.00568042,0.0011441436,-0.0022140040000000003,-0.0018045282000000002,7.363,0,0
0.005932096000000001,0.005598146,0.0015994712,-0.0021796719999999997,-0.0015244842,7.364,0,0
0.005304062,0.00393958,0.001633164,-0.002734562,-0.0014035262,7.365,0,0
0.0035728240000000005,0.0015441440000000003,0.001603882,-0.002997978,-0.0019954438,7.366,0,0
0.001634954,0.00014302000000000005,0.001368239,-0.0026232148000000003,-0.0025518620000000002,7.367,0,0
-0.0004261280000000002,-0.001227908,0.0008683666000000001,-0.0023345876,-0.0029706760000000002,7.368,0,0
-0.0028367960000000004,-0.0032849100000000003,0.00026384860000000005,-0.0015342040000000002,-0.003152654,7.369,0,0
-0.004663016,-0.004258386,-0.0003145774,-2.367000000000005e-05,-0.0031532480000000004,7.37,0,0
-0.0048123540000000005,-0.00389653,-0.0010439614,0.0015068479999999999,-0.002997928,7.371,0,0
-0.0051152440000000006,-0.004249318,-0.0018812664,0.0030840328000000003,-0.0023186492,7.372,0,0
-0.005136696,-0.0037164740000000004,-0.002541382,0.0047187116,-0.0011859912,7.373,0,0
-0.0033356460000000003,-0.001658034,-0.0027843000000000004,0.0060597080000000005,-0.00012419319999999994,7.374,0,0
-0.0018048912,-0.00015307000000000005,-0.0027750300000000004,0.006752468000000001,0.0011835968000000001,7.375,0,0
-0.0008653432000000001,0.000998236,-0.0024992378,0.006959051999999999,0.0028778708,7.376,0,0
0.0012859248,0.0029616060000000003,-0.0015953178,0.006702124,0.004187934000000001,7.377,0,0
0.0032057768,0.004060864000000001,-0.0007901638,0.0060029820000000005,0.00535169,7.378,0,0
0.0032731068000000003,0.0035064682000000005,-0.00010593160000000004,0.0053095320000000005,0.006582746,7.379,0,0
0.003093884,0.0031815722,0.0006305084,0.004672724,0.007680889999999999,7.38,0,0
0.002385856,0.0023429472000000002,0.0008379392,0.0035235516,0.008616478,7.381,0,0
0.00028657399999999994,8.091320000000002e-05,0.0006243736,0.0021029696000000003,0.009257994,7.382,0,0
-0.001534846,-0.0018824167999999999,0.0005440326800000001,0.0007120376000000001,0.008895232,7.383,0,0
-0.002372074,-0.003022845,0.00071523848,-0.0017449044,0.0065501579999999995,7.384,0,0
-0.002657598,-0.004547215,0.0005255656800000001,-0.0048584044,0.002217324,7.385,0,0
-0.0021354278,-0.00588121,0.00051438828,-0.007494746000000001,-0.003714876,7.386,0,0
-0.0004506537999999998,-0.0053984459999999995,0.00102060388,-0.009583512000000002,-0.010369026,7.387,0,0
0.0010530702000000002,-0.004190195,0.0009041346000000001,-0.010331752,-0.014885200000000001,7.388,0,0
0.0015174376000000002,-0.0032760358000000003,-1.8861400000000036e-05,-0.008776628400000002,-0.015621858,7.389,0,0
0.0022841736000000002,-0.0012468998000000004,-0.00039727260000000004,-0.005545842400000001,-0.01378878,7.39,0,0
0.0030008694000000003,0.0013479882000000003,-0.0006836082000000001,-0.0025097864000000005,-0.010241126,7.391,0,0
0.0027387594,0.0027866902,-0.0016519162,-8.04602000000001e-05,-0.005563342600000002,7.392,0,0
0.0027919834,0.0038989912,-0.0017716340000000002,0.0019337138,-0.0014239145999999999,7.393,0,0
0.003416476,0.0054085620000000004,-0.0011634654600000001,0.0027161822,0.0014653294000000002,7.394,0,0
0.0035716940000000003,0.005642506,-0.00076671926,0.0024896682000000005,0.0041681914,7.395,0,0
0.0037033699999999997,0.004977436,-0.00037260646,0.0025083202000000006,0.007091437400000001,7.396,0,0
0.004298336,0.004603976,0.0003325115400000001,0.003407612,0.009632994,7.397,0,0
0.0037960740000000004,0.0030609540000000003,0.0008255535400000001,0.004203148,0.011275726000000002,7.398,0,0
0.0017486020000000004,0.0002591459999999998,0.0007090638,0.004585568,0.01176802,7.399,0,0
-0.000555472,-0.002234196,0.0004813292,0.004841774,0.011002996000000001,7.4,0,0
-0.003023876,-0.004192304,0.00028774660000000006,0.003972022,0.008973404,7.401,0,0
-0.006261058000000001,-0.006330962000000001,-0.00020615340000000002,0.001751088,0.0054696580000000005,7.402,0,0
-0.00898635,-0.007351718,-0.0003976108,-0.000749282,0.0012644480000000003,7.403,0,0
-0.009535700000000001,-0.00621308,0.0001782544,-0.002785566,-0.002115848,7.404,0,0
-0.009191018,-0.004226426,0.0005973228,-0.004388854,-0.0047240220000000005,7.405,0,0
-0.008973308000000001,-0.0018379020000000006,0.0005202436,-0.00481583,-0.006788312,7.406,0,0
-0.007272210000000001,0.0016537919999999998,0.00017426759999999996,-0.005075296,-0.008430266,7.407,0,0
-0.0032159980000000007,0.005001444000000001,-6.473179999999995e-05,-0.006466400000000001,-0.009924396000000002,7.408,0,0
0.0029316819999999997,0.006625856,-0.00011652979999999993,-0.0077900520000000004,-0.010648880000000001,7.409,0,0
0.010822624,0.0075964360000000015,0.00032650220000000007,-0.008820456,-0.010797416,7.41,0,0
0.01766575,0.008198298000000001,0.0006891272000000002,-0.009615194,-0.010705696,7.411,0,0
0.021801472,0.006995088000000001,0.00017164520000000029,-0.009847146000000001,-0.009277466000000002,7.412,0,0
0.023642220000000002,0.004418844000000001,-0.0007227719999999998,-0.009142860000000001,-0.0068972600000000005,7.413,0,0
0.0219418,0.0015254320000000004,-0.002107998,-0.008298616,-0.005099768000000001,7.414,0,0
0.016029592000000002,-0.001951622,-0.003280584,-0.008328818,-0.0036206478000000005,7.415,0,0
0.009159228000000002,-0.0042242,-0.002708182,-0.008280672,-0.0021503056,7.416,0,0
0.003338928,-0.0050980719999999995,0.00023258000000000003,-0.006915952,-0.0011593096,7.417,0,0
-0.002695152,-0.006121583999999999,0.0038943720000000005,-0.0039431200000000005,-0.0004388496000000001,7.418,0,0
-0.008236732,-0.0067614580000000014,0.00572381,0.001707376,0.00047602440000000005,7.419,0,0
-0.013434124,-0.005476506000000001,0.005978966,0.011334152,0.0012355942,7.42,0,0
-0.0187485,-0.002475666,0.006271666,0.022422724,0.0017467700000000001,7.421,0,0
-0.02487334,-0.0005969360000000002,0.006680208,0.032132518,0.00243163,7.422,0,0
-0.03081996,0.001675274,0.0050937099999999996,0.038952600000000004,0.002801264,7.423,0,0
-0.03347,0.006506774,0.0029309200000000005,0.04028470000000001,0.002653496,7.424,0,0
-0.03254672,0.011740182,0.003594404,0.035672020000000006,0.0034553920000000003,7.425,0,0
-0.02803626,0.014344462,0.006173772000000001,0.028324960000000003,0.006046256000000001,7.426,0,0
-0.01730406,0.015795988,0.009040552,0.019184392,0.009465910000000001,7.427,0,0
-0.00159954,0.01732348,0.007331556,0.007930231999999999,0.012721290000000001,7.428,0,0
0.011281,0.013991608,0.0003909180000000005,-0.0026310480000000004,0.014804692000000001,7.429,0,0
0.0203993,0.006775668,-0.003729553999999999,-0.011861948,0.01455223,7.43,0,0
0.02857178,-0.0005260719999999998,-0.007200464,-0.021165188,0.012670956,7.431,0,0
0.03268734,-0.009078772,-0.017504684,-0.028121020000000004,0.010802162000000002,7.432,0,0
0.030983740000000003,-0.018162832,-0.02385137,-0.0287864,0.009568322,7.433,0,0
0.027546800000000003,-0.02365182,-0.01956483,-0.024099932,0.009766662000000002,7.434,0,0
0.024013012000000004,-0.02576962,-0.01806117,-0.01650279,0.011502672000000002,7.435,0,0
0.017245694,-0.026437580000000002,-0.019966778,-0.0077763799999999985,0.012400386000000001,7.436,0,0
0.007865494,-0.02258135,-0.015834186,4.573399999999975e-05,0.009700948000000003,7.437,0,0
-0.004702846,-0.01496919,-0.007791992,0.004348426000000001,0.0034772680000000012,7.438,0,0
-0.020264186000000003,-0.005899909999999999,0.0007157280000000005,0.002732956,-0.0050406520000000005,7.439,0,0
-0.032216738,0.005008610000000001,0.010269388,-0.003361526,-0.014541672000000002,7.44,0,0
-0.0400095,0.01488815,0.021109666,-0.011677656000000002,-0.022279952,7.441,0,0
-0.04578094,0.020104359999999998,0.03260985400000001,-0.01958959,-0.025517140000000004,7.442,0,0
-0.0435904,0.021310236,0.041741860000000006,-0.024755902000000003,-0.024001480000000002,7.443,0,0
-0.02932572,0.018902575999999997,0.04431514,-0.025716120000000002,-0.019540642,7.444,0,0
-0.006361399999999996,0.01103842,0.02933604,-0.021422286,-0.013577952,7.445,0,0
0.01793836,0.0015448800000000002,0.00048232000000000136,-0.013196852000000002,-0.0071632300000000005,7.446,0,0
0.0346937,-0.005121560000000001,-0.020777579999999997,-0.004047912000000002,-0.0016055739999999998,7.447,0,0
0.041288574,-0.010034196,-0.0310832864,0.0038013479999999995,0.0013300940000000002,7.448,0,0
0.038206512,-0.012296598,-0.0329026464,0.010760388,0.0017852120000000004,7.449,0,0
0.02577782,-0.010460562000000001,-0.0188429464,0.016027134,0.0015865139999999998,7.45,0,0
0.01286974,-0.007141794,0.004337993599999999,0.017980700000000002,0.0013268859999999998,7.451,0,0
0.00769448,-0.0042216384,0.0143626336,0.01779548,0.0017996499999999999,7.452,0,0
0.008469066,-0.0019635864,0.007893540000000001,0.017633080000000002,0.004267162,7.453,0,0
0.011314808,-0.0009790364,-0.005143920000000001,0.01638182,0.007692406000000001,7.454,0,0
0.012052376000000002,-0.0025597524000000003,-0.01675082,0.011468177200000002,0.00932832,7.455,0,0
0.008886046000000002,-0.005506520400000001,-0.021876370000000003,0.0055734972,0.0075850399999999995,7.456,0,0
0.005866865999999999,-0.006563486000000001,-0.021167802800000003,0.0005389772,0.00265084,7.457,0,0
0.004224334000000001,-0.006489460000000001,-0.0156039148,-0.0052210628000000005,-0.0027060800000000005,7.458,0,0
0.002827532,-0.006268346,-0.010202034799999999,-0.0099138608,-0.005882822,7.459,0,0
0.003213164,-0.003767880000000001,-0.007168234800000001,-0.011347808000000001,-0.007449896,7.46,0,0
0.004469804000000001,0.0008339999999999997,-0.0056459994,-0.009991924,-0.007623334,7.461,0,0
0.0036935460000000002,0.00519819,-0.0030683066,-0.007255482200000001,-0.006169668,7.462,0,0
0.0010883719999999998,0.009817752,0.0032271454,-0.004145900200000001,-0.006089068,7.463,0,0
-0.002114826,0.014619990000000003,0.0112003054,-0.0017164462,-0.008981986,7.464,0,0
-0.006868674000000001,0.017366200000000002,0.0178085854,-7.22122e-05,-0.011225418000000001,7.465,0,0
-0.011567744000000001,0.01876668,0.02142786,0.0015800638,-0.011179096000000001,7.466,0,0
-0.014479646000000002,0.01951106,0.021674540000000003,0.002648066,-0.010237448000000001,7.467,0,0
-0.016594980000000002,0.01821056,0.017861924,0.002825942,-0.007365716000000001,7.468,0,0
-0.01833692,0.014562489999999999,0.011798222,0.0027603460000000003,-0.0024549080000000004,7.469,0,0
-0.01886062,0.009345234,0.005041882000000001,0.0034492780000000005,0.001855002,7.47,0,0
-0.017515080000000002,0.0029859940000000005,-0.0024729780000000002,0.004320952,0.005583704,7.471,0,0
-0.0165931,-0.004548446,-0.008823218,0.004771022,0.009467010000000001,7.472,0,0
-0.01569358,-0.011910366000000002,-0.011732882,0.005820018000000001,0.012245778000000002,7.473,0,0
-0.012737636,-0.017005356,-0.01178401,0.006970077999999999,0.01390027,7.474,0,0
-0.009661226,-0.019238880000000003,-0.009338116,0.007371294,0.01470878,7.475,0,0
-0.0072338442,-0.019249540000000002,-0.003830488,0.00722815,0.014116440000000001,7.476,0,0
-0.0023903042,-0.016185812,0.0015337140000000005,0.006852368,0.012623766,7.477,0,0
0.0038052958000000005,-0.010419892000000002,0.004575060000000001,0.006139284,0.01120784,7.478,0,0
0.008465711800000001,-0.004001701999999999,0.0067963120000000005,0.005753912,0.0099911,7.479,0,0
0.0137381818,0.003387038,0.008351662000000001,0.00550205,0.009183402,7.48,0,0
0.018227100000000003,0.010405558000000002,0.008698492,0.003715792,0.0076423360000000004,7.481,0,0
0.018613320000000003,0.01496819,0.008288060000000002,0.0006015,0.004225237999999999,7.482,0,0
0.016726218,0.01776851,0.007722968000000001,-0.00279715,-0.00013061600000000007,7.483,0,0
0.01362124,0.018441060000000002,0.0071829300000000006,-0.006511598,-0.005371576,7.484,0,0
0.008509201999999999,0.0149890656,0.005976964,-0.010082068000000001,-0.011207518,7.485,0,0
0.0026063080000000008,0.008384545600000001,0.004127826000000001,-0.011824020000000001,-0.015504352,7.486,0,0
-0.0018571720000000002,0.0010881455999999998,0.0022740640000000006,-0.010222908000000001,-0.015756342,7.487,0,0
-0.004369386,-0.007046154400000001,0.000966094,-0.005209048000000001,-0.012405428,7.488,0,0
-0.006859546,-0.0152856144,0.0007339439999999999,0.0019115319999999992,-0.007516862000000001,7.489,0,0
-0.010093908,-0.02084888,0.00022807520000000001,0.009984372,-0.00204473,7.49,0,0
-0.013605954,-0.02366682,-0.0025097448,0.017902532,0.0031835559999999997,7.491,0,0
-0.018964854000000003,-0.025653840000000004,-0.0070690728,0.02353018,0.007239238,7.492,0,0
-0.028765678000000003,-0.025174960000000003,-0.0134390968,0.024811240000000002,0.009783244,7.493,0,0
-0.040745720000000006,-0.020920986000000006,-0.0208092308,0.02240684,0.012463378,7.494,0,0
-0.05022534000000001,-0.014797482,-0.02448522,0.018093722,0.016691286,7.495,0,0
-0.05499992000000001,-0.0066844420000000005,-0.022262817999999997,0.01306962,0.021725880000000003,7.496,0,0
-0.05210650000000001,0.0035682980000000006,-0.015397451999999997,0.008326096000000002,0.025505940000000005,7.497,0,0
-0.039266524000000004,0.013399578,-0.006884733999999999,0.004054646,0.027364400000000004,7.498,0,0
-0.018023584000000002,0.021041224,0.0003321660000000005,-0.0006993940000000001,0.026003460000000003,7.499,0,0
0.007510295999999998,0.026312740000000005,0.007531706000000001,-0.008250976,0.017684060000000005,7.5,0,0
0.033295276,0.028086,0.014249264000000001,-0.019079214,0.0013864000000000012,7.501,0,0
0.05514083600000001,0.0262573,0.016419278000000002,-0.030905870000000002,-0.01816864,7.502,0,0
0.07131254000000001,0.022147088000000002,0.01573306,-0.040137940000000004,-0.0345393,7.503,0,0
0.08078562,0.016095312,0.01488242,-0.04357438,-0.043406700000000006,7.504,0,0
0.08098096,0.008051192,0.010672852,-0.040070680000000004,-0.041444492000000006,7.505,0,0
0.07296609999999999,-0.0007018879999999999,0.0045283319999999995,-0.0299162858,-0.028642952,7.506,0,0
0.05940708,-0.0077788679999999995,0.0009495560000000001,-0.0163164458,-0.010889152,7.507,0,0
0.041516797599999995,-0.012968616,-0.0003461506,-0.004300325799999999,0.003910048000000001,7.508,0,0
0.022621097600000004,-0.015843660000000002,-0.00038653680000000004,0.0031529362,0.011044790000000002,7.509,0,0
0.007287897600000001,-0.014835478000000001,0.0005094652000000001,0.006080352,0.010278452,7.51,0,0
-0.0029326024,-0.010082178,0.0021058331999999997,0.0057130958,0.005832509999999999,7.511,0,0
-0.0082080364,-0.003258858,0.0043484292,0.0034722958,0.001021592,7.512,0,0
-0.009221446,0.0040555420000000005,0.0061997278,0.0016119058000000001,-0.0025421534000000003,7.513,0,0
-0.0074918779999999996,0.011235242,0.006198113600000001,0.0018924018,-0.0020469574000000004,7.514,0,0
-0.006439666,0.01636908,0.0034781396000000005,0.003971126,0.0011725426000000001,7.515,0,0
-0.007817546000000002,0.018055480000000002,-0.0015295484000000005,0.005561004,0.0017074706000000002,7.516,0,0
-0.012771352,0.016379384000000004,-0.0062216684,0.0051760439999999994,-0.0022329714,7.517,0,0
-0.02350364,0.011281105999999999,-0.0089375784,0.002588213999999999,-0.009301466000000001,7.518,0,0
-0.035993548,0.0034603459999999996,-0.00950819,-0.0017156440000000001,-0.017989504,7.519,0,0
-0.044902660000000004,-0.004468674000000001,-0.008243074000000001,-0.0053790240000000005,-0.023545154,7.52,0,0
-0.04929096000000001,-0.011086574,-0.0055092399999999995,-0.006305358000000001,-0.021936782,7.521,0,0
-0.04769302000000001,-0.017054298000000002,-0.0011082599999999998,-0.003912508000000001,-0.013582441999999998,7.522,0,0
-0.038911640000000004,-0.02099608,0.003328038,0.001894252,-0.001911002000000001,7.523,0,0
-0.025658896,-0.0217644,0.006341870000000001,0.009913571999999999,0.009729878,7.524,0,0
-0.011310996000000002,-0.02034088,0.007715819000000001,0.018515312,0.018595298,7.525,0,0
0.0008277840000000002,-0.016987848,0.005591405000000002,0.027317690000000006,0.02154336,7.526,0,0
0.009120764,-0.011070815999999999,-0.0002638549999999999,0.0348858,0.019103659999999998,7.527,0,0
0.014723004,-0.0038022160000000006,-0.005684015,0.038964620000000005,0.014413812200000002,7.528,0,0
0.016582640000000003,0.002899164,-0.008278348999999999,0.039092440000000006,0.008223368200000001,7.529,0,0
0.014595702000000002,0.008520404,-0.007594259999999999,0.03478676,0.0012970681999999998,7.53,0,0
0.012440122000000001,0.012548532000000001,-0.00377842,0.02420581,-0.0032225737999999997,7.531,0,0
0.010997362,0.013715460000000002,0.00035048200000000005,0.008056770000000001,-0.0050749778,7.532,0,0
0.010075354,0.013023074000000003,0.0022491738,-0.010534310000000002,-0.005460814,7.533,0,0
0.010148494000000001,0.011499956000000002,0.0015739537999999997,-0.028440550000000002,-0.003560052,7.534,0,0
0.008439429,0.007626682,-0.00010695020000000015,-0.04192279,0.000255548,7.535,0,0
0.004872045,0.0021515819999999995,-0.0018463362000000001,-0.047567040000000005,0.004193270000000001,7.536,0,0
0.0007789450000000001,-0.0034070180000000004,-0.0038214722000000003,-0.04443778,0.006817674000000001,7.537,0,0
-0.004950307000000001,-0.009059812,-0.005815504000000001,-0.0355326,0.0072994508,7.538,0,0
-0.010637447000000001,-0.014463334000000001,-0.0074268500000000005,-0.023726608,0.0053542508,7.539,0,0
-0.012487002,-0.017048060000000004,-0.00826061,-0.011942856000000002,0.0009705107999999994,7.54,0,0
-0.011620360000000001,-0.016066734,-0.0078026120000000004,-0.003989422,-0.0048440692,7.541,0,0
-0.009821060000000001,-0.0127039802,-0.006190758000000001,0.0008383679999999996,-0.009143269200000002,7.542,0,0
-0.006574120000000001,-0.006681052200000001,-0.00304277,0.00484332,-0.00990946,7.543,0,0
-0.004469816000000001,0.0009058678000000001,0.0017830300000000001,0.007230530000000001,-0.007871712000000001,7.544,0,0
-0.0041527660000000004,0.0079474878,0.0062752599999999995,0.007923590000000001,-0.003950734000000002,7.545,0,0
-0.004531856000000001,0.012837581800000001,0.009347328,0.008457264,0.0008739819999999997,7.546,0,0
-0.004137971400000001,0.016158008,0.011906788000000001,0.007505576,0.003975238,7.547,0,0
-0.0008867513999999996,0.017463680000000002,0.013147059999999999,0.0047624419999999995,0.003931578,7.548,0,0
0.005791464600000001,0.015815962000000003,0.011900353999999998,0.0026939692000000006,0.002228766,7.549,0,0
0.0147156926,0.013617736000000002,0.008950889,0.0017465672000000002,0.0010867456,7.55,0,0
0.0248794846,0.011434108,0.005514751,0.0021745272,0.0012472896,7.551,0,0
0.03403596,0.008265354,0.0016575869999999996,0.005006885200000001,0.0032405936,7.552,0,0
0.037885699999999994,0.0038849540000000004,-0.002047761,0.009483547200000001,0.007787211600000001,7.553,0,0
0.03470834,-0.00033328800000000016,-0.004522563,0.012856798000000003,0.0129553376,7.554,0,0
0.025964429999999997,-0.005335362,-0.00632591,0.013815038000000002,0.015879920000000002,7.555,0,0
0.013842609999999998,-0.010500914,-0.007674268000000001,0.012610630000000001,0.015498930000000001,7.556,0,0
0.0016178499999999992,-0.012409454,-0.009407484,0.009048868,0.012975476,7.557,0,0
-0.007839950000000002,-0.012452088000000002,-0.010869276,0.004178106000000001,0.008493608,7.558,0,0
-0.014868470000000002,-0.010756880000000002,-0.011730008,-0.00021284199999999976,0.0025716080000000004,7.559,0,0
-0.016790620000000003,-0.008165258000000002,-0.0105791,-0.002926782,-0.003725892,7.56,0,0
-0.016214080000000002,-0.0029652899999999998,-0.007983778,-0.004330114,-0.010845962,7.561,0,0
-0.014453038000000001,-0.0008782979999999999,-0.005050535,-0.0038515938000000007,-0.018035148,7.562,0,0
-0.014073638000000001,-0.006331384,0.0005798650000000002,-0.00014997179999999988,-0.023588960000000003,7.563,0,0
-0.020051098000000003,-0.009316532,0.005869125,0.0051017962000000005,-0.02607052,7.564,0,0
-0.024786558,-0.008425151200000001,0.007673349,0.011306766200000002,-0.0249273,7.565,0,0
-0.025877018,-0.0078083792,0.007548759,0.0189856582,-0.018426956,7.566,0,0
-0.028240340000000003,-0.0033907572000000004,0.007876152,0.02547496,-0.007691456000000002,7.567,0,0
-0.02819558,0.0084912828,0.006786830000000001,0.027317900000000006,0.0034016840000000003,7.568,0,0
-0.01862599,0.0182835428,0.005894709999999999,0.02371085,0.012395204,7.569,0,0
-0.008412250000000001,0.02353728,0.007152610000000001,0.01443335,0.017288084,7.57,0,0
-0.0024176299999999987,0.02492994,0.008715974,-0.00023105,0.018014376,7.571,0,0
0.0022104540000000006,0.020236048,0.010238998000000001,-0.016493269999999997,0.016124076,7.572,0,0
0.004925886000000001,0.013297610000000001,0.010142474000000002,-0.03032439,0.013865676,7.573,0,0
0.005906832000000001,0.004186490000000001,0.008795484000000001,-0.03976966,0.012079476000000002,7.574,0,0
0.002852742000000001,-0.00592947,0.006546517400000001,-0.04359756,0.010654160000000001,7.575,0,0
0.0003989364,-0.014788570000000001,0.0034157534000000007,-0.04170672,0.008674568,7.576,0,0
0.0003823124,-0.021073438,-0.0007672465999999996,-0.03600276,0.005787652000000001,7.577,0,0
0.00013114899999999995,-0.02614504,-0.0057276606,-0.028539516,0.0024088980000000005,7.578,0,0
0.0006838790000000001,-0.02899666,-0.010151890600000001,-0.0194225696,-0.0017991380000000003,7.579,0,0
0.0058181890000000005,-0.02756482,-0.013147524,-0.0099445676,-0.005225442,7.58,0,0
0.0149561946,-0.023327186,-0.01445392,-0.0016783076000000002,-0.0072615660000000005,7.581,0,0
0.024392834600000003,-0.015532873999999999,-0.014019436000000001,0.0052806724,-0.00961259,7.582,0,0
0.034054366,-0.004502813999999998,-0.011146908,0.0103544684,-0.012551136000000001,7.583,0,0
0.04299358,0.007176586000000001,-0.006899064,0.013675622000000002,-0.01428984,7.584,0,0
0.047507400000000005,0.018239186000000004,-0.0025210560000000007,0.015881600000000003,-0.014062514,7.585,0,0
0.04576688,0.028146212000000004,0.0020547840000000005,0.01722816,-0.012026768,7.586,0,0
0.04044366,0.034503620000000006,0.0063003,0.017324080000000002,-0.00781457,7.587,0,0
0.030014003999999997,0.03544886,0.009504232000000001,0.0162577,-0.0019916100000000013,7.588,0,0
0.013146663999999995,0.03197564000000001,0.011574588000000002,0.014288332,0.0041500700000000005,7.589,0,0
-0.005289356000000001,0.024518862000000006,0.012479500000000001,0.01174156,0.008871864,7.59,0,0
-0.022689856,0.013034702000000004,0.011957534000000002,0.009051396,0.011303798,7.591,0,0
-0.038125396,-0.0001966779999999996,0.010113140000000001,0.006228064,0.010955356,7.592,0,0
-0.046916780000000005,-0.011666678,0.007110360000000001,0.003744978000000001,0.008247688,7.593,0,0
-0.0476902,-0.020926498,0.0027328960000000003,0.0015700939999999997,0.004613506,7.594,0,0
-0.04564484,-0.028431960000000003,-0.0030007440000000005,1.0738399999999992e-05,0.0007508479999999999,7.595,0,0
-0.04204456,-0.03163486,-0.009101678,-0.0009179292000000001,-0.0031466840000000003,7.596,0,0
-0.03519406,-0.03044288,-0.014152544000000001,-0.0015053852,-0.006764920000000001,7.597,0,0
-0.026027013999999998,-0.02640168,-0.017372724000000003,-0.0017965332000000002,-0.008868012000000002,7.598,0,0
-0.014795173999999998,-0.018910928000000004,-0.01830874,-0.0021075392000000004,-0.009760128000000002,7.599,0,0
-0.0011260539999999996,-0.008514688,-0.016158422000000002,-0.0028485856000000005,-0.009918092,7.6,0,0
0.013577386,0.0024379119999999995,-0.010116948,-0.0033601640000000006,-0.007840708000000002,7.601,0,0
0.027156466,0.013004632,-0.0018440279999999997,-0.0027625200000000005,-0.0037267059999999998,7.602,0,0
0.038137920000000006,0.022717312000000003,0.0052252520000000005,-0.0019973712000000005,-0.00025758399999999994,7.603,0,0
0.04438792,0.029001480000000003,0.010320312,-0.0015126192,0.0022240040000000003,7.604,0,0
0.044242619999999996,0.030668559999999997,0.013885614000000001,-0.0013647612,0.004353854000000001,7.605,0,0
0.038333360000000004,0.02893262,0.01445416,-0.0015445872000000001,0.004869082,7.606,0,0
0.027624856,0.023611590000000002,0.012465846,-0.0020738412,0.005009892,7.607,0,0
0.014246616,0.014543092,0.010388172000000001,-0.002659344,0.005772598,7.608,0,0
0.000594196,0.004166632000000002,0.008809899999999999,-0.0024448660000000004,0.005630534,7.609,0,0
-0.012300804000000002,-0.0060802880000000005,0.006384204200000001,-0.002105716,0.0048205,7.61,0,0
-0.023458884000000003,-0.016346748,0.0026723021999999997,-0.00195727,0.004122306,7.611,0,0
-0.03203148,-0.024694798,-0.0012283077999999997,-0.000793152,0.0025642316000000004,7.612,0,0
-0.03787956,-0.028743720000000004,-0.004882273800000001,0.001047858,0.0007309028,7.613,0,0
-0.0415279,-0.0291011,-0.0079023018,0.0022752880000000003,-1.9779000000000042e-05,7.614,0,0
-0.0421185,-0.02644838,-0.00957237,0.00366964,-0.0009855290000000002,7.615,0,0
-0.03868250000000001,-0.019735228,-0.00901485,0.005244398000000001,-0.002280475,7.616,0,0
-0.03200914,-0.010490807999999999,-0.0074287,0.005768202,-0.0021955242000000004,7.617,0,0
-0.022856958,-0.0012558279999999996,-0.006465112,0.0058838960000000004,-0.0010651994,7.618,0,0
-0.010729937999999998,0.008340612,-0.005131490000000001,0.005916014,4.200040000000029e-05,7.619,0,0
0.004685362000000001,0.018364472,-0.0032187356,0.005155784,0.0016629064000000002,7.62,0,0
0.020501342000000002,0.02559126,-0.0018479316,0.0035791880000000005,0.0037183544000000007,7.621,0,0
0.033138442000000004,0.028805120000000003,-0.0005023215999999999,0.0012362960000000004,0.0046655640000000005,7.622,0,0
0.04207384,0.02979218,0.0022427364,-0.001633928,0.004218572,7.623,0,0
0.045609620000000003,0.027057660000000004,0.0059436744000000005,-0.0040462119999999996,0.0033416454000000004,7.624,0,0
0.041210079999999996,0.019811441000000006,0.009767404,-0.004981648,0.0022019134000000004,7.625,0,0
0.03137367,0.010965251,0.011782922000000001,-0.005228326,0.0005969034,7.626,0,0
0.019922474,0.0014442909999999995,0.010773484600000003,-0.0053564599999999995,-0.0013651526000000003,7.627,0,0
0.007469754000000002,-0.009389949000000002,0.0076969486000000005,-0.004198322,-0.0030656326000000006,7.628,0,0
-0.0038820060000000003,-0.019013969000000002,0.0021308685999999995,-0.0020854859999999997,-0.003915666000000001,7.629,0,0
-0.010948306,-0.02517281,-0.004715531400000001,-0.00037108600000000007,-0.0042582240000000006,7.63,0,0
-0.014778416000000003,-0.028917740000000004,-0.009693911400000001,0.0013270700000000003,-0.00414954,7.631,0,0
-0.015583740000000002,-0.0293256,-0.01179535,0.0034944460000000004,-0.0031015532000000005,7.632,0,0
-0.012509808000000002,-0.025246460000000002,-0.011850754,0.004521006,-0.0013068612,7.633,0,0
-0.007635816000000001,-0.018356389799999998,-0.010153752000000002,0.0038743200000000005,0.0004340008,7.634,0,0
-0.002224948,-0.009755949799999998,-0.0073425314,0.0029351668000000006,0.0016703208000000002,7.635,0,0
0.003622212,0.000906810200000001,-0.0038639653999999993,0.0019396556000000006,0.0021563346000000004,7.636,0,0
0.008658552,0.0121408702,-4.149399999999869e-06,0.0003736796,0.0019827717999999998,7.637,0,0
0.010997040000000003,0.0209408302,0.0034921766000000003,-0.0012949744,0.0010509698000000002,7.638,0,0
0.010794598,0.0266452,0.0061821546,-0.0025473844000000003,-0.0001850042,7.639,0,0
0.00888353,0.029155800000000003,0.00735445,-0.0037533192000000007,-0.0005687022,7.64,0,0
0.004545174000000001,0.026953579999999998,0.006962050000000001,-0.004911470000000001,-0.0004193206,7.641,0,0
-0.0019191259999999997,0.0203661702,0.004794820000000001,-0.005406136000000001,-0.000408057,7.642,0,0
-0.008000686,0.0119610402,0.0014574179999999998,-0.0052456740000000005,-0.000701979,7.643,0,0
-0.012720436000000002,0.0019810801999999997,-0.002210232,-0.004816484,-0.001538309,7.644,0,0
-0.016962216000000002,-0.0090172998,-0.0057804480000000005,-0.004028716,-0.002514763,7.645,0,0
-0.018644960000000002,-0.0179634798,-0.008590094,-0.0025574100000000004,-0.0033309764000000004,7.646,0,0
-0.01704817,-0.023764810000000004,-0.009804764,-0.0008760940000000002,-0.003910186,7.647,0,0
-0.014983152000000003,-0.02706712,-0.009196698,0.0007375559999999999,-0.0033450178000000003,7.648,0,0
-0.011688112,-0.026138800000000004,-0.007508562,0.0030918720000000003,-0.0019908018,7.649,0,0
-0.006635638000000001,-0.021060744,-0.004160718000000001,0.0053678120000000005,-0.00036830580000000003,7.65,0,0
-0.0024828240000000002,-0.015282984000000001,-7.801599999999976e-05,0.006699616,0.0021594062,7.651,0,0
0.0008234019999999999,-0.007735898000000001,0.003908368000000001,0.00779401,0.0049799862,7.652,0,0
0.004682564,0.0020749820000000004,0.007545672,0.008384436,0.00673405,7.653,0,0
0.007505364000000001,0.010712142000000001,0.008734156,0.007302914000000001,0.007391102,7.654,0,0
0.007581134000000001,0.017355326,0.006464375999999999,0.005202936000000001,0.007116244,7.655,0,0
0.006654745800000001,0.023293186000000004,0.0013443739999999993,0.0029962620000000004,0.005076931999999999,7.656,0,0
0.004955611800000001,0.026391880000000006,-0.006043046000000002,0.00019152200000000018,0.002203876,7.657,0,0
0.0014485098000000004,0.024682560000000006,-0.013927046000000002,-0.0024563000000000002,-0.0002838119999999998,7.658,0,0
-0.0024929282000000002,0.019979904000000003,-0.018784696000000004,-0.004368782,-0.002695454,7.659,0,0
-0.0050519182,0.012461912,-0.019007132000000003,-0.005619838,-0.005079538,7.66,0,0
-0.0066415499999999995,0.0019291519999999982,-0.010926112000000002,-0.0062622680000000005,-0.006988282,7.661,0,0
-0.008141794,-0.010410328000000002,0.005261888000000001,-0.006318522,-0.008443966,7.662,0,0
-0.007704148000000001,-0.021329248000000002,0.020091268000000002,-0.005916826000000002,-0.009699990000000002,7.663,0,0
-0.005704694,-0.027888392000000005,0.028631568000000003,-0.0055606119999999995,-0.009912016000000003,7.664,0,0
-0.00309746,-0.030374860000000004,0.030868466000000004,-0.004909746,-0.009130338,7.665,0,0
0.0010400259999999997,-0.02895910000000001,0.025239408000000005,-0.004005626,-0.00784923,7.666,0,0
0.0062299880000000005,-0.022985240000000007,0.013210667999999998,-0.003474032,-0.005983154000000001,7.667,0,0
0.011071764,-0.013027460000000001,0.002462124000000001,-0.0028877419999999996,-0.003507868,7.668,0,0
0.015628088000000002,-0.0012080400000000014,-0.0007375379999999996,-0.001549386,-0.0005634759999999996,7.669,0,0
0.019785360000000002,0.011275799999999999,0.0029943360000000002,-0.0005570980000000001,0.0024518840000000005,7.67,0,0
0.02095772,0.02285346,0.009579874,-0.0003975358000000001,0.005731596,7.671,0,0
0.019087810000000004,0.031548820000000005,0.016517514,0.0005595162,0.008947240000000002,7.672,0,0
0.015453416000000001,0.03677674,0.022453078,0.0020231342,0.011506634000000002,7.673,0,0
0.009712376,0.035810379999999996,0.024035060000000004,0.0026678582,0.013018220000000002,7.674,0,0
0.0022238559999999997,0.028341026000000002,0.020548716,0.0031740042,0.013429960000000001,7.675,0,0
-0.004875244000000001,0.017963566,0.012156216000000001,0.0037637919999999997,0.012726364,7.676,0,0
-0.010573094,0.005130365999999999,-0.0016639639999999995,0.0037698159999999996,0.010891678000000002,7.677,0,0
-0.01611674,-0.009841734000000001,-0.017662344,0.003818338,0.008639252000000002,7.678,0,0
-0.02052838,-0.022111114,-0.032363484,0.004840552000000001,0.006347554000000001,7.679,0,0
-0.02173468,-0.0287914,-0.043931120000000004,0.006103948,0.004140172,7.68,0,0
-0.019997256,-0.03198604,-0.0493429,0.006654188000000001,0.0018727120000000008,7.681,0,0
-0.015259972000000002,-0.03087588,-0.04563982,0.006591142,-0.0009212140000000003,7.682,0,0
-0.007048752,-0.025322420000000005,-0.032734924,0.00494478,-0.0044100680000000005,7.683,0,0
0.0021564679999999995,-0.018522410000000003,-0.014071224000000002,0.0014461899999999998,-0.00804787,7.684,0,0
0.009784328,-0.011425266,0.0029253560000000014,-0.0021046800000000003,-0.010529788,7.685,0,0
0.015200584000000001,-0.002853126,0.014684636,-0.004875468,-0.011115688,7.686,0,0
0.01752416,0.007668874000000001,0.022903696,-0.007091042,-0.009604724,7.687,0,0
0.016636340000000003,0.016900014,0.026119780000000002,-0.008029118,-0.005693422,7.688,0,0
0.014023286000000001,0.023670084,0.024317880000000004,-0.00749456,-0.001109968,7.689,0,0
0.010874486,0.029085480000000004,0.02208188,-0.0068792060000000006,0.00163582,7.69,0,0
0.007525334,0.03091104,0.02102638,-0.005893708,0.0026441934,7.691,0,0
0.004121125999999999,0.027344379999999998,0.01862938,-0.00436962,0.0027105074,7.692,0,0
0.0012189640000000003,0.020508567999999998,0.0134224894,-0.0032183396,0.0007661713999999999,7.693,0,0
-0.0014217779999999998,0.011764508000000002,0.0055863894,-0.0023944916000000005,-0.0031842626000000004,7.694,0,0
-0.004545338,0.00044728800000000055,-0.0031623505999999997,-0.0019911056,-0.006860450600000001,7.695,0,0
-0.006817906,-0.010287132000000001,-0.0106691106,-0.0010738636000000002,-0.009133248,7.696,0,0
-0.00748208,-0.018694832,-0.0163649106,0.0005628904000000001,-0.010049694,7.697,0,0
-0.007645234000000001,-0.026174140000000002,-0.021042040000000005,0.00201315,-0.0092898228,7.698,0,0
-0.007179788,-0.02972206,-0.02420136,0.0035386200000000006,-0.0068267302000000005,7.699,0,0
-0.005529616,-0.02722702,-0.023669120000000005,0.005319268,-0.0035844658,7.7,0,0
-0.004169966,-0.021897668,-0.020216034,0.006390182,9.560220000000004e-05,7.701,0,0
-0.004197488,-0.01433794,-0.015448050000000003,0.006439988000000001,0.0034464822000000008,7.702,0,0
-0.004132562,-0.00244476,-0.00797805,0.006286834000000001,0.005888345000000001,7.703,0,0
-0.003640878,0.00905446,0.0016809100000000003,0.005837378000000001,0.008695132400000001,7.704,0,0
