bandpass 1,bandpass 2,bandpass 3,bandpass 4,bandpass 5,time,onset,mark
0.0013477758000000001,0.0006595367999999999,0.0016209540000000002,-0.0006558067999999999,0.0006043085600000001,4.94,1,1
-4.065819999999991e-05,-0.0005347952000000003,0.0007790640000000001,-0.0009400768,0.00100895456,4.941,0,0
-0.0016129902,-0.0021136932000000008,0.00020424800000000008,-0.0008827776,0.0013310545600000003,4.942,0,0
-0.0040368822,-0.0046937752,-0.001127332,-0.0005409758,0.0010044032000000001,4.943,0,0
-0.006030990200000001,-0.006730149600000001,-0.003060974,-0.00033258159999999997,0.0008561724000000001,4.944,0,0
-0.007524068,-0.008196196000000003,-0.004528932,-0.00029855340000000004,0.0009680798400000002,4.945,0,0
-0.007323480000000001,-0.007870668,-0.004227334000000001,-0.0001778928,0.00053738584,4.946,0,0
-0.006323076,-0.006193997400000001,-0.003924342,-0.00036135600000000007,0.00010904864000000001,4.947,0,0
-0.005153492,-0.003975979400000001,-0.003440237,-0.00044451760000000006,0.0002706752,4.948,0,0
-0.0031068860000000005,-0.0007988414000000001,-0.0018746190000000001,-0.00019368659999999998,0.000149152,4.949,0,0
-0.00022475200000000015,0.0021275126,-0.00018231100000000016,-0.00038869580000000005,0.0001734578,4.95,0,0
0.0021402400000000003,0.0037390646,0.000656601,-0.0005326904000000001,0.0003797418,4.951,0,0
0.0037463460000000002,0.005089904000000001,0.0014311430000000002,-0.0004657648,0.0003000084,4.952,0,0
0.00519995,0.006471404,0.002691486,-0.0008958372000000001,0.00013134840000000002,4.953,0,0
0.005313766,0.006270936000000001,0.0032571720000000005,-0.0011582166,0.0001676576,4.954,0,0
0.0037658619999999996,0.005024611600000001,0.0032322900000000005,-0.0007336866,0.00013293660000000002,4.955,0,0
0.002052078,0.004318021200000001,0.00316869,-0.0005453944000000001,0.00010857720000000001,4.956,0,0
0.0002070780000000004,0.0022207752,0.00232375,-0.00046712988,0.0005837958000000001,4.957,0,0
-0.0020646579999999996,-0.0011212848000000004,0.00035185399999999997,0.0003045521200000001,0.0008481786000000001,4.958,0,0
-0.0034859800000000005,-0.0031985808000000006,-0.00154804,0.0008866963200000001,0.0005977774000000001,4.959,0,0
-0.003926306,-0.0043850344000000005,-0.00296397,0.0010006583200000002,3.6786000000000566e-06,4.96,0,0
-0.004361762,-0.005515164000000001,-0.004210494,0.0010092801200000002,-0.0004745679999999999,4.961,0,0
-0.004197538000000001,-0.005691530000000001,-0.00479216,0.0009330268,-0.0008986522,4.962,0,0
-0.002787826,-0.0044775660000000005,-0.004572096,0.0008040028000000001,-0.001364973,4.963,0,0
-0.001607972,-0.003084046000000001,-0.003921444,0.00017019280000000003,-0.0012212803999999999,4.964,0,0
-0.0005154300000000001,-0.0020764704,-0.0031469620000000005,-0.0001267614,-0.0006252358000000001,4.965,0,0
0.0017966920000000001,-0.0005356964000000001,-0.0021142642000000003,0.00039252060000000003,-0.00024013880000000004,4.966,0,0
0.004027396,0.0010754675999999999,-0.0005163782000000002,0.0003926054,-0.00016334620000000005,4.967,0,0
0.004753872,0.0016533596,0.0010708978000000002,-7.777800000000005e-06,8.237319999999999e-05,4.968,0,0
0.005187278,0.0024233336,0.0021607718,0.00019435319999999993,0.000220979,4.969,0,0
0.005886658,0.004091246,0.0029151078,-0.0002524366,0.0003295284,4.97,0,0
0.004804036,0.004411482,0.0030566078,-0.0010283946,0.0009242274,4.971,0,0
0.0025317160000000003,0.0034240320000000005,0.0027003518000000004,-0.0007097542,0.0012689110000000002,4.972,0,0
0.0007857580000000001,0.002710596,0.0021412418,-0.0006878846,0.0009565284,4.973,0,0
-0.0007326800000000002,0.0009004359999999998,0.0011080058,-0.0006658896,0.0008053305999999999,4.974,0,0
-0.002820232,-0.001592802,-1.5814200000000022e-05,0.00028523039999999995,0.0005401786000000001,4.975,0,0
-0.00419395,-0.002596824,-0.00075577,0.0009746664,-0.00039736540000000003,4.976,0,0
-0.004021338000000001,-0.002878964,-0.001688074,0.0008485662000000001,-0.0008132024,4.977,0,0
-0.004532408,-0.003906628,-0.0024596960000000004,0.0010459852000000002,-0.0005673504,4.978,0,0
-0.004846144,-0.003918336,-0.0020733846,0.0013156232000000002,-0.0007357330000000001,4.979,0,0
-0.0037009514,-0.0028978792000000004,-0.0012714266000000002,0.0007353914000000001,-0.001049505,4.98,0,0
-0.0027230724,-0.0029936312000000006,-0.0007271754000000001,0.0004986026000000001,-0.001092749,4.981,0,0
-0.0017351544000000002,-0.0024964630400000003,0.00019400460000000002,0.0010507688,-0.001317914,4.982,0,0
0.0006028415999999998,-0.0004274370400000001,0.0010357446,0.0014843114,-0.0014435714000000002,4.983,0,0
0.0026588516,0.00109870096,0.0012543352,0.0013769056,-0.0009032654,4.984,0,0
0.003738613,0.00175410416,0.0016990912,0.0015511747999999998,-0.00011794939999999987,4.985,0,0
0.005222682,0.0030360981600000003,0.002523074,0.0014399628,0.00028937480000000007,4.986,0,0
0.005822828,0.00390853,0.0027511060000000006,0.00034274479999999997,0.0007416774000000001,4.987,0,0
0.004886754,0.0032063284000000006,0.0023144416,-0.0008109032,0.0013047348,4.988,0,0
0.0037036812000000004,0.0023395908,0.0019327348,-0.0014305014000000002,0.0010501136,4.989,0,0
0.0023224032000000003,0.0015688756000000002,0.0013944816000000001,-0.0017814428,0.0007736743999999999,4.99,0,0
0.00025651320000000017,-0.00011499840000000008,0.0006822396,-0.002115614,0.0013248081999999999,4.991,0,0
-0.0015608168,-0.0020598624,3.548639999999999e-05,-0.0018289708000000001,0.0011624664,4.992,0,0
-0.0024785448000000003,-0.0027611528,-0.0003309732,-0.0013383618,0.00021506040000000002,4.993,0,0
-0.003324098,-0.0029668232000000004,-0.0006591664,-0.0008879557999999999,0.00016345200000000002,4.994,0,0
-0.004179126,-0.0031421540000000003,-0.0012756292,-0.0002581437999999999,0.0001465498000000001,4.995,0,0
-0.003964118,-0.002052876,-0.0014267435999999998,0.0003105762,-0.000583116,4.996,0,0
-0.003321645,-0.0004541800000000002,-0.0011969778000000002,0.00044443250000000004,-0.0005688061999999999,4.997,0,0
-0.002924149,0.0005492240000000001,-0.0014515598,0.0005101934999999999,-2.3617619999999983e-05,4.998,0,0
-0.001692631,0.002002848,-0.0014034818,0.0004584964999999999,-0.00037506401999999996,4.999,0,0
-0.00013142899999999996,0.0035813620000000003,-0.0008977574000000001,-7.242950000000006e-05,-0.00107526862,5.0,0,0
0.0003422504,0.004191994,-0.001126503,-0.0005186355000000001,-0.0012428388200000002,5.001,0,0
0.0005747878,0.004962676000000001,-0.0007768576000000001,-0.0007513190000000001,-0.0014305074200000002,5.002,0,0
0.0018474178000000001,0.005416834000000001,0.0006479424,-0.0007456790000000001,-0.001713324,5.003,0,0
0.0027536518000000005,0.0035815160000000003,0.0013089744000000002,-0.001042252,-0.00132623962,5.004,0,0
0.0025647298000000002,0.0008877320000000005,0.0015755060000000002,-0.001116976,-0.0006143014200000001,5.005,0,0
0.0028842003999999997,-0.00023565519999999978,0.0019332226000000003,-0.0006932962,-0.00027243802,5.006,0,0
0.0032375819999999997,-0.0015157886,0.0007038126000000002,-0.0005790885999999999,0.00037551798,5.007,0,0
0.0019116620000000002,-0.0041967666,-0.0007019074000000001,-0.0006087534,0.0011056339800000002,5.008,0,0
0.0003638580000000002,-0.005274586600000001,-0.0008413254000000001,-0.0001992564,0.00111517882,5.009,0,0
-0.00031207399999999997,-0.004487188600000001,-0.0013185506,0.00016647940000000003,0.0011021714200000002,5.01,0,0
-0.001345424,-0.004885049400000001,-0.0016031252,-7.504639999999999e-05,0.00123170402,5.011,0,0
-0.0021938960000000003,-0.005533514000000001,-0.0007250723999999999,4.7570480000000014e-05,0.00080484802,5.012,0,0
-0.00214111,-0.0035393777600000002,0.0003699096,0.00041463128,0.00023037341999999997,5.013,0,0
-0.002228036,-0.0012708337600000003,0.0004746796,0.00050953128,0.0003220998,5.014,0,0
-0.002200098,-0.00042089176000000006,0.0007430541999999999,0.00073101548,0.000429997,5.015,0,0
-0.0015172034,0.00074337824,0.0016032982,0.0011816354800000001,0.00018024479999999998,5.016,0,0
-0.0011802382000000002,0.0013747935799999999,0.0017795273999999999,0.0011360624,-1.2399200000000029e-05,5.017,0,0
-0.0008148496000000001,0.00118015594,0.0015113560000000002,0.0008003464,-9.894220000000002e-05,5.018,0,0
0.00036489239999999994,0.0016523259400000002,0.0013977456,0.0010057494,-0.0001166994,5.019,0,0
0.0016050764000000001,0.00257734994,0.0013023697200000002,0.0008471574,-0.0002449888,5.02,0,0
0.0019017978,0.00250690594,0.0007668111200000001,0.00048395100000000004,-6.245579999999995e-05,5.021,0,0
0.0016519366,0.0028203246,0.00058232052,0.0008560556000000001,0.0005432322,5.022,0,0
0.0017311298000000004,0.003766746,0.0004902421200000001,0.00087239546,0.0008737454000000001,5.023,0,0
0.0012262220000000001,0.003158936,-0.00031384747999999994,0.00014278145999999992,0.0009602506,5.024,0,0
7.817999999999985e-06,0.0020580202,-0.001057023,-4.810994000000004e-05,0.000997181,5.025,0,0
-0.00051062,0.0016225304000000002,-0.0014147124000000002,-5.434994000000004e-05,0.0005580542,5.026,0,0
-0.00060453,0.0010024684,-0.0019049018000000001,-0.0005639857400000001,2.0466800000000046e-05,5.027,0,0
-0.0014678258000000001,-0.0004859856000000001,-0.002421586,-0.00025246360000000007,-9.3883e-05,5.028,0,0
-0.002049674,-0.0014407296000000002,-0.002058312,0.0004870124,-0.0003689284,5.029,0,0
-0.0018018852,-0.0017266998,-0.0013593664000000002,0.00023001580000000003,-0.0008184114,5.03,0,0
-0.0022663992,-0.0024303860000000005,-0.0011810936000000002,-6.770779999999997e-05,-0.0004701268000000001,5.031,0,0
-0.0022668172,-0.0024261000000000005,-0.0009473592000000001,0.00012090660000000005,0.00012771260000000003,5.032,0,0
-0.0010134832,-0.0015712238000000001,-0.0005545116000000001,-0.0004038374,4.6804600000000016e-05,5.033,0,0
-0.0005865668,-0.0012113578,-0.0006267536000000001,-0.0010022094000000001,9.631360000000004e-05,5.034,0,0
-0.0006078014,-0.0013500358,-0.0007806576,-0.0003398514000000001,0.0006194636000000001,5.035,0,0
0.0005403685999999999,-0.0006386015999999999,-0.00038699040000000006,0.0003247466,0.000831193,5.036,0,0
0.0014599966,0.00010211640000000005,5.948519999999998e-05,0.0004721234,0.0006788530000000001,5.037,0,0
0.0012493386,0.00034475020000000007,0.00019069920000000003,0.0008583512000000001,0.0008874876,5.038,0,0
0.0017028862000000003,0.0010986402,0.0007993572,0.0011915,0.0010492224000000002,5.039,0,0
0.0022168080000000002,0.0012227625999999998,0.0013382396,0.0007748166,0.0010447164000000001,5.04,0,0
0.0014770060000000001,0.00030305239999999975,0.0007116215999999999,0.00018296980000000006,0.0009067218,5.041,0,0
0.0008501584000000001,-0.00035329160000000014,-0.00010578839999999997,-9.304499999999993e-05,0.0004492418,5.042,0,0
0.0008729464,-0.0005196516000000001,-0.000405804,-0.0006452967999999999,2.9625400000000003e-05,5.043,0,0
0.00030383600000000004,-0.0008926536000000002,-0.0007963104,-0.0013034636,-0.00038873259999999997,5.044,0,0
-0.000365608,-0.0008229606,-0.0012952756000000002,-0.00123538708,-0.0009249105999999999,5.045,0,0
0.00019356600000000005,-0.0001187978,-0.0008420114000000001,-0.0007145722800000001,-0.001618022,5.046,0,0
0.00030953420000000005,5.3235800000000016e-05,0.00013334059999999995,-0.0008979628799999999,-0.001980798,5.047,0,0
-0.0007071238,-0.00028769859999999996,0.0008493185999999999,-0.00096055288,-0.0017811290000000002,5.048,0,0
-0.0007370040000000001,-0.000419063,0.001477623,-0.0004937792799999999,-0.0016581272,5.049,0,0
5.164800000000006e-05,8.478560000000002e-05,0.0017361896000000002,-0.0006232854,-0.0016114452000000003,5.05,0,0
5.711200000000003e-05,0.0007237028000000001,0.0014473042,-0.0009921028,-0.0009026450000000001,5.051,0,0
0.00039220340000000007,0.0014684032000000001,0.0010455170000000001,-0.0007230312,-0.00037362692,5.052,0,0
0.0016245174000000002,0.0025015056000000004,0.001055465,-0.0004526142,-0.00034487072,5.053,0,0
0.0016363346000000001,0.0025000620000000004,0.0009445650000000001,-0.0005806718,7.020148000000002e-05,5.054,0,0
0.0006616806,0.0013825740000000001,0.0010138524000000001,-0.00046355679999999995,0.00059158948,5.055,0,0
0.0004943290000000002,0.0006995348,0.0015973016,-0.00028917499999999997,0.0004150576800000001,5.056,0,0
0.0001732858000000001,-6.216339999999998e-05,0.0015250768,-0.00014673919999999997,-6.402639999999999e-05,5.057,0,0
-0.0006491702,-0.0012260194,0.0008160924000000002,0.00022891979999999998,-0.0003240996,5.058,0,0
-0.0004515060000000001,-0.0009004174000000001,0.000472846,0.0004321898,-0.0007088652,5.059,0,0
0.000184422,0.0002857326,0.00012882240000000006,0.0005144912,-0.0005318472000000001,5.06,0,0
9.268360000000001e-05,0.0005831650000000001,-0.0007748276000000001,0.0005785552,3.281439999999996e-05,5.061,0,0
-0.00011838160000000003,0.0007243132,-0.0012635456000000002,0.00039160339999999994,0.0007031564000000001,5.062,0,0
-6.67234e-05,0.0012856292,-0.0014618152,0.0001725034,0.0014010024,5.063,0,0
-0.0005858581999999999,0.0016790272,-0.0018198788,5.897000000000001e-05,0.0015527746919999999,5.064,0,0
-0.0011563362,0.0015165552000000002,-0.0021557780000000006,0.00012558939999999998,0.001085374292,5.065,0,0
-0.0011499076,0.0010728600000000001,-0.002135914,0.00038103299999999997,0.00033907029200000004,5.066,0,0
-0.0011232912,0.0005747820000000001,-0.001990054,0.0006977914,-0.000227099708,5.067,0,0
-0.0013415754,-9.563399999999999e-05,-0.0022476,0.0010632934,-0.000562622508,5.068,0,0
-0.0013251334000000002,-0.001174656,-0.0017674922000000001,0.0016366628000000002,-0.0005590409399999999,5.069,0,0
-0.0007523014000000001,-0.002099002,-0.0006313382000000001,0.0015409792000000001,-0.00056464314,5.07,0,0
-0.0007686450000000001,-0.002513202,0.00021458380000000002,0.0008585972000000001,-0.00035606714000000004,5.071,0,0
-0.0007496152000000001,-0.0026547240000000002,0.0008874277999999999,0.0005965752000000001,-6.366394000000002e-05,5.072,0,0
0.00025805280000000004,-0.002009822,0.0017066158,6.874680000000009e-05,-0.00018842894000000002,5.073,0,0
0.0008588088000000001,-0.0013422220000000001,0.00198422,-0.0005916372,-0.00020617120000000002,5.074,0,0
0.0008079388000000001,-0.0008276034000000001,0.0018078700000000003,-0.0006142304,-0.0001337548,5.075,0,0
0.0016153658000000002,2.8965599999999993e-05,0.0018276980000000002,-0.00042217280000000007,-0.00028360120000000004,5.076,0,0
0.002332546,0.0006088988000000001,0.0019406420000000002,-0.0005806178000000001,-0.0002008749,5.077,0,0
0.0017844964000000001,0.0002920948,0.002052168,-0.0007597154,0.0002865049,5.078,0,0
0.0019442883999999999,0.0001673326,0.0018230920000000001,-0.0005500154000000001,0.00031268755999999995,5.079,0,0
0.0024448864,0.000727054,0.0016840120000000001,-0.0005475418000000001,-9.483224e-05,5.08,0,0
0.0013317143999999998,0.00023902700000000005,0.0009617600000000001,-0.0007045734,5.9274160000000006e-05,5.081,0,0
-0.00014330760000000017,-0.00039934820000000007,-0.0002077279999999999,-0.00036007359999999997,8.829386000000001e-05,5.082,0,0
-0.0005933520000000001,-0.00045813079999999995,-0.0007979439999999999,-9.683900000000001e-05,-0.00043439514000000005,5.083,0,0
-0.001409118,-0.0010203426,-0.0015072599999999998,-0.000300439,-0.00030940859999999994,5.084,0,0
-0.002793704,-0.0017792626000000002,-0.0024417279999999998,-0.00017134059999999998,8.182594000000001e-05,5.085,0,0
-0.0026826540000000005,-0.0006714586000000002,-0.002427144,0.00014825559999999998,-6.329705999999999e-05,5.086,0,0
-0.0017310944,0.0013505014,-0.0019236380000000003,-0.0001702204,-0.000103930954,5.087,0,0
-0.0015056117999999999,0.001519721,-0.00254524,-0.0002084854,2.1439846000000017e-05,5.088,0,0
-0.0007920878,0.001298193,-0.0024604400000000004,8.107200000000004e-05,-0.000307220754,5.089,0,0
0.00034924220000000006,0.0014685646,-0.0008982319999999998,-0.0001733744,-0.00047674069400000007,5.09,0,0
0.0006331360000000001,0.0008196173999999999,0.00026259000000000005,-0.0003005886,-0.00022623769399999995,5.091,0,0
0.0011710344000000002,-5.9330599999999896e-05,0.0010050200000000001,0.0002500746,-0.000147162,5.092,0,0
0.0025674858,0.0001767664,0.00193067638,0.000655449,-0.0001360434,5.093,0,0
0.0030401538,0.0006523284,0.00266860238,0.000583100598,9.57702e-05,5.094,0,0
0.0027800242000000004,0.0005980862,0.00254347438,0.000912706998,0.0005244656,5.095,0,0
0.0032680084000000003,0.0007739914,0.00182392958,0.0011176573980000001,0.0006185372,5.096,0,0
0.0032708824000000003,0.0008752074,0.00118876718,0.000854222598,0.0005033632,5.097,0,0
0.0017300724,0.0004481992,0.0012103052,0.000599528798,0.000469126264,5.098,0,0
0.0003425663999999998,-0.00041203879999999994,0.0007131524,0.0003435337999999999,0.00022456806399999996,5.099,0,0
-0.0001557640000000003,-0.0014521582,-0.0005620356,4.2271599999999977e-05,-0.00020735173600000003,5.1,0,0
-0.001366384,-0.0030248542,-0.0009937588,2.815599999999994e-05,-0.0005403927360000001,5.101,0,0
-0.0026783480000000005,-0.0046597022,-0.0011569384,0.00020040279999999997,-0.0005339177360000001,5.102,0,0
-0.0025996400000000003,-0.0046348694,-0.0016023428,0.0003983706,-0.0004610352,5.103,0,0
-0.002302554,-0.0034851713999999997,-0.001733676,0.0007881664000000001,-0.00047629119999999996,5.104,0,0
-0.002431202,-0.002066261,-0.0014505988,0.0009947262,-0.00047385099999999996,5.105,0,0
-0.0017204078,7.118999999999984e-06,-0.0011636278600000002,0.0009177182000000002,-0.0004026818,5.106,0,0
-0.0010128176600000002,0.001273669,-0.0007693702600000002,0.00036017420000000007,-0.00030777379999999996,5.107,0,0
-0.0014499276600000001,0.0010620183999999998,-0.00043215426000000007,-8.149780000000001e-05,-0.00037146495999999997,5.108,0,0
-0.00137662566,0.0010836338,-8.751886e-05,-0.00020290810000000002,-0.00045528296000000006,5.109,0,0
-0.0005028696600000002,0.0012642814,0.00056309994,-0.0007391917000000002,-0.00031874236000000003,5.11,0,0
-0.0005343876500000001,0.0008723414000000001,0.0005781524,-0.0013830645,0.00021124783999999997,5.111,0,0
-0.0009149337900000001,0.0009618734000000002,0.000379236,-0.0014835065000000003,0.00077181384,5.112,0,0
2.6578209999999895e-05,0.0015513714,0.000671874,-0.0014798345000000004,0.001318853,5.113,0,0
0.0004906458099999999,0.0013630892000000001,0.00043116979999999997,-0.0017273500000000003,0.0021277789999999998,5.114,0,0
-0.00043908019000000006,0.0006173412,-0.00024319020000000002,-0.0012204886000000002,0.002394486,5.115,0,0
-0.0006469404000000001,0.00021883491999999995,-0.00012098640000000007,-0.0005461048,0.0018468004000000001,5.116,0,0
-0.0004980584,0.00015722091999999992,-7.148960000000003e-05,-0.0005018048000000001,0.0012062084,5.117,0,0
-0.0013286603999999999,8.110131999999995e-05,-0.0007029216,-0.0003981678,0.0007385718000000001,5.118,0,0
-0.001730318,0.00035779812,-0.0008226647999999999,-5.016079999999997e-05,0.00023867398000000002,5.119,0,0
-0.0008675340000000001,0.00138077412,-0.000806808,-2.255979999999996e-05,-0.00024384602000000004,5.12,0,0
-0.000431904,0.0016427884000000002,-0.0012173152000000001,-0.0003493092,-0.00025685622000000006,5.121,0,0
-0.00016563959999999996,0.0010057484000000002,-0.0008821472000000001,0.00013520600000000002,-0.00019986022000000004,5.122,0,0
0.0010353544000000002,0.0011654480000000001,0.0002911628,0.0007291330000000001,-0.0005730936199999999,5.123,0,0
0.0019245244,0.0012750220000000002,0.0009380748,0.0007575032,-0.0006871004000000001,5.124,0,0
0.0020567084,0.0006938016000000001,0.0011723852,0.0012764628000000002,-0.0006570924,5.125,0,0
0.0028608004000000003,0.0010243956,0.0013137058,0.0019544224,-0.0012093286000000002,5.126,0,0
0.003971288,0.0017570536000000002,0.0012371598,0.0015986934000000001,-0.0015976146,5.127,0,0
0.003762508,0.0014503723999999998,0.0011622238,0.0006040794,-0.0012412046000000003,5.128,0,0
0.0030432337999999996,0.0010839014000000003,0.0010558618,0.00011879020000000003,-0.0011041452000000002,5.129,0,0
0.0025060898,0.0009633398000000003,0.0010433504,-0.0007702718,-0.0008081678000000001,5.13,0,0
0.0009683678000000001,-0.0001774041999999999,0.0004847158000000002,-0.0015410958000000002,0.0003120722,5.131,0,0
-0.0012997102,-0.0017897182,-0.0005142342000000001,-0.0013456096000000002,0.0008652002,5.132,0,0
-0.0027978461999999997,-0.002489217,-0.0009648062000000002,-0.00082395866,0.0008577532,5.133,0,0
-0.003724826,-0.003198952,-0.0013856880000000002,-0.0004641863400000001,0.000957017,5.134,0,0
-0.004768962,-0.004154626,-0.0018940538000000002,-0.0003151363400000001,0.0006093316,5.135,0,0
-0.005067576000000001,-0.0037678172,-0.0011231390000000002,0.00027848166000000004,-0.00017273240000000007,5.136,0,0
-0.0042472460000000005,-0.0022633312000000004,-7.5339e-05,0.00029163526000000004,-0.0005876584,5.137,0,0
-0.0033578412,-0.0011706792,-0.00030476988,-4.269768000000001e-05,-0.0006179742,5.138,0,0
-0.0021603012000000004,0.00034198080000000014,-0.00017333527999999999,3.395920000000003e-05,-0.0009501828000000002,5.139,0,0
-0.00036339519999999993,0.0023740087999999998,0.00044714292,8.92578e-05,-0.0008742056000000002,5.14,0,0
0.0008937147999999999,0.003336392,0.00057955012,-8.721540000000003e-05,-0.00021751160000000003,5.141,0,0
0.0017146788000000001,0.003918958,0.0005759461200000001,-8.974079999999999e-05,0.0002998744000000001,5.142,0,0
0.0028181120000000002,0.004528982,0.0009147710000000002,-6.295279999999999e-05,0.0006200092000000001,5.143,0,0
0.00348852,0.004407899999999999,0.0013475242000000002,-0.0006079459999999999,0.0009563762000000002,5.144,0,0
0.003212368,0.0036228779999999995,0.001196418,-0.0010416266,0.0011326530000000002,5.145,0,0
0.0032680360000000006,0.0032992259999999997,0.001335714,-0.0013361248,0.0008453442000000001,5.146,0,0
0.003043386,0.0024873402000000003,0.0015268420000000003,-0.0013450302,0.000669582,5.147,0,0
0.0014585139999999997,0.0003007042,0.0010002410000000002,-0.0009965526,0.00032302347999999995,5.148,0,0
0.00019309000000000004,-0.0014184038000000002,0.00046896440000000013,-0.00023526460000000004,-9.985752000000003e-05,5.149,0,0
-0.0003023368,-0.0024465738,8.878240000000006e-05,0.00047084940000000005,-6.249412000000002e-05,5.15,0,0
-0.0014152308000000002,-0.0041147957999999995,-0.0008635756,0.0005399338000000001,6.645947999999997e-05,5.151,0,0
-0.0025598348000000003,-0.005505964,-0.0020208856000000002,0.0007624526,0.00015469167999999995,5.152,0,0
-0.0021699968000000003,-0.0050839200000000005,-0.0022448706,0.001041367,0.00036864419999999996,5.153,0,0
-0.0016950998,-0.0043216,-0.0020602758,0.0009047174000000001,0.0007306312,5.154,0,0
-0.0016541558,-0.0035298380000000004,-0.0019101818,0.0011185374,0.0005394468,5.155,0,0
-0.0006340298000000002,-0.0019136680000000005,-0.0013617438,0.0018356784,9.701000000000002e-05,5.156,0,0
0.0006485722,-0.0003882562000000002,-0.000551766,0.0017354854,-9.91566e-05,5.157,0,0
0.0011992382,0.00040836039999999995,0.000105582,0.00140918538,-0.000230705,5.158,0,0
0.0017001012,0.0008852796,0.0010285738,0.00171925098,-0.000524508,5.159,0,0
0.002371184,0.0013757836,0.0020340598,0.00136178258,-0.000894317,5.16,0,0
0.002032948,0.0017440476,0.0025821437999999997,0.00025350058,-0.0007570822,5.161,0,0
0.001209566,0.0027087498,0.0026752793999999997,-0.00013037641999999995,-0.00044398159999999996,5.162,0,0
0.001402148,0.0033792952,0.0016687854,-0.0001515583999999999,-0.00023344119999999994,5.163,0,0
0.001260644,0.0025445740000000004,0.0003456753999999999,-0.0011460924000000002,0.0005189188000000002,5.164,0,0
-0.0002114040000000001,0.0014191380000000003,9.96614e-05,-0.0016654760000000002,0.0015744848,5.165,0,0
-0.0007461120000000001,0.0006996058000000001,5.5271399999999886e-05,-0.0011455784,0.0016603120000000004,5.166,0,0
-0.0008167140000000002,-0.0010544962,-0.0001412420000000001,-0.0011779804,0.0011869863999999998,5.167,0,0
-0.002474324,-0.0033853762,-0.0001065660000000001,-0.0012592726,0.0008870608199999999,5.168,0,0
-0.0034080660000000004,-0.0030193882000000005,-0.0005414640000000001,-0.0005987852000000001,0.00030479522,5.169,0,0
-0.0023993534000000005,-0.0014664602,-0.0009828638000000001,-0.00014741599999999999,-0.0005841007800000001,5.17,0,0
-0.0019780664000000002,-0.0014727506,-0.0011892678000000002,-0.0005209036,-0.0006392855800000001,5.171,0,0
-0.00152634352,-0.0009162002,-0.0014529858000000002,-0.0006667655999999999,-0.00011135198000000008,5.172,0,0
0.00028127647999999993,0.0010421358,-0.000766779,-0.0005275856,-0.00020729020000000007,5.173,0,0
0.00142973648,0.0017724998000000001,0.000138445,-0.0005581274,-9.325720000000009e-05,5.174,0,0
0.00161284388,0.0012732978000000001,0.0001589616,-0.00022210060000000007,0.00038066699999999995,5.175,0,0
0.0022006008800000004,0.0018954184,0.00047584160000000006,0.0005289254000000001,0.0003301853999999999,5.176,0,0
0.0030825979999999998,0.0028676500000000002,0.0009140522000000001,0.0009391574000000001,-9.682740000000004e-05,5.177,0,0
0.003119488,0.003054536,0.0007767254,0.0007302042000000001,-0.00012769840000000004,5.178,0,0
0.0029598980000000003,0.0030366680000000006,0.0008480882,0.0005340254,-0.0001046734,5.179,0,0
0.0031062500000000005,0.0022956160000000003,0.000908776,-2.723399999999995e-06,4.065439999999994e-05,5.18,0,0
0.0020654880000000003,-0.00016637800000000023,0.00011289199999999999,-0.0005407026,0.00019369358,5.181,0,0
0.00019622800000000011,-0.0027280620000000003,-0.0003139646,-0.0002127425999999999,3.492380000000013e-06,5.182,0,0
-0.0009166280000000001,-0.003999910000000001,-0.00014160808000000002,0.0003719868000000001,-0.00014503082000000007,5.183,0,0
-0.00196573,-0.0050087000000000005,-0.0005452228800000001,0.0007488240000000001,-0.0006358372200000001,5.184,0,0
-0.0033425060000000003,-0.005289504,-0.0010658954800000001,0.0010539200000000003,-0.00117477522,5.185,0,0
-0.00344133,-0.004159104,-0.0013004454800000002,0.0012301692,-0.00164925,5.186,0,0
-0.0029656840000000005,-0.0029659200000000004,-0.00152101148,0.0009648452000000002,-0.0017792840000000001,5.187,0,0
-0.0033447980000000004,-0.0023086098000000004,-0.002235322,0.0003677236,-0.0015537762,5.188,0,0
-0.003202148,-0.0010891278,-0.002775516,5.4041600000000035e-05,-0.0014456022000000001,5.189,0,0
-0.0019103260000000002,0.0004551322,-0.0026643780000000002,-0.0002948116,-0.0016557102,5.19,0,0
-0.0008772160000000001,0.0015648982,-0.00218975444,-0.0008540756,-0.0015933662,5.191,0,0
0.00017653800000000006,0.0028782242,-0.00148831244,-0.0008234200000000001,-0.0010318242,5.192,0,0
0.002100526,0.004546632,-0.00033416244,-0.0004709374000000002,-0.00098203782,5.193,0,0
0.0037317640000000003,0.005404638,0.00098355556,-0.00045157478000000013,-0.00070623062,5.194,0,0
0.0038121400000000003,0.005085946,0.0015543475600000001,-0.00017903618,2.569338000000008e-05,5.195,0,0
0.0033513220000000003,0.0047377372,0.0015658304000000002,0.00037132682000000003,0.00022449758000000006,5.196,0,0
0.0028503348,0.0036561232,0.0010555664000000003,-5.350877999999999e-05,6.853580000000061e-06,5.197,0,0
0.0008952788000000003,0.0010916631999999997,8.320840000000012e-05,-0.00070563378,0.00039288740000000005,5.198,0,0
-0.0014085311999999998,-0.0013180548000000002,-0.0007649995999999999,-0.00069863162,0.0006920882000000001,5.199,0,0
-0.0024354452,-0.0025955068000000003,-0.0013247516,-0.00065141642,0.00047998940000000003,5.2,0,0
-0.0032668312,-0.0037538240000000002,-0.001856892,-0.0007695508200000001,0.0010720272,5.201,0,0
-0.004295188,-0.004654316,-0.0016872166,-0.00034564982,0.0013824612000000003,5.202,0,0
-0.0039153980000000005,-0.004293636,-0.0005035366000000002,0.00057004218,0.0009430896,5.203,0,0
-0.0029236062,-0.0037427720000000005,0.0005503954,0.00047502940000000005,0.0008774056,5.204,0,0
-0.0024944236,-0.0032925820000000005,0.0012641314,0.00017000559999999997,0.0009368848000000001,5.205,0,0
-0.0010445356000000003,-0.0016513679999999998,0.0022090193999999997,0.000559569,0.0005266228000000001,5.206,0,0
0.0008367704000000001,0.0005479260000000001,0.00304425,0.0003751694,0.00010810580000000001,5.207,0,0
0.0017085584000000001,0.0013041198000000001,0.00311903,-0.00034249260000000006,-0.0001608806,5.208,0,0
0.0025458886,0.0017358482000000002,0.002586206,-0.0002608226,-0.0007068806000000001,5.209,0,0
0.004084236,0.0028262162000000004,0.0024565060000000002,0.000123208,-0.0008453644000000001,5.21,0,0
0.004500662,0.0028822042000000003,0.00258137,2.7522000000000012e-05,-0.0008989730000000001,5.211,0,0
0.00429707,0.0023525382,0.002217676,0.000243477,-0.0011034260000000002,5.212,0,0
0.004847880000000001,0.0024306844,0.002112748,0.0005882768,-0.0009766046,5.213,0,0
0.0039994257999999994,0.0019194280000000001,0.002291022,0.0004721898,-0.0006619046,5.214,0,0
0.0019467958000000004,0.00044395200000000017,0.0018504080000000002,0.00023142839999999997,-8.170119999999996e-05,5.215,0,0
0.0002985418000000001,-0.0006674039999999999,0.0013497335999999999,9.151560000000001e-05,0.00043686540000000007,5.216,0,0
-0.0010258842,-0.001763418,0.0007548475999999999,7.969300000000004e-05,0.0009549570000000001,5.217,0,0
-0.0027567842,-0.003041716,-0.0005639364,0.00027241920000000005,0.0013878176000000002,5.218,0,0
-0.003946568,-0.0036334360000000003,-0.0014362744,0.0007639722000000001,0.0015878580000000002,5.219,0,0
-0.0038141360000000005,-0.0035022139999999996,-0.0017457784,0.0013392070000000002,0.001229471,5.22,0,0
-0.0036004780000000007,-0.0032195072,-0.002458938,0.0013963996000000002,0.0006982282,5.221,0,0
-0.0036074680000000004,-0.0027472912,-0.002906844,0.0011338732,0.0007129646000000001,5.222,0,0
-0.0026332428000000003,-0.0008733072,-0.002629876,0.0008085998000000001,0.0005404374000000001,5.223,0,0
-0.0007086708000000002,0.0014285248000000003,-0.0024719060000000003,5.79038000000001e-05,0.00035771700000000007,5.224,0,0
0.0005515692,0.0029168068000000004,-0.0021597552000000002,-0.0007068122000000001,0.00035221600000000003,5.225,0,0
0.0021741172,0.004562116000000001,-0.0013936591999999999,-0.0009429166,0.0005002612,5.226,0,0
0.0039116292,0.005695294,-0.00046835720000000015,-0.001024162,0.00040209,5.227,0,0
0.004409864,0.005425948000000001,0.00035597879999999996,-0.0011328328000000001,-5.46368e-05,5.228,0,0
0.0044545520000000005,0.004327413400000001,0.0006984782,-0.0010553708,-0.00030639480000000004,5.229,0,0
0.0036901799999999995,0.0026929314,0.00044521740000000006,-0.0010883008,-0.00023564680000000003,5.23,0,0
0.0016835560000000001,0.00043733339999999996,-0.0001696566000000001,-0.0012115742,9.349679999999993e-05,5.231,0,0
-0.000544974,-0.0013883106,-0.00042030660000000005,-0.0011091470000000002,0.0003088479999999999,5.232,0,0
-0.0023716320000000003,-0.0022048926,-0.0004526926000000001,-0.0009399988000000001,0.0007969912,5.233,0,0
-0.0038289400000000003,-0.0022619092,-0.00089444,-0.0005624133999999999,0.000998351,5.234,0,0
-0.004511732,-0.0020118512,-0.0013594120000000002,6.82366000000001e-05,0.0005420090000000001,5.235,0,0
-0.004260626,-0.0023837992,-0.0007747076,0.0005559926,9.648999999999975e-06,5.236,0,0
-0.0033049256000000004,-0.0028907592,-0.0002207976000000001,0.0007161326,-0.000577773,5.237,0,0
-0.0024760276000000006,-0.0032940792,-0.00036981359999999997,0.0007075126,-0.0008753238000000001,5.238,0,0
-0.0017921478,-0.00321689,0.00031338039999999996,0.0008249176000000001,-0.000903644,5.239,0,0
-0.0008614338,-0.002109692,0.0014823204,0.000673812,-0.0008750046,5.24,0,0
-0.0004517493999999999,-0.00019051600000000006,0.001673978,0.00047923120000000006,-0.0008940012,5.241,0,0
-0.00016015699999999994,0.00230295,0.001565586,0.000839254,-0.0007789268,5.242,0,0
0.0009253470000000001,0.0042780760000000004,0.0019639520000000006,0.001198246,-0.0006181678,5.243,0,0
0.0017819132000000003,0.004352674000000001,0.0019047240000000002,0.001080763,-0.00042281960000000005,5.244,0,0
0.0022117552,0.003339162,0.0017517500000000003,0.0006297545999999999,4.1972999999999945e-05,5.245,0,0
0.0030658988000000003,0.003204098,0.001970046,0.0002784174,0.0004388716,5.246,0,0
0.0034764440000000004,0.0027400060000000006,0.0018150880000000003,-0.0003658906,0.0008344432,5.247,0,0
0.002637328,0.001121726,0.0009132179999999999,-0.0013629046,0.0010680834,5.248,0,0
0.0015410480000000002,0.0005129100000000001,0.0002759959999999999,-0.0018040220000000002,0.0008830362000000001,5.249,0,0
0.001134654,0.000691826,-2.3786600000000075e-05,-0.00172682,0.00039601819999999995,5.25,0,0
0.00025116120000000003,-0.0006799519999999999,-0.0009144186,-0.00169196,9.982980000000001e-05,5.251,0,0
-0.0011977968,-0.0027525320000000002,-0.0018928406,-0.0014558800000000003,-0.00034204920000000005,5.252,0,0
-0.0019083108000000001,-0.003414622,-0.0022458846000000003,-0.0006718130000000001,-0.0012660848,5.253,0,0
-0.0024032908,-0.0033409219999999996,-0.0022918326000000004,-2.5146999999999995e-05,-0.0016761014,5.254,0,0
-0.0033730828,-0.003551798,-0.002701002,0.0003254636,-0.0017564994,5.255,0,0
-0.003434612,-0.003122014,-0.00251605,0.0007152464,-0.0021060569999999997,5.256,0,0
-0.0022256460000000004,-0.0017218638,-0.0017302596000000003,0.0008714727999999999,-0.0017379531999999998,5.257,0,0
-0.001131324,-0.0005472278,-0.0008651336000000001,0.00075106564,-0.0006216951999999999,5.258,0,0
0.000147864,0.00020561819999999998,0.00027512040000000015,0.00035457424,-0.00018909139999999987,5.259,0,0
0.001990052,0.0010368242,0.0012445924,-0.00018544236000000002,0.0003388466,5.26,0,0
0.0033820380000000004,0.0016960442000000001,0.0017487144,-0.00048059396000000004,0.0011776406000000002,5.261,0,0
0.00393465,0.002069916,0.002062572,-0.0005554565600000001,0.00102354,5.262,0,0
0.004839526,0.0024671320000000004,0.002152822,-0.0004902412,0.0005229866,5.263,0,0
0.00514869,0.0024178380000000003,0.001319412,-0.00025651700000000005,0.0005570168,5.264,0,0
0.0037311019999999996,0.0016340520000000002,0.000368012,0.00016792239999999998,0.0006322808000000001,5.265,0,0
0.0022524599999999995,0.0004900360000000001,-4.7578399999999944e-05,0.0005715192,0.0003353768,5.266,0,0
0.0004364379999999997,-0.0009476559999999998,-0.0007140963999999999,0.0006595100000000001,0.0005991385999999999,5.267,0,0
-0.0024165180000000003,-0.0026471259999999996,-0.0014366424,0.0006214298000000001,0.001365932,5.268,0,0
-0.004518654,-0.0039332740000000005,-0.0014389722,0.000722019,0.0015092078,5.269,0,0
-0.005112032000000001,-0.00391117,-0.0015641422,0.0008085194,0.0012671662000000004,5.27,0,0
-0.0054469240000000006,-0.0032589974,-0.0021728418000000003,0.0006076816000000001,0.0012580512000000001,5.271,0,0
-0.005377904,-0.0023687308,-0.0021149278000000002,0.000719421,0.0010067384,5.272,0,0
-0.0040965,-0.0007175808,-0.0018317146,0.001066974,0.0002596568,5.273,0,0
-0.0026941908000000002,0.0005230191999999999,-0.0016875278,0.0009000627999999999,-0.000232661,5.274,0,0
-0.0018039080400000002,0.0008360794,-0.0007946817999999999,0.0005921634000000001,-0.0004602526,5.275,0,0
-0.00014992404000000012,0.0016244768,0.00043063819999999997,0.00042625480000000004,-0.00047500140000000004,5.276,0,0
0.00189797796,0.0023922761999999997,0.0015674482,9.133380000000003e-05,-0.0003797348,5.277,0,0
0.0026811419600000002,0.0017984762,0.002555205,-0.0004678792,-0.00020741540000000005,5.278,0,0
0.00319225676,0.0013941430000000002,0.0032928519999999998,-0.0006379454,0.00015200659999999998,5.279,0,0
0.0039033859999999996,0.0017764508,0.0040827020000000006,-0.0007474258,7.263579999999999e-05,5.28,0,0
0.0032179120000000003,0.0010837788000000001,0.0035657884,-0.0010745934000000001,-0.00016100500000000003,5.281,0,0
0.001865646,-6.021919999999999e-05,0.0018858243999999996,-0.0009271503999999999,-0.0003876778,5.282,0,0
0.001017576,-0.00018186340000000002,0.0009395566000000001,-0.0008614474,-0.0006874516,5.283,0,0
-0.00015992600000000012,-5.6201200000000013e-05,-0.00016446339999999992,-0.000976258,-0.000549778,5.284,0,0
-0.0017932960000000002,-0.0005584688000000002,-0.0021349514,-0.0005925978,-0.0002799914,5.285,0,0
-0.002909168,-0.0008369208,-0.0027446238000000006,-0.0002941876,-0.0004755428,5.286,0,0
-0.003015798,-0.0004038482,-0.0019883818,-0.0005016344,-0.0005602874,5.287,0,0
-0.002906428,-0.0003376172,-0.0021925840000000005,-0.00020643559999999997,-0.00037656380000000006,5.288,0,0
-0.0024366786,-0.00045036819999999994,-0.002243488,0.00029271840000000005,-0.0005583942,5.289,0,0
-0.0007807946000000001,0.00018783740000000003,-0.0011646292,0.00022446340000000008,-0.0007999388000000001,5.29,0,0
0.0008632034,0.0010965694,-0.00052250772,0.0004298838000000001,-0.0005817692000000001,5.291,0,0
0.0020831814,0.0016586948000000001,-0.00071139512,0.0005899492,-0.00026457560000000006,5.292,0,0
0.0037600754,0.002546636,-0.0002686071200000001,0.0004410258000000001,-0.00031437960000000004,5.293,0,0
0.0053640960000000005,0.003547376,0.00060449288,0.000172432882,-0.0002793828,5.294,0,0
0.005894454,0.0034143640000000005,0.0008249500800000001,-0.00016288831799999998,6.56682e-05,5.295,0,0
0.006042726,0.0031172860000000004,0.0013418266000000002,-6.009071799999998e-05,0.0002788566,5.296,0,0
0.00546862,0.0031018780000000006,0.0019328820000000001,9.3362282e-05,0.000257097,5.297,0,0
0.003155318,0.001741904,0.0016165496,0.00021518828200000004,0.0003179114,5.298,0,0
0.0004384539999999998,-0.00013386600000000006,0.0009064196000000001,0.0006878552,0.00011568940000000001,5.299,0,0
-0.0017602980000000002,-0.0011885700000000001,0.0003856664000000001,0.001053461,-0.00030078959999999997,5.3,0,0
-0.004168702000000001,-0.0026825620000000003,-0.0007203076,0.0007266684,-0.00049741,5.301,0,0
-0.006108130000000001,-0.004183142000000001,-0.0018099015999999998,0.00046057779999999994,-0.0007048867999999999,5.302,0,0
-0.005654898,-0.004014754000000001,-0.0019919532,0.0005331883999999999,-0.0007233540000000001,5.303,0,0
-0.0042694486,-0.0038276200000000003,-0.0019994972,0.0004295484,-0.0006134748000000001,5.304,0,0
-0.0034416100000000003,-0.004055166000000001,-0.001611484,0.0006105726,-0.0006048448,5.305,0,0
-0.001882815,-0.0029816388000000003,-0.0006998899999999999,0.0007476146000000001,-0.0007050731999999999,5.306,0,0
0.000226739,-0.0021892698,2.122860000000011e-05,0.00044500559999999993,-0.0005235332,5.307,0,0
0.001092703,-0.0020735578000000005,0.0004162578000000002,-0.00013350440000000003,-9.809399999999996e-05,5.308,0,0
0.0016089076000000001,-0.0005463158000000001,0.0009609078000000002,-0.0009148964,0.0002585988,5.309,0,0
0.002965947,0.0014065001999999998,0.0012987218000000003,-0.0015702684,0.0010559228000000002,5.31,0,0
0.0037947020000000005,0.002202041,0.0015669418000000001,-0.002020918,0.0020766016,5.311,0,0
0.0035901880000000002,0.0025368686,0.0021074612,-0.0021345960000000003,0.0028308440000000008,5.312,0,0
0.0031626406,0.0035077506000000002,0.00247614,-0.0019259446000000004,0.0032086080000000004,5.313,0,0
0.0020997266,0.0039797086,0.0021636386,-0.0014753774,0.0033209620000000002,5.314,0,0
-0.0005566154000000002,0.0028208846000000003,0.0007318606000000001,-0.00092018,0.0031779760000000003,5.315,0,0
-0.0025697134000000005,0.0022417396,-0.0010248074000000001,-0.0004383711,0.0024596422000000002,5.316,0,0
-0.0034354074000000007,0.001879725,-0.001778401,-8.13329e-05,0.0013402702,5.317,0,0
-0.004697482000000001,-0.0008860309999999998,-0.0014079490000000001,-8.293499999999991e-06,0.0005659422000000001,5.318,0,0
-0.005101708000000001,-0.004003413,-0.0009365316000000002,-4.1235360000000006e-05,0.00010447279999999997,5.319,0,0
-0.0038726062000000003,-0.004562381,-0.0002110537999999999,-0.00013411555999999998,-0.0008813892000000001,5.32,0,0
-0.0031191022000000004,-0.004872744,0.0006918722000000001,-0.0004450684600000001,-0.0018183373999999999,5.321,0,0
-0.0025156956000000003,-0.0047749472,0.0005951218000000002,-0.00046031366000000003,-0.0021162054,5.322,0,0
-0.00033441959999999996,-0.0022185291999999995,-0.00016009359999999997,-1.8022460000000084e-05,-0.0026833554,5.323,0,0
0.0010457904000000001,-0.0001310452000000001,-0.000490261,0.00019058219999999997,-0.00308099,5.324,0,0
0.0016467386000000002,0.0007625888000000001,-0.000229661,0.00039390499999999995,-0.0025509508,5.325,0,0
0.0030671266,0.0018317788000000003,0.00044519099999999995,0.001073727,-0.0019910148,5.326,0,0
0.0042128420000000005,0.0027112000000000004,0.001351021,0.0014531639999999998,-0.0016657088000000002,5.327,0,0
0.004163342,0.0023791916000000003,0.0017119464000000001,0.0013179760000000002,-0.0012410298,5.328,0,0
0.0037581914000000007,0.0023356736,0.0019178018,0.001363456,-0.00074155132,5.329,0,0
0.0035142534000000003,0.0027813096000000002,0.002114184,0.0012499796,-8.311452e-05,5.33,0,0
0.0020049714000000005,0.0015365856000000002,0.0013761980000000001,0.0009054842000000001,0.0006047474799999999,5.331,0,0
-3.0848599999999866e-05,-0.00029436840000000007,0.000399966,0.0008253264000000001,0.00112022948,5.332,0,0
-0.0012304286,-0.00104034,3.248739999999999e-05,0.0008492924,0.00180156448,5.333,0,0
-0.0023304579999999997,-0.001495338,-0.00039953220000000004,0.0007965024000000001,0.002118062,5.334,0,0
-0.003832642,-0.003006572,-0.0011096182,0.0008596528000000001,0.001542868562,5.335,0,0
-0.00437591,-0.0034560220000000004,-0.0014179442,0.0010027952,0.0009549369620000001,5.336,0,0
-0.004095516,-0.0021931552,-0.0017631282000000002,0.0008530330000000001,0.00036086296200000005,5.337,0,0
-0.0047156360000000005,-0.0016181186999999998,-0.0023188076,0.00045115480000000005,-0.00040280303800000004,5.338,0,0
-0.004397872000000001,-0.0017144607,-0.002467682,0.0001371972,-0.000733119038,5.339,0,0
-0.002691716,-0.00043723069999999995,-0.0019137100000000003,-1.208800000000001e-05,-0.0009469476000000001,5.34,0,0
-0.00128858,0.0014349173000000003,-0.0012729173000000002,-1.1256800000000017e-05,-0.00101822,5.341,0,0
0.00032361200000000003,0.0019515105000000002,-0.0009859693,4.039760000000001e-05,-0.00035953799999999996,5.342,0,0
0.002796948,0.0029959600000000006,-0.0006461859,1.1869000000000018e-05,0.00013776,5.343,0,0
0.004572136,0.004750828,-0.0006862959,0.00010128660000000002,1.3787800000000051e-05,5.344,0,0
0.004558508,0.005173624000000001,-0.0009268535000000001,-9.738659999999998e-05,0.00024421334,5.345,0,0
0.0046679059999999994,0.004742392000000001,-0.00033923220000000003,-0.0005537328,0.0006394243399999999,5.346,0,0
0.0046770299999999996,0.0039292141999999995,0.0006746158,-0.0009658291999999999,0.00022116154,5.347,0,0
0.0031938159999999995,0.0020022522000000004,0.0014255224000000002,-0.0012462384,-0.00011443445999999999,5.348,0,0
0.0017396200000000003,-0.00012637779999999984,0.0026421884000000003,-0.0012701522000000002,-0.00023957826,5.349,0,0
0.0013269452,-0.0018196858,0.0031754980000000006,-0.0011864436000000001,-0.0007418098,5.35,0,0
0.00018022919999999992,-0.0036554238000000004,0.0018807120000000005,-0.0008827301999999999,-0.0005980748,5.351,0,0
-0.0017297748000000002,-0.004554856,0.0003159600000000001,-0.000462037,9.462999999999995e-05,5.352,0,0
-0.0021699168000000003,-0.004023142,-0.0011819399999999998,-8.02246e-05,0.00034210079999999997,5.353,0,0
-0.0022234708000000002,-0.0034699738,-0.0027740100000000004,-0.0002205892,0.000512236,5.354,0,0
-0.003016182,-0.0032440717999999997,-0.0037207760000000003,-0.00031799560000000005,0.0009502652000000002,5.355,0,0
-0.0025449318,-0.0024862638,-0.0034902060000000005,-0.00017979719999999995,0.00033878519999999994,5.356,0,0
-0.0010498278,-0.0014284900000000001,-0.0025531420000000004,-0.00039925940000000004,-0.0007102568000000001,5.357,0,0
-0.0005494314,-0.0008736040000000003,-0.0016803738,-0.00025961999999999996,-0.0010286756000000001,5.358,0,0
-9.251599999999988e-05,-0.0003334202000000002,-0.0005732778000000001,0.00025690040000000004,-0.0010585420000000002,5.359,0,0
0.0017592560000000003,0.0009697898,0.0010909822,0.00029728440000000006,-0.0010263012000000001,5.36,0,0
0.0027381218000000003,0.0023602118,0.0026237202,-1.101399999999962e-06,-0.0008407264000000001,5.361,0,0
0.0024184778000000003,0.003076598,0.0035150482,0.00013794500000000005,-0.00037332460000000006,5.362,0,0
0.0033341114000000004,0.00362202,0.00445673,-2.8902799999999977e-05,-0.0003954036,5.363,0,0
0.0037807000000000006,0.00353236,0.00474153,-0.0005048668,-0.0005164864000000001,5.364,0,0
0.002132136,0.0023191139999999997,0.0034501684,-0.00039824220400000004,-0.00019214440000000002,5.365,0,0
0.0007628860000000002,0.0011201839999999998,0.0021516464000000003,-0.00033492560400000005,-5.2723200000000004e-05,5.366,0,0
-4.2459999999999915e-05,-9.96900000000002e-05,0.0012123157999999999,-0.00039604480400000006,4.224999999999994e-06,5.367,0,0
-0.002035276,-0.00187706,-0.0004438262000000001,-0.00018040820400000004,0.000655058,5.368,0,0
-0.003465484,-0.0027097659999999997,-0.0020333022,5.235195999999976e-06,0.001219998,5.369,0,0
-0.0034204500000000002,-0.00201627,-0.0025274805999999997,-0.00015079300000000003,0.0010475626,5.37,0,0
-0.003672016,-0.0018031910000000002,-0.0028031206,-0.00022088200000000002,0.0011913448,5.371,0,0
-0.0035329600000000004,-0.0013675669999999999,-0.003119352,0.0001084758,0.0013159748,5.372,0,0
-0.0024385204,0.000448151,-0.002582412,0.0004313372,0.000913415,5.373,0,0
-0.0015737303999999999,0.0013322190000000002,-0.00167467714,0.0005147904,0.0006706104,5.374,0,0
-0.000864776,0.0010300592,-0.0008175711399999999,0.0008038566000000001,0.0004975068,5.375,0,0
0.0006151939999999999,0.0016250562000000002,0.00043896486,0.001391611,0.0003155086,5.376,0,0
0.002067478,0.0024315022000000004,0.00166224486,0.0014699270000000002,0.000209191,5.377,0,0
0.0030472224000000006,0.0019481842000000002,0.00234402686,0.0009336892,6.887000000000017e-06,5.378,0,0
0.004002606400000001,0.0018727362000000001,0.0028356939999999997,0.0006649205999999999,-0.0002451056,5.379,0,0
0.004544112,0.002536144,0.003245734,0.0004323783999999999,-0.00047530660000000003,5.38,0,0
0.0036450410000000003,0.0019443336000000001,0.002776266,-0.0006097136,-0.0006266208000000001,5.381,0,0
0.001377229,0.0006130075999999999,0.0015553300000000002,-0.0014892816,-0.0007585426000000001,5.382,0,0
-0.0010095969999999999,-0.0005177424,0.0005970460000000001,-0.0015142254000000003,-0.0006741916000000001,5.383,0,0
-0.003381931,-0.0020117464,-0.00038536600000000005,-0.0015223976000000002,-0.0001652224,5.384,0,0
-0.005406955000000001,-0.0034848584000000005,-0.0018905080000000004,-0.0014658372000000003,0.0002201406,5.385,0,0
-0.006261920000000001,-0.004130058000000001,-0.002828422,-0.0007432432,-1.4179200000000028e-05,5.386,0,0
-0.00555184,-0.004052904,-0.002689558,-6.249200000000001e-05,-0.00024336180000000005,5.387,0,0
-0.004231316,-0.0033867166000000008,-0.0026750320000000004,0.0003010996000000001,-0.000425273,5.388,0,0
-0.0027296644000000007,-0.0019807816000000002,-0.002993088,0.0006392814,-0.001092207,5.389,0,0
-0.0006367204,-0.0004460575999999999,-0.002400714,0.00069823148,-0.0015934060000000001,5.39,0,0
0.0011857156,0.0007938744000000001,-0.0010864299999999998,0.0008850894800000001,-0.0016295620000000002,5.391,0,0
0.0023615196,0.0021390284,-0.00027373999999999996,0.00120727028,-0.0015196974000000001,5.392,0,0
0.0035339256000000005,0.0035931870000000003,0.000859908,0.00118168628,-0.001369878,5.393,0,0
0.004847434000000001,0.0044648560000000006,0.00249878,0.0009580072799999999,-0.001060406,5.394,0,0
0.005096036000000001,0.004070596,0.0033563919999999997,0.00046410859999999996,-0.000405504,5.395,0,0
0.0048424340000000005,0.0034630798000000003,0.003250836,-0.0002188974000000001,0.000356592,5.396,0,0
0.004589176,0.0030132378,0.0028406072000000003,-0.0008228014000000001,0.000570449,5.397,0,0
0.0030955180000000002,0.0022018638000000004,0.0020994668,-0.0013319514,0.0007905514,5.398,0,0
0.0010519900000000003,0.0014370138,0.0008426148000000003,-0.0014762448,0.0012910354,5.399,0,0
-0.0004771659999999999,0.0002638558000000002,-0.0005343112000000001,-0.0012382687999999999,0.0012224934000000002,5.4,0,0
-0.002249436,-0.0018561060000000002,-0.0016566471999999999,-0.00085135464,0.0011793094,5.401,0,0
-0.004251846,-0.00391322,-0.0024060784,-0.00064809124,0.0013986798000000002,5.402,0,0
-0.004583632000000001,-0.004632284,-0.0030520020000000003,-0.00042537064000000005,0.000984818,5.403,0,0
-0.0040696018,-0.005036097200000002,-0.003101312,-0.00016994204000000002,0.00017845000000000003,5.404,0,0
-0.0038174438,-0.005078389200000001,-0.0025622042000000003,3.200956000000001e-05,-0.00020050099999999996,5.405,0,0
-0.0023219618000000003,-0.0029352462000000004,-0.0017739982000000004,0.00023122140000000002,-0.0007326590000000001,5.406,0,0
-4.541380000000006e-05,-0.0005610681999999999,-0.0010117816000000002,0.000256177,-0.0011788226,5.407,0,0
0.0010973702000000001,0.0004670878000000001,-0.0004467719999999999,0.00040558019999999996,-0.0007694992,5.408,0,0
0.0019386120000000001,0.0020170350000000004,0.00017325980000000002,0.0007550564000000001,-0.0002719189999999999,5.409,0,0
0.003232078,0.003751317,0.000729592,0.000908598,0.0002693100000000001,5.41,0,0
0.0034113480000000007,0.003881839,0.0012049320000000001,0.0008476538000000001,0.001000978,5.411,0,0
0.0031277100000000006,0.0032220662,0.0020307014000000003,0.0011640008,0.0013951096,5.412,0,0
0.0035801780000000007,0.0027097722,0.0028993038,0.001545259,0.0014558642000000001,5.413,0,0
0.0033411120000000002,0.0010966316,0.0026759198000000004,0.001347801,0.0014799414000000002,5.414,0,0
0.0016269320000000002,-0.0010574064,0.0019752758,0.0010103478,0.00113546,5.415,0,0
0.00017604600000000001,-0.0023290313999999998,0.0014074304,0.0011003100000000002,0.0007725268,5.416,0,0
-0.001149654,-0.0034384826,0.00044468399999999993,0.0008461998,0.0008054808,5.417,0,0
-0.003449458,-0.0049562266,-0.0008071540000000002,4.971979999999994e-05,0.0007284182000000001,5.418,0,0
-0.0051658220000000005,-0.005728220000000001,-0.0015156338,-0.00018555020000000005,0.0007768808,5.419,0,0
-0.005196114,-0.004683650000000001,-0.0016073018,8.858460000000002e-05,0.0005825428000000001,5.42,0,0
-0.004895222,-0.0036600746,-0.0021129384,-0.00012484500000000003,0.000141212,5.421,0,0
-0.004754732,-0.0028615726,-0.002393052,-0.00016568140000000002,-7.00424e-05,5.422,0,0
-0.0033872282,-0.0006656106000000001,-0.0015676700000000002,0.0003387034,-0.00032215780000000005,5.423,0,0
-0.0015641142,0.0010476534,-0.0006775492,0.0003823038,-0.0005004198,5.424,0,0
-0.0005010201999999999,0.0012838100000000002,-2.990920000000007e-05,0.000258436,-0.0002842830000000001,5.425,0,0
0.0010489538,0.0024683806000000003,0.0009984948,-6.019039999999998e-05,-6.55544e-05,5.426,0,0
0.0035521937999999998,0.0040625606,0.0018661507999999999,-0.00035564980000000004,-0.000242541,5.427,0,0
0.0051755080000000005,0.0037930406000000003,0.0021102228000000004,-0.00048263660000000003,-0.00016927860000000002,5.428,0,0
0.005786102,0.0037175426,0.0025359939999999997,-0.0008635229999999999,-8.307000000000003e-05,5.429,0,0
0.006860752,0.0048602,0.0028202699999999997,-0.001495278,-0.0001781346,5.43,0,0
0.006955258,0.004512384000000001,0.0020039064000000003,-0.0018771880000000001,6.407640000000002e-05,5.431,0,0
0.0052193258,0.0026021000000000004,0.0011173523999999998,-0.0017652841999999998,0.0005268054,5.432,0,0
0.0035469298,0.0009092560000000002,0.0007568426,-0.0018352842000000002,0.0005995791200000001,5.433,0,0
0.0017938538,-0.001034902,-0.00011779939999999995,-0.0014928482,0.00028533272000000006,5.434,0,0
-0.0006010302000000001,-0.0032767820000000007,-0.0012749514,-0.0004267582,-0.00017030808,5.435,0,0
-0.0026276041999999996,-0.004242420000000001,-0.0017355438,0.0007394898000000001,-0.0011180876800000001,5.436,0,0
-0.00352182,-0.0038201518,-0.0020398718000000002,0.0013956580000000001,-0.00185817968,5.437,0,0
-0.004456778,-0.0033761018,-0.002622226,0.00161918,-0.00185901594,5.438,0,0
-0.005502272,-0.0030347077999999996,-0.002558416,0.0017926724,-0.00180115494,5.439,0,0
-0.00502354,-0.0020829118,-0.0017807322,0.0014524292,-0.0016832449400000001,5.44,0,0
-0.003996785,-0.0013021358,-0.0012624238,0.000895356,-0.00111012094,5.441,0,0
-0.0032427794,-0.0007604159999999999,-0.0006443676,0.0003638434,-0.00049961294,5.442,0,0
-0.0015339133999999997,0.000804588,-9.673599999999988e-06,-0.00016877660000000003,-0.00027767080000000005,5.443,0,0
0.0011585426,0.002453694,0.00022159480000000004,-0.000620581,-9.178899999999993e-05,5.444,0,0
0.0027520846000000003,0.0028491794,0.001021623,-0.0006845236,0.0004409298,5.445,0,0
0.0039105236,0.0028525474,0.0023109266,-0.0005189158000000001,0.0007795612000000001,5.446,0,0
0.0052344439999999996,0.0030565654000000004,0.0028758724,-0.0008317132,0.0007255272000000001,5.447,0,0
0.005166726,0.0019962347999999998,0.0027032105999999995,-0.0008669112,0.0008474932,5.448,0,0
0.004219462199999999,0.00026228480000000027,0.0024430281999999995,-0.0007199918000000002,0.0010011362,5.449,0,0
0.0031290702,-0.00026073459999999976,0.0013307062000000001,-0.0007153770000000001,0.0010276936,5.45,0,0
0.0015598682000000001,-0.0007053891999999999,-0.0004876818000000001,-0.0004394716000000001,0.0009726764000000001,5.451,0,0
-0.0009184298000000002,-0.0018001932,-0.0023530258,0.00015560040000000002,0.0005420124000000001,5.452,0,0
-0.0032359538000000005,-0.0021478486,-0.0038018600000000002,0.0008923324,-6.384559999999997e-05,5.453,0,0
-0.005038124000000001,-0.0011417556000000001,-0.004447714,0.0011831360000000002,-0.0005942596,5.454,0,0
-0.006814652000000001,-0.0010559476,-0.00491997,0.0012637450000000001,-0.0010244218,5.455,0,0
-0.007337586000000001,-0.001447949,-0.004529620000000001,0.001162339,-0.0013500320000000001,5.456,0,0
-0.006200097000000001,-0.00047327899999999995,-0.00277959,0.000733209,-0.0015006320000000002,5.457,0,0
-0.0048445630000000005,0.00041647699999999995,-0.00049758,0.00022097300000000001,-0.0014575444,5.458,0,0
-0.0028927630000000005,0.001153036,0.0014907600000000003,-1.7664e-05,-0.0013173508,5.459,0,0
9.639299999999996e-05,0.0025041840000000004,0.0033472500000000004,-0.00033221,-0.0011260940000000002,5.46,0,0
0.002113485,0.0037555180000000002,0.004598968,-0.001127078,-0.0007583136,5.461,0,0
0.003187468,0.0041330740000000005,0.00466856,-0.0014830839999999997,-7.496359999999998e-05,5.462,0,0
0.0045479660000000005,0.004287432000000001,0.004247656,-0.0014511317999999999,0.0003465148,5.463,0,0
0.004900112000000001,0.0035490702800000003,0.003583402,-0.0016367998,0.0008001391999999999,5.464,0,0
0.0038848774000000003,0.0017239202800000003,0.0024362985999999997,-0.0015613858,0.0014838884,5.465,0,0
0.0030439734000000003,0.00013689828000000017,0.0011950225999999998,-0.0008879294,0.0015665292000000002,5.466,0,0
0.0020184228,-0.00134539572,0.0005116754,-0.00035762840000000005,0.0014417402,5.467,0,0
0.00030305680000000006,-0.0030636917200000005,-0.0002826226,-6.699340000000003e-05,0.0014734582,5.468,0,0
-0.0014699972,-0.004188834000000001,-0.0011710786,0.000398612,0.0011560722,5.469,0,0
-0.0024743906,-0.003857368,-0.0014386532,0.0005462214000000001,0.0006585008000000001,5.47,0,0
-0.0032043126,-0.0034413240000000004,-0.0014075592000000001,0.0003009624,0.000515736,5.471,0,0
-0.003951456000000001,-0.003134294,-0.001608168,0.00034972720000000005,0.0002881122,5.472,0,0
-0.0031417326,-0.0019081642,-0.0012695220000000001,0.000488404,-0.00037194180000000004,5.473,0,0
-0.0014824506,-0.0005220261999999999,-0.0006824186,0.00032322380000000003,-0.0006737898000000001,5.474,0,0
-0.000499268,0.0002735818,-0.0004443533,0.0005242352,-0.0007563688000000002,5.475,0,0
0.0009311780000000002,0.0009819878,0.00045295070000000005,0.0009824678000000002,-0.0010098692000000001,5.476,0,0
0.003400754,0.0020672598,0.0013589627,0.0009820754000000001,-0.0010939628000000002,5.477,0,0
0.0048317966,0.003292036,0.0015214445,0.0005256466,-0.0007079515999999999,5.478,0,0
0.0051600226,0.004273254,0.0015449689000000002,0.000299784,-6.138759999999997e-05,5.479,0,0
0.005244842,0.00476154,0.0015163236000000002,-2.8676200000000036e-05,0.00015358080000000006,5.48,0,0
0.00391601,0.00450841,0.0006027496,-0.0006197222,0.0006161048000000001,5.481,0,0
0.001395468,0.0031741100000000004,-0.0010829984000000003,-0.0006362023999999999,0.0014637872,5.482,0,0
-0.000824918,0.0009437480000000004,-0.0022964342,-0.000557248,0.0018984420000000002,5.483,0,0
-0.0025109,-0.0016690939999999999,-0.0025173452000000003,-0.0007776866000000001,0.00190927,5.484,0,0
-0.0041684240000000004,-0.0036850499999999996,-0.0029712512,-0.0009507532,0.0016240750000000002,5.485,0,0
-0.004733978000000001,-0.004713092,-0.0032507832,-0.0007467852000000001,0.001059891,5.486,0,0
-0.004019592400000001,-0.005075418000000001,-0.0019415271999999998,-0.0009061838000000001,0.00011571900000000008,5.487,0,0
-0.003589430400000001,-0.004584728000000001,-0.0012386332,-0.0013207454000000003,-0.0008244650000000001,5.488,0,0
-0.0028609632000000003,-0.0031817292,-0.00166509,-0.0007970025999999999,-0.0015140510000000002,5.489,0,0
-0.0011883652,-0.0014630352000000002,-0.0011475542000000001,-0.00032489460000000004,-0.001868556,5.49,0,0
-0.00014997760000000002,-3.965719999999987e-05,-0.00046346479999999997,-0.0006337886,-0.001917824,5.491,0,0
0.00025108279999999997,0.0013372008,-0.00032623079999999995,-0.0001263972000000001,-0.0018631880000000002,5.492,0,0
0.0013750068,0.0025300908,0.0004624212000000001,0.0010119967999999999,-0.001786964,5.493,0,0
0.0024465096,0.003250116,0.0013943372000000001,0.0009119608199999999,-0.001956462,5.494,0,0
0.0026642996,0.003361572,0.0015789354000000002,0.00063966742,-0.001820484,5.495,0,0
0.0030359140000000002,0.0028201836,0.0014705658000000003,0.00096420142,-0.0012708382,5.496,0,0
0.0033247380000000003,0.0020192796000000003,0.0014057058,0.0006459998199999999,-0.0008964593999999998,5.497,0,0
0.0023206246,0.0008788315999999998,0.0011906897999999998,0.00029883182000000003,-8.867540000000006e-05,5.498,0,0
0.0009088486000000002,-0.0003382164000000001,0.0007158516,0.000524453,0.0009182586,5.499,0,0
7.675459999999994e-05,-0.001242864,0.00041864140000000006,0.0002912704,0.0013341122,5.5,0,0
-0.0007618554,-0.0016422996000000003,-0.00018682840000000008,4.4504400000000034e-05,0.0016279924000000001,5.501,0,0
-0.0019742334,-0.0019317216000000002,-0.0013071004,0.00026805400000000005,0.0019301716,5.502,0,0
-0.0025544120000000003,-0.0026371256,-0.0016983426000000002,0.00021430199999999998,0.0015128208,5.503,0,0
-0.0021572198,-0.0038242576000000004,-0.0014012244,0.000206274,0.0008740512,5.504,0,0
-0.0021444498,-0.004738368,-0.0012987912000000002,0.0009010719999999999,0.0007326553999999999,5.505,0,0
-0.0017383038000000003,-0.004082916,-0.0006575208000000003,0.00147438,0.00018227979999999998,5.506,0,0
6.83219999999987e-06,-0.002635548,0.0005255832,0.0011852762,-0.00041306160000000004,5.507,0,0
0.0012811002000000004,-0.0010987440000000002,0.0009309334,0.0007102842,-0.0002708496,5.508,0,0
0.0019385140000000001,0.0011927720000000004,0.0012486474,0.0003930482000000001,6.82722e-05,5.509,0,0
0.0034519020000000006,0.0033691240000000003,0.0020713264,0.0002623096,0.00026592240000000006,5.51,0,0
0.004386072,0.00412855,0.002730508,-0.00025481500000000003,0.00047651620000000003,5.511,0,0
0.0037776480000000006,0.004165944,0.0030653119999999997,-0.0008464112000000001,0.0007101446000000001,5.512,0,0
0.0035412300000000002,0.00408948,0.0033003300000000006,-0.000794132,0.00048662560000000007,5.513,0,0
0.0029818692000000003,0.0033116146000000003,0.0030496980000000004,-0.0008663584,-5.068660000000008e-05,5.514,0,0
0.0006812652000000002,0.0017115686000000003,0.002069832,-0.0010423343000000001,-0.0002415152,5.515,0,0
-0.0017806508000000002,0.00034492460000000024,0.0013353090000000002,-0.00047614170000000004,-0.0004174736,5.516,0,0
-0.0032320748,-0.0006454874,0.0005301834000000002,0.0002199093,-0.0007136826000000001,5.517,0,0
-0.0049330288,-0.0018435634,-0.0009958086,0.00022820550000000002,-0.0002934668,5.518,0,0
-0.006543722,-0.0024180900000000003,-0.0026115366000000004,0.0005876777000000001,0.00021441640000000002,5.519,0,0
-0.006201998000000001,-0.0020535124,-0.0031847106,0.0011239162,7.50002e-05,5.52,0,0
-0.0052260299999999996,-0.0018365942,-0.0033135346,0.0008975640000000001,-9.293000000000007e-06,5.521,0,0
-0.00471007,-0.0020348882,-0.0034482690000000003,0.0007324510000000001,0.00016133899999999998,5.522,0,0
-0.0032269002,-0.0008222822,-0.0023957590000000003,0.0012425776000000001,8.688499999999999e-05,5.523,0,0
-0.0011226302,0.0011113218000000002,-0.0007597710000000002,0.001019835,-0.00013890440000000002,5.524,0,0
0.00039513380000000004,0.0020297562000000002,0.00015666100000000002,2.9210999999999907e-05,-0.00023271360000000002,5.525,0,0
0.0022317238,0.003448534,0.00024283200000000004,-9.04358000000001e-05,-0.00021864899999999999,5.526,0,0
0.0041781858,0.005503078,0.000932496,-1.6019800000000066e-05,-0.00022008420000000002,5.527,0,0
0.005081986000000001,0.006023402000000001,0.00171712,-0.000522263,-0.00036135119999999995,5.528,0,0
0.005603992,0.004781088,0.001641906,-0.000435967,-0.00016099280000000002,5.529,0,0
0.005818768,0.0035426480000000002,0.001961318,0.0001414866,0.00040998720000000007,5.53,0,0
0.00454804986,0.0015052839999999997,0.0027127640000000003,-1.3144599999999996e-05,0.00104111,5.531,0,0
0.0025475338600000003,-0.0018381460000000001,0.0023871746000000004,-0.0002290922,0.0016867732000000002,5.532,0,0
0.0012373658599999996,-0.004420548,0.0011282686000000002,-0.0001299176,0.0015964916000000002,5.533,0,0
-0.0003939721400000001,-0.0057647620000000005,0.0002854086000000001,-0.0001133048,0.0010038794,5.534,0,0
-0.0027663861400000003,-0.00664247,-0.0008567274000000001,-1.3496399999999995e-05,0.0005776820000000002,5.535,0,0
-0.0043526680000000005,-0.006738696,-0.0021893054,0.0003970718000000001,-0.0002839419999999998,5.536,0,0
-0.004843394000000001,-0.0052233654,-0.003008918,0.0005848438000000001,-0.00118705,5.537,0,0
-0.005846596,-0.0031968713999999997,-0.003515466,0.0005425682000000001,-0.0010045753999999999,5.538,0,0
-0.0066076960000000014,-0.0014069433999999996,-0.0036516240000000004,0.0005797562000000001,-0.000582776,5.539,0,0
-0.005182778040000001,0.0006840966,-0.0031602490000000004,0.00021494900000000009,-0.0008999305999999999,5.54,0,0
-0.00311927804,0.0020610546,-0.001998215,-0.00023677559999999998,-0.0007344552,5.541,0,0
-0.0015501480400000002,0.002355428,-0.0006623010000000001,-0.0006258520000000001,-0.0006771452,5.542,0,0
0.0011417039599999998,0.0027095139999999997,0.0009094750000000001,-0.0008264898000000001,-0.0013731692,5.543,0,0
0.00430355396,0.003121422,0.0023807830000000005,-0.0010161466,-0.0014274102000000003,5.544,0,0
0.005687882,0.002897648,0.0030303160000000003,-0.0010639714,-0.0008970458000000001,5.545,0,0
0.006673134000000001,0.002562384,0.0029406000000000002,-0.0006626948000000001,-0.0007152772000000001,5.546,0,0
0.007569014000000001,0.0024242772,0.002693378,-0.00045694120000000006,-0.0007129172,5.547,0,0
0.006238339200000001,0.0013646352,0.0023009146,-0.0006770792,-0.00020044220000000004,5.548,0,0
0.0040504852000000004,-0.0002193608000000001,0.0015570217999999999,-0.0008192864,7.583319999999999e-05,5.549,0,0
0.0024881922000000007,-0.0015581508000000002,0.0008544706,-0.000828063,8.656100000000003e-05,5.55,0,0
0.00017560220000000014,-0.0031699188,-0.0002771274000000002,-0.001358359,0.000290063,5.551,0,0
-0.0026994858,-0.004634372,-0.0016388334000000003,-0.0013056866000000001,0.0009439530000000001,5.552,0,0
-0.004299609,-0.00500157,-0.0025751280000000003,-0.000666919,0.0016018080000000001,5.553,0,0
-0.004952179,-0.004572484,-0.0031192912000000002,-0.0005887402000000001,0.0017497402000000001,5.554,0,0
-0.0055903540000000005,-0.003915340000000001,-0.0034916660000000005,-0.00028496399999999996,0.001975296,5.555,0,0
-0.005074184,-0.0023469348,-0.003425758,0.0004915820000000001,0.0017934224,5.556,0,0
-0.0030251740000000003,-0.00018589479999999998,-0.0023266546000000003,0.0009512600000000002,0.0012719524000000002,5.557,0,0
-0.0009462680000000004,0.0013741252,-0.0014451788000000001,0.0009039816000000001,0.0008411882000000002,5.558,0,0
0.0008067060000000001,0.0026643332,-0.0006736169999999999,0.0011613862,0.0002814382,5.559,0,0
0.002697164,0.0038087812000000007,0.000674853,0.0015034466,-0.0004371178,5.56,0,0
0.003926160000000001,0.004027488000000001,0.0018522870000000002,0.0013350486,-0.0007280822,5.561,0,0
0.0040650320000000005,0.003574974,0.0024312836,0.0008951460000000001,-0.0007690802,5.562,0,0
0.0042056640000000005,0.003082718,0.0031468278000000003,0.0005304527999999999,-0.0010963478,5.563,0,0
0.0037860780000000004,0.0022493656000000003,0.0035906480000000005,4.529539999999991e-05,-0.0006782816000000001,5.564,0,0
0.00205535,0.0009563896000000001,0.0028425646000000008,-0.0005376636000000001,0.00020941039999999996,5.565,0,0
0.0006058280000000002,0.00013282560000000003,0.002422833,-0.0005992075999999999,0.0007006444,5.566,0,0
-0.0002950626000000001,-0.0005667904000000001,0.0019446230000000004,-0.000618317,0.0012698424,5.567,0,0
-0.0017772886000000001,-0.0021515984000000004,0.0005740070000000002,-0.0006294790000000001,0.0020211422,5.568,0,0
-0.0031965966,-0.0037083920000000005,-0.0008260630000000001,-3.628700000000003e-05,0.002291872,5.569,0,0
-0.0030047966,-0.00396147,-0.0013273176000000002,0.000358584,0.0018414234000000002,5.57,0,0
-0.0025257531999999996,-0.00394025,-0.0016186822000000003,8.719799999999997e-05,0.0014667774000000002,5.571,0,0
-0.0026251506,-0.004425802,-0.0022265942,0.0003248541999999999,0.0009715238000000002,5.572,0,0
-0.0015872886,-0.0031931326,-0.0017657396,0.0007087506,6.98718e-05,5.573,0,0
5.4133400000000074e-05,-0.0006456526,-0.0006592476,0.00036878,-0.0006078802000000001,5.574,0,0
0.0012464794000000001,0.0010811054,-0.00027326880000000007,0.000186398,-0.0007940016,5.575,0,0
0.002758276,0.0029165314,-0.00010098580000000001,0.000130747,-0.000691623,5.576,0,0
0.004351108,0.0052597394,0.0013391862,-0.00021283720000000002,-0.0009037474,5.577,0,0
0.004663144,0.005782000000000001,0.0023516136,-0.0004957764,-0.0009469634,5.578,0,0
0.0043081798,0.004972526,0.0019645926,-0.0005368722,-0.0008307038,5.579,0,0
0.003791945800000001,0.00503546,0.0023817598,-0.0004594574000000001,-0.0011057898,5.58,0,0
0.0023132764,0.0038275660000000006,0.0027139490000000002,-0.0005130852000000001,-0.0013521024000000001,5.581,0,0
0.00046712640000000003,0.0011514360000000003,0.0016246042,-0.0004454026000000001,-0.0016219844,5.582,0,0
-0.0008804116,-0.00010281599999999971,0.00078637,-0.00021437160000000003,-0.0020353164000000003,5.583,0,0
-0.0019524614,-0.0006056039999999998,0.0004659969999999999,-0.00036237320000000005,-0.0023067660000000005,5.584,0,0
-0.0033956214,-0.0023437,-0.000692591,-0.000936864,-0.0021352252,5.585,0,0
-0.004591946,-0.0036220720000000005,-0.0017035890000000001,-0.0010914632,-0.0021247512000000003,5.586,0,0
-0.00494683,-0.002825724,-0.0020432422,-0.0011518134,-0.0021289352000000003,5.587,0,0
-0.005405116,-0.0022797724000000004,-0.00272929,-0.0015659076000000003,-0.0016285492,5.588,0,0
-0.00538458,-0.0024593784000000005,-0.003025646,-0.00126269672,-0.0014103365999999999,5.589,0,0
-0.003679740000000001,-0.0013519124,-0.0026020379999999997,-0.00073687312,-0.0014219982,5.59,0,0
-0.0017589860000000001,0.0004399256000000002,-0.0024695480000000002,-0.00065360912,-0.0011511342,5.591,0,0
-0.0005265000000000001,0.0013377356000000003,-0.0023834640000000005,-0.00023112752000000003,-0.00046312100000000004,5.592,0,0
0.001548948,0.00245933,-0.0017480556,0.00051405248,-1.5035000000000021e-05,5.593,0,0
0.003768414,0.004028378,-0.0009871564000000002,0.00042367140000000006,0.0002028402,5.594,0,0
0.004103472,0.004456908000000001,-0.00016976840000000002,0.00033041372000000005,0.000773965,5.595,0,0
0.0038651200000000005,0.004351284,0.0005294636,0.00096084572,0.0012864250000000001,5.596,0,0
0.004111552,0.0037913862,0.0010555776,0.00082629812,0.0015773278,5.597,0,0
0.0032696494400000003,0.0022581422000000004,0.0018192932,0.00028427811999999996,0.0019135418000000002,5.598,0,0
0.0014391434400000003,0.0003923682,0.0023184440000000002,0.00049406232,0.0022835600000000005,5.599,0,0
0.00039913743999999996,-0.0016045518000000001,0.0019427148,0.0008360924,0.0018260494,5.6,0,0
-0.00027359855999999994,-0.0033000858,0.0013835308,0.0006355944,0.0012307532,5.601,0,0
-0.00166125456,-0.004259176,0.0008755967999999999,0.000727604,0.0011460912,5.602,0,0
-0.002323328,-0.004591998,-0.0005602212,0.0010111166,0.0005572706,5.603,0,0
-0.002248102,-0.004515018,-0.0021297652,0.0009719064000000001,-0.00013659340000000007,5.604,0,0
-0.003049116,-0.004530429999999999,-0.0024665700000000004,0.0007566026000000001,-0.0002598568000000001,5.605,0,0
-0.003378044,-0.004030377999999999,-0.0015037020000000004,0.0007325606,-0.0004229886000000001,5.606,0,0
-0.0024399026,-0.0022872720000000003,-0.0002564300000000002,0.0011304466,-0.0010083906,5.607,0,0
-0.0017373744000000002,-0.00048449600000000006,0.000762882,0.0011507258,-0.0011232684,5.608,0,0
-0.0011017344000000002,0.0013907059999999998,0.002018864,0.0009396094,-0.0008261700000000001,5.609,0,0
0.0005331976000000001,0.00385875,0.0028468200000000003,0.0007653294000000001,-0.0007516704000000001,5.61,0,0
0.0015119436000000002,0.0050060320000000005,0.0030095940000000004,0.0003115294,-0.0006337377999999999,5.611,0,0
0.0018657842000000002,0.004838412,0.0024664100000000005,-0.00020241160000000004,-0.00038389806000000006,5.612,0,0
0.0029058820000000003,0.004580748,0.002329826,-0.00022999420000000003,-0.00021755622,5.613,0,0
0.003797132,0.0036172260000000003,0.0023717000000000005,-0.00021763520000000003,-4.112861999999999e-05,5.614,0,0
0.003608276,0.0016565660000000006,0.001041596,-0.000295829,0.0004856597800000001,5.615,0,0
0.0030790084000000004,0.00032073400000000004,-0.00017213400000000006,-2.068199999999988e-06,0.0009607111800000001,5.616,0,0
0.0031948524000000003,0.00014411399999999993,-0.00103434,-0.0001631854,0.0009897566399999999,5.617,0,0
0.0015753984000000001,-0.001005416,-0.001977398,-0.000375204,0.0007291711999999999,5.618,0,0
1.0880400000000086e-05,-0.0011861610000000002,-0.0033210360000000003,-0.0002812506,0.00031853580000000005,5.619,0,0
-0.0012573375999999999,-0.0007496516,-0.002434527,-0.000608813,0.00010339599999999998,5.62,0,0
-0.0013705219999999999,-0.0005354116000000001,0.0015831550000000002,-0.0012351738,0.0005249720000000001,5.621,0,0
0.00257364,0.0012566163999999998,0.004600631000000001,-0.0017284556,0.0015276008,5.622,0,0
0.004670798,0.0013033483999999999,0.005568687,-0.0024350642,0.0027961948000000004,5.623,0,0
0.0017204439999999994,-0.0027289666,0.005447885,-0.0029793180000000003,0.0038310361999999995,5.624,0,0
-0.002210128000000001,-0.007731414000000001,0.0024563120000000004,-0.0024936406000000003,0.00391723,5.625,0,0
-0.008311764000000001,-0.012929014000000003,-0.004846088,-0.0018440360000000003,0.0029306659999999997,5.626,0,0
-0.020040484000000004,-0.020197814,-0.011736848000000001,-0.0008152960000000001,0.0013754439999999998,5.627,0,0
-0.02835618,-0.02375886,-0.016328512,0.001003132,-0.000509628,5.628,0,0
-0.02895046,-0.021367790000000005,-0.0181304,0.002524862,-0.002578696,5.629,0,0
-0.025161972,-0.01526345,-0.016318454000000003,0.0035025206000000005,-0.003931878000000001,5.63,0,0
-0.016801952000000002,-0.00608475,-0.012376864,0.004657212000000001,-0.004567806,5.631,0,0
-0.004585971999999999,0.00446747,-0.006057983999999999,0.0052863580000000005,-0.005126047999999999,5.632,0,0
0.009120748000000001,0.015302450000000002,0.0013625760000000003,0.004528876000000001,-0.0049526679999999995,5.633,0,0
0.020557648,0.02397996,0.008215216000000001,0.0033643699999999998,-0.0038407798,5.634,0,0
0.029924660000000002,0.029890560000000004,0.014071769999999999,0.0021951476,-0.0028405910000000004,5.635,0,0
0.036560560000000006,0.03280716,0.019076379999999997,0.0005925256,-0.0018579714,5.636,0,0
0.03805748,0.0314339,0.02140034,-0.0012552744,-0.0002473874000000001,5.637,0,0
0.03479868,0.025641812,0.0204936,-0.0022183004,0.0012720486,5.638,0,0
0.027683078000000003,0.017029328,0.017442741999999997,-0.0027360044,0.0023646824,5.639,0,0
0.016316658000000005,0.006164388000000001,0.011920121999999998,-0.0035411920000000003,0.0033301856,5.64,0,0
0.0022613580000000006,-0.005858952000000001,0.004580602,-0.003893618,0.004219964,5.641,0,0
-0.010806762000000001,-0.016305972000000002,-0.002652058000000001,-0.00359798,0.004478640000000001,5.642,0,0
-0.021515162,-0.024557904000000002,-0.008492758000000001,-0.0028985820000000002,0.003997594,5.643,0,0
-0.029270940000000002,-0.0299555,-0.013475460000000002,-0.0019818932,0.0033138140000000004,5.644,0,0
-0.0326049,-0.03033576,-0.01675942,-0.0006222992000000003,0.0023130352,5.645,0,0
-0.030905140000000005,-0.026101919999999997,-0.01703528,0.0007538328000000001,0.0008015952000000002,5.646,0,0
-0.025786866000000002,-0.018985664,-0.015192391999999999,0.0017327428,-0.0005803608,5.647,0,0
-0.017836064,-0.008885284,-0.0116534192,0.0024099468,-0.0013991988,5.648,0,0
-0.006717244000000001,0.002546655999999999,-0.006340419200000001,0.002478426,-0.0024915248,5.649,0,0
0.004889896000000001,0.012415996,-0.00030115920000000013,0.00188676,-0.0033300820000000003,5.65,0,0
0.014757036000000001,0.019785536000000003,0.005298540800000001,0.0010878742,-0.0030965880000000004,5.651,0,0
0.023508862000000005,0.0248554,0.010021632800000001,5.175220000000014e-05,-0.0023059340000000004,5.652,0,0
0.029711480000000002,0.026289180000000002,0.013710880000000002,-0.0015551918,-0.0013522560000000002,5.653,0,0
0.030459760000000002,0.023797060000000002,0.015586420000000002,-0.0027421858,7.728200000000013e-05,5.654,0,0
0.026733873999999998,0.019195956,0.014845090000000002,-0.0030118778,0.0018137260000000003,5.655,0,0
0.019946916000000002,0.011734714,0.011056028,-0.0033642460000000004,0.0028780940000000003,5.656,0,0
0.009229276,0.0013346340000000012,0.005751054,-0.0035189220000000003,0.0033356440000000005,5.657,0,0
-0.003283544000000001,-0.008543866,0.0007281220000000001,-0.0027844720000000005,0.003424346000000001,5.658,0,0
-0.013295584000000003,-0.016054066,-0.004468098,-0.0018822674,0.0032497360000000005,5.659,0,0
-0.020681138,-0.021907641999999998,-0.009354908,-0.0012493006000000003,0.002702232,5.66,0,0
-0.02636536,-0.02453882,-0.012680986000000002,-0.00016108860000000008,0.0018297418,5.661,0,0
-0.027683740000000002,-0.022681899999999998,-0.014492332000000002,0.0014515494,0.0008363317999999999,5.662,0,0
-0.024426120000000003,-0.017961757999999998,-0.01513654,0.0028472514000000004,-0.00038592819999999997,5.663,0,0
-0.01932369,-0.011828227999999998,-0.013308312000000003,0.0038780488000000005,-0.0015056942,5.664,0,0
-0.012017482,-0.004539488,-0.009161404,0.004242178000000001,-0.0025344322,5.665,0,0
-0.002139741999999999,0.004002732,-0.004166618,0.004152664,-0.00351308,5.666,0,0
0.007067498,0.010995292,0.001754722,0.0037566939999999997,-0.0038307960000000005,5.667,0,0
0.014481558,0.01517819,0.007212282,0.0029195999999999996,-0.00346687,5.668,0,0
0.020830548,0.01847634,0.011143814000000002,0.0018556083999999998,-0.0029298279999999998,5.669,0,0
0.0243703,0.01970796,0.013821206,0.0006392264,-0.0020989164000000003,5.67,0,0
0.023833060000000003,0.016973824,0.014529752,-0.0003218856,-0.0006124644000000001,5.671,0,0
0.020216386000000003,0.0126060384,0.012911008000000002,-0.0010571076,0.0007890476000000001,5.672,0,0
0.013920008000000001,0.0077585244,0.009295972000000001,-0.0015292534,0.0013903736,5.673,0,0
0.004937688,0.0005035243999999993,0.004286764,-0.0014246138,0.0017226916000000001,5.674,0,0
-0.004434911999999999,-0.0072475356000000005,-0.0007489579999999999,-0.0008808749999999999,0.001900334,5.675,0,0
-0.012218292000000002,-0.013131039599999998,-0.00495931,-0.0005238068,0.0014367176,5.676,0,0
-0.018415258,-0.017156134,-0.008625126,-0.0002182046,0.0004606676000000001,5.677,0,0
-0.02260984,-0.0185281,-0.010835210000000001,0.0005362392000000001,-0.00028460439999999996,5.678,0,0
-0.02264876,-0.016190696,-0.01087363,0.0012345812,-0.0012403964,5.679,0,0
-0.01908629,-0.011812288,-0.009962698,0.0015281318000000001,-0.0022665964,5.68,0,0
-0.014086288,-0.0068825940000000006,-0.007967642,0.0016557925400000001,-0.002546362,5.681,0,0
-0.006749888000000001,-0.0005182139999999999,-0.004303576,0.0011774503400000002,-0.002705946,5.682,0,0
0.002123671999999999,0.005666366000000001,-0.00010878799999999942,-0.00018190565999999997,-0.002571628,5.683,0,0
0.009347892,0.009949122000000001,0.0036793600000000004,-0.0013671876600000001,-0.0017450262,5.684,0,0
0.014821642,0.013498074000000002,0.007335330000000001,-0.0021146950600000004,-0.0007188561999999999,5.685,0,0
0.01961176,0.01640414,0.010333494000000002,-0.002748314,1.563379999999998e-05,5.686,0,0
0.02130092,0.016287100000000002,0.01110172,-0.003124734,0.0008434537999999999,5.687,0,0
0.019054612,0.013163194000000001,0.01007609,-0.002969886,0.0017166418,5.688,0,0
0.014920667799999999,0.00872373,0.008193492000000002,-0.0026666138,0.0022618660000000004,5.689,0,0
0.0086962438,0.0028118500000000003,0.004829981999999999,-0.0026819558,0.00282742,5.69,0,0
0.0005882438000000007,-0.0036571299999999998,0.00049156,-0.0024424038000000004,0.003078504,5.691,0,0
-0.0066639962,-0.00868311,-0.0032668320000000003,-0.0017180630000000001,0.00301316,5.692,0,0
-0.012240048199999999,-0.012381524000000001,-0.00650915,-0.0010864020000000002,0.002728906,5.693,0,0
-0.016954884,-0.015522760000000002,-0.009418072000000001,-0.0006838862,0.0020403908,5.694,0,0
-0.019384600000000002,-0.01655916,-0.010856562,0.0002988558,0.0010606428,5.695,0,0
-0.01858352,-0.014890859999999999,-0.010321562000000001,0.0012670978,-0.00010511519999999999,5.696,0,0
-0.015942244,-0.011819669000000001,-0.008684228,0.0018338250000000003,-0.0010151532,5.697,0,0
-0.01139531,-0.006831839,-0.006163723440000001,0.002728878,-0.0015908472000000001,5.698,0,0
-0.00421121,2.066100000000081e-05,-0.00277128944,0.003454712,-0.001983882,5.699,0,0
0.0034440699999999996,0.006390381,0.0005936965599999999,0.003333778,-0.001984266,5.7,0,0
0.00936379,0.011033241000000001,0.00359981856,0.0026023284,-0.0014432974,5.701,0,0
0.014067534,0.01401529,0.006679044560000001,0.0021110598,-0.0010864698000000001,5.702,0,0
0.01727066,0.015077420000000001,0.00928174,0.0013678018,-0.0007125776,5.703,0,0
0.01700682,0.013503696,0.010108934000000002,0.000257702,0.0003788724,5.704,0,0
0.014015221999999999,0.010160041000000002,0.009635436,-0.00025578199999999997,0.0013008384,5.705,0,0
0.009999814000000001,0.005909421,0.0079960492,-0.0004046284,0.0019856398000000003,5.706,0,0
0.004365066,0.0003239609999999998,0.0045917352,-0.0009247118,0.0022054992000000006,5.707,0,0
-0.0021262140000000004,-0.0050571190000000005,0.00046852519999999987,-0.0014103138000000001,0.0016842550000000002,5.708,0,0
-0.007137854000000001,-0.008605295,-0.0033385028000000004,-0.0013464532000000001,0.0011092300000000001,5.709,0,0
-0.011111636000000001,-0.01086182,-0.0063239308000000004,-0.0013909092000000001,0.00042091600000000013,5.71,0,0
-0.014871488000000002,-0.012048495999999999,-0.008212336,-0.0010765736000000001,-0.00036928080000000004,5.711,0,0
-0.01600218,-0.010640488,-0.00862901,-0.00019711759999999995,-0.0009243278,5.712,0,0
-0.01401961,-0.007772712399999999,-0.007407607999999999,0.00047418239999999994,-0.0015284078000000001,5.713,0,0
-0.0112301116,-0.004987430399999999,-0.00539006774,0.0010524076,-0.0024135607999999998,5.714,0,0
-0.0070103296,-0.0010441783999999995,-0.0028589377400000003,0.0016605396000000001,-0.0032062908000000004,5.715,0,0
-0.0006408296000000001,0.0034374976,0.00011491625999999967,0.0016939954000000001,-0.0036980440000000006,5.716,0,0
0.0051026704,0.006629289600000001,0.0027194262600000003,0.0010803694,-0.003406436,5.717,0,0
0.0089159804,0.008734354,0.00461642026,0.0004925688000000001,-0.002510666,5.718,0,0
0.011988102,0.010734892000000001,0.006364744,-0.0003049992,-0.0015729806,5.719,0,0
0.0137472,0.011118386,0.007224094,-0.0013684632,-0.0003464926000000001,5.72,0,0
0.013117686000000002,0.009834718,0.006454446,-0.0021885486,0.0008758774000000001,5.721,0,0
0.010960109999999999,0.007913102,0.0052801,-0.0022391866,0.0016165574000000002,5.722,0,0
0.0076958600000000005,0.004130638,0.0037401650000000006,-0.0019789983999999997,0.0020862254,5.723,0,0
0.0029393980000000006,-0.0008702820000000004,0.0015736590000000005,-0.0017873048000000002,0.002594406,5.724,0,0
-0.0019519020000000002,-0.005651908000000001,-0.0005980790000000001,-0.0007923788,0.002647346,5.725,0,0
-0.005789708000000001,-0.01008204,-0.002518215,0.0002968652,0.002256432,5.726,0,0
-0.009230272000000001,-0.013219564,-0.004437783,0.0007504726000000001,0.0019267728,5.727,0,0
-0.011552522000000003,-0.0133197,-0.006192666,0.0012147670000000003,0.0013569768,5.728,0,0
-0.011188508,-0.011051428,-0.006864486,0.0018282114000000003,0.000559075,5.729,0,0
-0.009430436,-0.008072360200000002,-0.006372436,0.0018576054000000002,-8.094579999999997e-05,5.73,0,0
-0.006895022000000001,-0.004240764199999999,-0.005220766000000001,0.0015805834000000001,-0.0005147552000000001,5.731,0,0
-0.0024892300000000003,0.0004171438000000001,-0.0035419048000000005,0.0015466074000000001,-0.0008844292000000001,5.732,0,0
0.0021932700000000006,0.004937263800000001,-0.0011261488000000003,0.0010282121199999999,-0.0009432812000000001,5.733,0,0
0.0054773700000000005,0.0083192518,0.0009645652000000001,0.0006345531200000001,-0.0007569692360000001,5.734,0,0
0.008150558,0.010884324,0.0019486492000000003,0.0005770871200000001,-0.000659869836,5.735,0,0
0.010067764,0.012753848000000002,0.0031105892000000005,0.00010283712,-0.000703684436,5.736,0,0
0.009923650000000001,0.012477882000000001,0.0038136280000000003,-0.00046570628000000005,-0.00043729003600000003,5.737,0,0
0.008795644,0.0097147028,0.003420896,-0.000846461,0.000420753964,5.738,0,0
0.007399350000000001,0.0053246308,0.0039042040000000005,-0.001097386,0.0009747838000000002,5.739,0,0
0.004636116000000001,-0.00020156920000000047,0.004763796,-0.0014614068000000002,0.0013085912,5.74,0,0
0.0010335780000000003,-0.0055584492,0.004010232,-0.0015292408000000001,0.0019589732,5.741,0,0
-0.0020971820000000004,-0.0091355512,0.002637518,-0.0012568680000000002,0.002079814,5.742,0,0
-0.0048534220000000005,-0.010948974,0.0014316800000000003,-0.001171064,0.0013598934000000002,5.743,0,0
-0.0076041400000000006,-0.011316940000000001,-0.0010933980000000002,-0.0012392526000000001,0.0005763774000000001,5.744,0,0
-0.009196166,-0.009845884000000001,-0.003987878,-0.0010928049800000002,-0.00015331459999999992,5.745,0,0
-0.008622732,-0.007341076,-0.005097616,-0.00060282898,-0.0012514086,5.746,0,0
-0.007055392600000001,-0.0051796466,-0.005087924000000001,-0.0002566777800000001,-0.0021496686,5.747,0,0
-0.005233188400000001,-0.0025907286,-0.004553256,0.00036786022,-0.0022114040000000006,5.748,0,0
-0.0019840044000000003,0.0012896294000000002,-0.0031805,0.0008219788200000001,-0.002298196,5.749,0,0
0.0015806396,0.005025813400000001,-0.001373864,0.00044666199999999996,-0.002336924,5.75,0,0
0.0035417896000000003,0.0074612854,0.0004769539999999999,0.0001620180000000001,-0.0014548640000000002,5.751,0,0
0.0051807882000000005,0.009387808000000001,0.002384552,0.00011391320000000006,-0.00047412199999999994,5.752,0,0
0.007064648,0.010444778,0.003795982,-0.00031226599999999995,-4.309800000000004e-05,5.753,0,0
0.00699853,0.009179058,0.004234524,-0.000860796,0.000771794,5.754,0,0
0.0055796412,0.006759058,0.0040762704,-0.00041100939999999997,0.001749554,5.755,0,0
0.0043668552,0.004489374,0.0032801166,9.769860000000004e-05,0.0017913600000000003,5.756,0,0
0.0016938152,0.0015371100000000004,0.0017318346000000002,0.00015319740000000007,0.0017858680000000001,5.757,0,0
-0.0020861208,-0.0016891840000000003,-9.81573999999999e-05,0.0007634066000000001,0.0016379064,5.758,0,0
-0.0047799968,-0.0039340980000000005,-0.0015803154,0.0012371036,0.0006780843999999999,5.759,0,0
-0.006741952000000001,-0.005509062,-0.0025106778,0.0010094154,-9.173759999999998e-05,5.76,0,0
-0.008601982000000001,-0.006491408000000001,-0.0033074259999999996,0.0008587062000000002,-0.0006449356,5.761,0,0
-0.008786548000000002,-0.006143308,-0.0033534380000000003,0.0011064322000000001,-0.0011736936,5.762,0,0
-0.007319906000000001,-0.005238182000000001,-0.0026416552,0.0009732142,-0.0012911589999999998,5.763,0,0
-0.005540874000000001,-0.004472374,-0.0024623172,0.0008772098,-0.001051515,5.764,0,0
-0.0031396820000000004,-0.0029990916000000004,-0.0019819232,0.0011801548,-0.0007623106,5.765,0,0
-6.538400000000015e-05,-0.0010952456,-0.0008852112,0.0010457102000000001,-0.0005226024000000001,5.766,0,0
0.0028230980000000004,0.00037929840000000016,-0.0003965493999999998,0.0005351686,-8.702919999999996e-05,5.767,0,0
0.0048964,0.0019840144000000002,5.337800000000171e-06,8.467460000000001e-05,0.00037147780000000005,5.768,0,0
0.0066203780000000005,0.0041579624,0.0011782718,6.547599999999995e-06,0.0006964532,5.769,0,0
0.007922946,0.005759712,0.0019821258000000002,-0.00012547020000000002,0.0009957908000000001,5.77,0,0
0.007674542000000001,0.005753558000000001,0.0018531798,-0.0004528704000000001,0.0014733046000000001,5.771,0,0
0.0064825460000000005,0.0048611565999999995,0.0018241802000000002,-0.00047922360000000007,0.0016357494000000003,5.772,0,0
0.0050261592,0.0032642066,0.0013946472000000002,-0.00046687700000000004,0.0015066414,5.773,0,0
0.0026981932000000003,0.0004736626000000001,0.0005464436,-0.000352311,0.0014763154000000003,5.774,0,0
0.0003693412,-0.0021660854,-1.9453400000000006e-05,7.421739999999999e-05,0.0010590352,5.775,0,0
-0.0012980388,-0.0036696594,-0.0005982294000000001,0.00038208299999999997,0.000533555,5.776,0,0
-0.0030974928000000006,-0.0043844159999999995,-0.0012832596000000001,-7.936200000000014e-06,-0.00010291899999999993,5.777,0,0
-0.004754704,-0.004701052000000001,-0.0018207526000000003,-0.00016536680000000007,-0.000825941,5.778,0,0
-0.005194494,-0.00371031,-0.0017581034000000001,-0.0002177808000000001,-0.0011913964,5.779,0,0
-0.005001906,-0.0018473720000000001,-0.0015712536,-0.0007562634000000001,-0.0013732322,5.78,0,0
-0.004521036000000001,-0.0007313000000000002,-0.0012987732000000003,-0.0007779986,-0.001726516,5.781,0,0
-0.002715014,0.0004891300000000001,-0.0001393592,-0.00034746200000000004,-0.001916388,5.782,0,0
-5.6321999999999926e-05,0.00203386,0.0014249508,-0.0001265664,-0.0018702000000000002,5.783,0,0
0.001981018,0.002504086,0.0019400792,-0.000551516,-0.0015758111000000001,5.784,0,0
0.0036468040000000005,0.0022309520000000005,0.0020225144,-0.0007567894,-0.0009551251000000001,5.785,0,0
0.005346574000000001,0.002890174,0.0030166880000000004,-0.0007041164,-0.00039620990000000016,5.786,0,0
0.005846606000000001,0.003121848,0.003324538,-0.0007547262000000002,0.0005251501,5.787,0,0
0.0048315168,0.0023752445999999997,0.002578988,-0.00035930780000000006,0.0016605120999999999,5.788,0,0
0.0035681768,0.0020187487999999997,0.0023306828000000004,0.00023192019999999995,0.0020417672,5.789,0,0
0.0019330227999999998,0.0009010588000000001,0.0020441016,0.0005002706000000001,0.0020356412000000004,5.79,0,0
-0.0005977752,-0.0016439412,0.0004952175999999998,0.00043191379999999997,0.002185238,5.791,0,0
-0.0023711672,-0.0038249812,-0.0009748084000000001,0.00037128620000000015,0.001735715848,5.792,0,0
-0.003091782,-0.0050235858,-0.0016264844000000002,4.9588799999999975e-05,0.0009588882480000001,5.793,0,0
-0.0038013240000000005,-0.005875168,-0.0024455392,-0.00024459020000000006,0.000619681448,5.794,0,0
-0.004033832,-0.005515968,-0.003016534,0.00011913340000000003,0.000380126448,5.795,0,0
-0.0029154838000000002,-0.0035747240000000005,-0.002861268,0.0006977768,-0.000249919552,5.796,0,0
-0.0018557518,-0.00120477,-0.0023481080000000002,0.0006894089999999999,-0.0006521614,5.797,0,0
-0.0013524598,0.0007886280000000002,-0.002048003,0.0004699003999999999,-0.000672328,5.798,0,0
-0.00015978979999999992,0.00229976,-0.0012340784,0.0005665052,-0.0010549552,5.799,0,0
0.000567256,0.003043088,0.00019691160000000012,0.00018572779999999998,-0.0013954062000000001,5.8,0,0
0.0003376558,0.0034441940000000002,0.0012801296000000003,-0.0003368914,-0.0013566962,5.801,0,0
0.0005307838000000001,0.00385219,0.0020182676,-0.0003092766,-0.0014137422,5.802,0,0
0.0016311358,0.004058346000000001,0.0029230466000000005,-0.0005156406,-0.00177253,5.803,0,0
0.0018770018000000004,0.0038594440000000005,0.0033321600000000002,-0.0008827304000000001,-0.0015999680000000002,5.804,0,0
0.0015291850000000002,0.0035454054000000003,0.0027753260000000003,-0.0010265948,-0.001143664,5.805,0,0
0.0017241014200000003,0.0029870254000000005,0.0022542598000000005,-0.0009760756000000002,-0.0008773028,5.806,0,0
0.0007235814200000003,0.0011921194000000003,0.0015930628000000002,-0.0008445214200000003,-0.00033934539999999993,5.807,0,0
-0.00125673058,-0.0011324526,0.0009032016000000001,-0.0006706560200000002,0.0002587218,5.808,0,0
-0.0021972545800000003,-0.0026791545999999998,0.0005970516000000001,-0.00040493042,0.0004414290800000001,5.809,0,0
-0.00259690558,-0.00376167,0.0002456742,-0.00022113062000000004,0.00018745068,5.81,0,0
-0.0033495160000000003,-0.004836785999999999,-0.00043099560000000003,-0.00016718642000000002,0.00038509428,5.811,0,0
-0.0029076132000000004,-0.004696868,-0.0007028546000000001,-0.00014798660000000003,0.00067994288,5.812,0,0
-0.0014393812,-0.0034485820000000004,-0.0010065274,-5.4667200000000004e-05,0.00064445868,5.813,0,0
-0.0007417111999999999,-0.0026115020000000004,-0.0021777494000000002,-0.00010248860000000001,0.0008419374,5.814,0,0
0.00010255080000000008,-0.0018030664,-0.002989822,-1.7476000000000007e-05,0.0012882498,5.815,0,0
0.0017605028,-0.00047803639999999985,-0.002955428,8.4555e-05,0.001231519,5.816,0,0
0.0026419720000000002,-1.553439999999991e-05,-0.0028592920000000003,0.000116933,0.0006655989999999999,5.817,0,0
0.0025957940000000002,-0.0001766384,-0.002800191,0.0003115502,0.00048791119999999996,5.818,0,0
0.0029288000000000005,0.0009983236000000002,-0.001440007,0.00042151396,-0.00010005680000000001,5.819,0,0
0.0030758820000000003,0.0021979680000000002,0.00013572300000000014,0.00015776436000000001,-0.0009353128,5.82,0,0
0.0019712588000000003,0.0020201660000000003,0.0006758160000000001,-0.00016172124,-0.0008392562000000002,5.821,0,0
0.0008392028000000001,0.0021808060000000004,0.00143639,-0.00011277064,-0.00037204420000000005,5.822,0,0
0.00014819280000000017,0.0025706604,0.0022094750000000002,-0.00032648924,-0.0001823432,5.823,0,0
-0.0012282592,0.0018406514,0.0018349474,-0.00022608459999999995,0.00041377479999999995,5.824,0,0
-0.0024421152,0.0008949824,0.0010381257999999998,0.0003959804,0.0006917508,5.825,0,0
-0.0024652800000000002,0.0013276664,0.0007800808000000001,0.0007332084000000001,5.262619999999997e-05,5.826,0,0
-0.0022672260000000002,0.0022511464,-9.064720000000003e-05,0.0009098356,-9.64580000000005e-06,5.827,0,0
-0.0023254100000000004,0.001573502,-0.0014672992,0.0010443024,0.00016272999999999998,5.828,0,0
-0.0018565700000000005,0.0008802069999999999,-0.0020907676,0.0009671580000000001,-0.00022067500000000004,5.829,0,0
-0.000744446,0.0012160040000000003,-0.001914299,0.00036189300000000007,-0.00014406340000000002,5.83,0,0
2.5427999999999974e-05,0.0003464672000000003,-0.001658803,-0.00023436659999999995,0.00029006459999999997,5.831,0,0
0.00046068400000000005,-0.0007466297999999998,-0.000918265,-0.0004754648,-0.00012006460000000001,5.832,0,0
0.0013145880000000002,0.0002945182000000001,0.0004085969999999999,-0.0007862749999999999,-0.0003825874,5.833,0,0
0.0016494437600000002,0.000831165,0.0008700227999999999,-0.0011169852,-9.103820000000003e-05,5.834,0,0
0.0010735697600000001,0.0003101404,0.0004672597999999999,-0.0006877582,-0.00019645380000000003,5.835,0,0
0.00100584176,0.0006638112000000001,0.0004406437999999998,9.071380000000003e-05,-0.0003437452000000001,5.836,0,0
0.00114251976,-6.848979999999998e-05,0.0009698138,0.0002806980000000001,-0.00019047,5.837,0,0
0.0006107059600000001,-0.0014971137999999998,0.0014383558,0.0008547100000000001,-0.00033325,5.838,0,0
0.0009609282000000003,-0.0016917066,0.001863126,0.0014999400000000002,-0.0007144322000000002,5.839,0,0
0.0015835462000000002,-0.00192588,0.00222800072,0.001563364,-0.0003191862,5.84,0,0
0.0007640242000000002,-0.0025518,0.00224479152,0.001590184,0.0005684652,5.841,0,0
0.0002244014,-0.0020102930000000002,0.00128495952,0.0015139283999999998,0.0009871712,5.842,0,0
0.00020197126000000005,-0.001171168,5.673172000000002e-05,0.0012787907999999998,0.0012261064,5.843,0,0
-0.0007191687400000001,-0.0012141160000000001,-0.00059617228,0.0010106348000000001,0.0015321752,5.844,0,0
-0.00158285474,-0.0012371080000000002,-0.001174857,0.0011265548,0.0011684084,5.845,0,0
-0.0011399069400000001,-0.001001212,-0.0012065914000000003,0.0013198088,0.0005394488000000002,5.846,0,0
-0.0010767211400000002,-0.0013612890000000001,-0.0010572126,0.0011678365000000002,0.00017993243999999997,5.847,0,0
-0.0017424472000000003,-0.002104396,-0.0012094608000000001,0.0008203181000000003,-0.00046518596,5.848,0,0
-0.001132855,-0.0017452710000000003,-0.0007621914,0.0001564721000000001,-0.0012292007600000002,5.849,0,0
-0.00026486300000000016,-0.0004883910000000001,-6.736239999999998e-05,-0.0009382559,-0.00173068196,5.85,0,0
-0.0002234188000000001,0.000269809,-0.0001102766,-0.0020219699,-0.00223098436,5.851,0,0
0.0005137701999999998,0.001258645,-7.734579999999999e-05,-0.002629078,-0.002584156,5.852,0,0
0.0021452882,0.002835443,0.0006153322,-0.0029666660000000006,-0.0024435240000000003,5.853,0,0
0.002739572,0.003102424,0.0007134988,-0.0030600660000000006,-0.0021132500000000005,5.854,0,0
0.0029045340000000003,0.0025707580000000002,0.0005118634,-0.0027957900000000003,-0.001951416,5.855,0,0
0.003617314,0.002700046,0.0004068692000000001,-0.0023988390000000003,-0.0018195460000000002,5.856,0,0
0.003396906,0.00271907,-5.1212400000000025e-05,-0.002053905,-0.0014287582,5.857,0,0
0.0024051859999999997,0.0024905240000000005,-0.000462274,-0.0015929925999999999,-0.0008285562000000001,5.858,0,0
0.0019241549999999999,0.0029915800000000006,-0.0007149852000000001,-0.0006374166,-0.00029988080000000004,5.859,0,0
0.001719305,0.0031176500000000005,-0.0007150820000000001,0.0002538414,0.0003511772,5.86,0,0
0.0005052730000000001,0.0014217300000000002,-0.00073235,0.0005590842,0.0006839104000000001,5.861,0,0
-0.0009338449999999999,-0.000535448,-0.00045281800000000007,0.0010588061999999999,-2.184940000000003e-05,5.862,0,0
-0.0015508969999999999,-0.001438928,1.4945599999999974e-05,0.0017642318,-0.0004973994000000001,5.863,0,0
-0.002693192,-0.00264401,-0.00016239720000000004,0.0020802698000000003,-0.00010325680000000009,5.864,0,0
-0.004200868,-0.004044846,-0.00029083000000000006,0.0022601198000000004,0.00039879119999999997,5.865,0,0
-0.00454506,-0.003611462,0.00010325739999999996,0.0026333160000000006,0.0011111860000000001,5.866,0,0
-0.004307262,-0.0028662220000000003,2.0622399999999967e-05,0.0029014160000000004,0.002702254,5.867,0,0
-0.003999394000000001,-0.0032780540000000003,-0.0005461424000000001,0.002739702,0.004062316,5.868,0,0
-0.002531564,-0.0029689162000000003,-0.0005352004,0.001915922,0.004283584,5.869,0,0
-0.0005460800000000001,-0.0020231332000000004,-0.00029375940000000007,0.0004897159999999998,0.004347322000000001,5.87,0,0
0.0009458020000000001,-0.0014669832000000001,-0.0004904322,-0.0005885960000000001,0.0042384020000000005,5.871,0,0
0.00270313,-7.347319999999997e-05,-0.00036626140000000013,-0.0011181892000000002,0.003582252,5.872,0,0
0.00414175,0.0017071388000000002,0.0003080954,-0.001599375,0.0018573340000000004,5.873,0,0
0.0036354856000000006,0.0016625892000000002,0.0008272074000000001,-0.001648637,-0.00041125199999999975,5.874,0,0
0.0021742136,0.0009491122,0.0009994204000000001,-0.0008771410000000001,-0.001958894,5.875,0,0
0.0013123564000000001,0.0009866112,0.000874974,-2.7703000000000016e-05,-0.0024070940000000002,5.876,0,0
0.0002313576,0.0007284152,0.0004406602,0.0006113302000000001,-0.0014766800000000002,5.877,0,0
-0.0016095584000000002,-9.137680000000008e-05,-0.00019498199999999998,0.0018210300000000004,0.0014319659999999998,5.878,0,0
-0.0027321660000000003,-3.711100000000007e-05,-0.00038327760000000005,0.0036929640000000004,0.0063548979999999995,5.879,0,0
-0.0034412080000000003,0.0005424913999999999,-0.0003021656000000001,0.0052951380000000004,0.011522750000000002,5.88,0,0
-0.0052250708,-8.775959999999996e-05,-0.00024105040000000006,0.006032488000000001,0.016140110000000003,5.881,0,0
-0.006671380000000001,-0.0009719276,-0.00031421439999999997,0.005831374,0.01899274,5.882,0,0
-0.006653930000000001,-0.0012084986000000001,-0.0005343221999999999,0.0047994752,0.018749820000000004,5.883,0,0
-0.006018168000000001,-0.0013554026000000001,-0.0008123534,0.0027423212000000003,0.014600062000000002,5.884,0,0
-0.0048344220000000005,-0.0013820328,-0.0011130214,-0.0006075367999999997,0.0045684820000000004,5.885,0,0
-0.00243669,-0.0007797096,-0.0006804768,-0.0044617727999999995,-0.010103918,5.886,0,0
-1.329599999999999e-05,-0.0005468620000000001,0.00020956720000000004,-0.0086973588,-0.024480698000000002,5.887,0,0
0.0021292140000000004,-0.0006631794,0.0010597252000000001,-0.011862480000000002,-0.033388158,5.888,0,0
0.005497468,0.0003990585999999999,0.0017992540000000001,-0.012795912000000001,-0.03495106,5.889,0,0
0.009104896000000001,0.0015186003999999999,0.002081738,-0.012412190000000002,-0.029085570600000006,5.89,0,0
0.011256866000000003,0.0019801152,0.0020114,-0.010180222000000001,-0.018079850600000003,5.891,0,0
0.011640022,0.0029360616,0.0019778860000000003,-0.006263862,-0.0065940346000000006,5.892,0,0
0.009587058,0.004277629999999999,0.0015921572000000001,-0.002781626,0.0015922714000000003,5.893,0,0
0.004275338,0.004207508,0.0008516130000000002,-0.000657088,0.004751833400000001,5.894,0,0
-0.0026444219999999996,0.0033344874000000003,0.00046481079999999996,0.0012760560000000002,0.004543524,5.895,0,0
-0.008552781999999998,0.0030494256,0.0003739052000000001,0.0027445980000000004,0.0031267960000000003,5.896,0,0
-0.012361664000000001,0.0020338356,0.00016684479999999998,0.0036752060000000003,0.0016966460000000002,5.897,0,0
-0.013661826,0.00038840360000000026,-0.00017886440000000001,0.0043447780000000005,-0.00019459000000000007,5.898,0,0
-0.01237217,-0.0008333064,-0.00038835820000000007,0.004751498000000001,-0.0014939460000000001,5.899,0,0
-0.008933596600000001,-0.0015223018,-0.000764016,0.005241814,-0.00016184000000000012,5.9,0,0
-0.004546338600000001,-0.001837189,-0.0016984804000000002,0.005329504,0.0032235680000000004,5.901,0,0
-0.0007001926000000007,-0.0017056176,-0.002502816,0.005411486,0.007078602000000001,5.902,0,0
0.0022434214,-0.0013785234000000001,-0.0027113680000000005,0.005115082,0.010813752000000001,5.903,0,0
0.0042188514,-0.0014677594,-0.002925876,0.0042401520000000005,0.013325946,5.904,0,0
0.004887048,-0.0016482054000000004,-0.0028334460000000007,0.0031069078,0.012209302000000002,5.905,0,0
0.00474478,-0.0016553810000000003,-0.0021715518,0.00045398979999999997,0.0073014360000000006,5.906,0,0
0.00499395,-0.0015948884000000002,-0.0017479498000000002,-0.0035453802,0.0006693359999999991,5.907,0,0
0.006865462000000001,-0.0009718606000000003,-0.0011925374000000002,-0.0066094042,-0.004815364000000001,5.908,0,0
0.010271056,0.0010736314,0.00017484260000000002,-0.0078024622000000005,-0.007738614000000001,5.909,0,0
0.013652306,0.0033489214000000005,0.0016413306,-0.00716882,-0.007907870200000002,5.91,0,0
0.015412076000000002,0.0044558620000000005,0.0024511084,-0.004154646000000001,-0.006065132400000001,5.911,0,0
0.015691746,0.004936806,0.0032168124000000005,0.0006234360000000004,-0.0031266286000000004,5.912,0,0
0.014215730000000003,0.004228768,0.0038395360000000006,0.005020816000000001,-0.00027588660000000013,5.913,0,0
0.0099669848,0.0015039940000000007,0.003300524,0.007539148000000001,0.0009153793999999999,5.914,0,0
0.0045891608,-0.0013852400000000003,0.0023969052,0.008975532000000001,0.0017617076000000001,5.915,0,0
-0.0001434412000000003,-0.003346814,0.0020110512000000003,0.010431176,0.0041175558000000004,5.916,0,0
-0.004728527200000001,-0.005320996000000001,0.0014845812,0.011037874000000001,0.008529732,5.917,0,0
-0.0094200112,-0.0065780560000000005,0.0005418632,0.010986354000000002,0.013691050000000001,5.918,0,0
-0.012299586000000001,-0.0061200640000000014,-0.00010787280000000002,0.010884574000000003,0.017445714,5.919,0,0
-0.013216482,-0.005041614,-0.0012778379999999999,0.008940503800000003,0.0188776,5.92,0,0
-0.01338142,-0.0041755702,-0.0033326,0.004933189800000001,0.017698456,5.921,0,0
-0.012487756000000001,-0.00263438244,-0.004805894,0.0004458617999999999,0.013052904,5.922,0,0
-0.011110372,-0.0011324084399999999,-0.005806724,-0.0045165582,0.005289024,5.923,0,0
-0.009526498,-0.00032350484,-0.006328098000000001,-0.0092357522,-0.0024039959999999994,5.924,0,0
-0.0072652432,0.00091864716,-0.005042532,-0.012209782,-0.008113076,5.925,0,0
-0.0041799592000000005,0.00248729736,-0.0022263,-0.013768368,-0.011952292,5.926,0,0
-0.00010110320000000002,0.0035400656000000004,0.0004214879999999998,-0.0148714,-0.01448346,5.927,0,0
0.0053149528,0.0046962196,0.0029584000000000004,-0.015450120000000001,-0.01590586,5.928,0,0
0.0109509788,0.006383578,0.0048829500000000005,-0.014921720000000001,-0.01694404,5.929,0,0
0.014899843999999999,0.007357422,0.0050809700000000015,-0.01372626,-0.01867508,5.93,0,0
0.0170006,0.007743404000000001,0.004876704,-0.012453282000000001,-0.02110694,5.931,0,0
0.01733366,0.008329052,0.00488815,-0.010379066000000001,-0.02346054,5.932,0,0
0.015547696,0.008602760000000001,0.004381309999999999,-0.00667523,-0.02293916,5.933,0,0
0.0111631492,0.007390436,0.0033409054,-0.002168634,-0.017560996,5.934,0,0
0.0050817492,0.004381138000000001,0.0028359962,0.0026469660000000006,-0.009000456,5.935,0,0
-0.0015409907999999993,-0.000541606,0.0023493342000000003,0.008300728,0.0011939040000000008,5.936,0,0
-0.0090456508,-0.007642202,0.0006851482000000002,0.013900512000000002,0.012209464000000001,5.937,0,0
-0.016599706800000003,-0.015255636,-0.0008016078,0.017741796,0.020092424,5.938,0,0
-0.021676260000000003,-0.020987464,-0.0004565372,0.019087160000000002,0.02267682,5.939,0,0
-0.023858240000000003,-0.02460156,0.001276058,0.017189330000000003,0.02138158,5.94,0,0
-0.025006240000000006,-0.025423580000000005,0.002744158,0.012094914,0.017288151999999998,5.941,0,0
-0.02480886,-0.021608602000000005,0.004077754,0.0061308099999999996,0.0113100974,5.942,0,0
-0.022969100000000003,-0.015221136000000005,0.0046854048,0.0003096339999999996,0.0056262574,5.943,0,0
-0.02189764,-0.008562848000000001,0.0035554768000000004,-0.005132026,0.0023309994000000004,5.944,0,0
-0.02164444,-0.0006197880000000009,0.0015371348000000004,-0.008306636000000001,0.0003543543999999999,5.945,0,0
-0.017941509999999997,0.008260412,-0.00023053439999999993,-0.008557726000000002,-0.0001248216,5.946,0,0
-0.01046819,0.015196034,-6.358040000000007e-05,-0.008013216,0.00038667900000000007,5.947,0,0
-0.0015260300000000011,0.020305968,0.0007724747999999999,-0.007473762000000001,-0.0014247410000000002,5.948,0,0
0.01117153,0.024932680000000002,-0.0028208372,-0.0062429600000000005,-0.005614443,5.949,0,0
0.026859650000000002,0.027527960000000004,-0.011524925200000001,-0.0043907374,-0.008656118,5.95,0,0
0.03836512,0.027121940000000004,-0.021122568,-0.0018467114000000006,-0.009492986,5.951,0,0
0.042163320000000004,0.02377021,-0.03302796,0.0013105825999999996,-0.008928362,5.952,0,0
0.04011134,0.017641806000000003,-0.04503748,0.0049319646,-0.005183825999999999,5.953,0,0
0.031920924,0.009303766,-0.0469736,0.0087616626,0.0011740739999999996,5.954,0,0
0.018681796,0.00011198599999999968,-0.0375871,0.01267832,0.007834994,5.955,0,0
0.005430036000000001,-0.008318514,-0.0203184,0.016042380000000002,0.013590366000000001,5.956,0,0
-0.005120263999999999,-0.014432384000000001,0.004444520000000004,0.018644400000000002,0.020110376,5.957,0,0
-0.012172964000000001,-0.01773694,0.029930420000000003,0.020488600000000003,0.027132820000000002,5.958,0,0
-0.014700108,-0.018315360000000003,0.046819620000000006,0.019860660000000002,0.02989744,5.959,0,0
-0.013703798,-0.016462422,0.05338594000000001,0.015300652000000001,0.026996015999999998,5.96,0,0
-0.0108646102,-0.013288586,0.049410680000000005,0.006556612000000001,0.017812395999999998,5.961,0,0
-0.0055799202000000004,-0.00865792,0.037124618,-0.005135988000000001,0.0027036360000000006,5.962,0,0
0.0011911598000000007,-0.002966240000000001,0.02352992,-0.016189408000000002,-0.013434744,5.963,0,0
0.005412759800000001,0.0016372499999999998,0.012858837399999998,-0.023856168,-0.023961844000000003,5.964,0,0
0.006103014400000001,0.004701692,0.0058446472000000015,-0.02719982,-0.026781208,5.965,0,0
0.004873896600000001,0.007264012,0.0018877435999999997,-0.02582152,-0.022974303600000003,5.966,0,0
0.002205866600000001,0.008208900000000002,-0.0011793323999999999,-0.02115944,-0.015439770800000002,5.967,0,0
-0.0009447714000000002,0.006927038000000001,-0.0047609544,-0.015727934,-0.009721270800000001,5.968,0,0
-0.0024251934000000005,0.004974094000000001,-0.0070210918,-0.011332716000000001,-0.009336770800000001,5.969,0,0
-0.00039389000000000004,0.003076114,-0.0076562356,-0.0083414,-0.014729382800000001,5.97,0,0
0.00337332,0.0007595400000000004,-0.007680056,-0.0058635684000000006,-0.0216945472,5.971,0,0
0.007154700000000002,-0.0010540600000000001,-0.00653921,-0.0029227624000000008,-0.02554048,5.972,0,0
0.010060178,-0.0012183870000000002,-0.005629070000000001,0.0001504836000000003,-0.02389178,5.973,0,0
0.010370730000000003,-0.0012988090000000002,-0.0073968900000000014,0.0030266856,-0.0164297,5.974,0,0
0.008196591400000001,-0.0014490750000000002,-0.010715696000000002,0.0047085136,-0.00629156,5.975,0,0
0.0045004994,-0.000645571,-0.014097572000000003,0.004032212,0.0034076000000000006,5.976,0,0
0.0007195513999999996,0.000378977,-0.017115940000000003,0.0019136840000000003,0.01136604,5.977,0,0
-0.0031095906,0.00047487600000000005,-0.017290680000000003,-0.0009475560000000002,0.01659476,5.978,0,0
-0.006693480600000001,0.0006250909999999999,-0.013305770800000002,-0.003360802,0.01849472,5.979,0,0
-0.009386522,0.0012462775999999998,-0.0053022908000000014,-0.00343665,0.019110460000000003,5.98,0,0
-0.010010878,0.000844492,0.0041516092,-0.00054856,0.02063952,5.981,0,0
-0.008925102,-1.5400000000001242e-07,0.0121702892,0.005193922,0.02175132,5.982,0,0
-0.0073684764,-0.000889766,0.0181517292,0.01369071,0.02080642,5.983,0,0
-0.0045733468,-0.0025328710000000003,0.020170422,0.023929496,0.018214478000000003,5.984,0,0
-0.0034022208000000003,-0.004848251600000001,0.016651266,0.034416100000000005,0.014576232,5.985,0,0
-0.005789132799999999,-0.006860972,0.011014898,0.04267830000000001,0.009702436,5.986,0,0
-0.0112523808,-0.008987628000000001,0.006536846000000001,0.045458040000000005,0.0045155274,5.987,0,0
-0.0191415644,-0.011420506,0.0025210119999999996,0.04204444,0.0006740129999999998,5.988,0,0
-0.026972774000000005,-0.012461100000000003,-6.487599999999995e-05,0.033088684,-9.912999999999957e-06,5.989,0,0
-0.032095820000000004,-0.01223335,-0.002323056,0.019010844000000006,0.003739133,5.99,0,0
-0.03313754,-0.011661772,-0.006007208,0.0022974840000000015,0.011100328999999999,5.991,0,0
-0.029517039999999998,-0.009751088,-0.009784976,-0.013279355999999999,0.0199494376,5.992,0,0
-0.02123143,-0.0057535300000000015,-0.013017602,-0.027494576,0.025273872000000003,5.993,0,0
-0.010548970000000001,-0.0012847960000000004,-0.015247115999999998,-0.04002128,0.022805838000000002,5.994,0,0
0.0021207699999999993,0.0031503340000000003,-0.014926274,-0.048787,0.009860518000000002,5.995,0,0
0.017004810000000002,0.008406376,-0.011329136000000002,-0.05357478,-0.014053822000000002,5.996,0,0
0.03172937,0.013578192000000003,-0.006277294000000001,-0.05432716,-0.041470642,5.997,0,0
0.044966740000000005,0.017796154,-0.00039039399999999964,-0.050236939999999994,-0.060848422,5.998,0,0
0.055521600000000004,0.0215556,0.005713566000000001,-0.042198360000000004,-0.06783814,5.999,0,0
0.06120408000000001,0.02371662,0.00994212,-0.032410480000000005,-0.06283034,6.0,0,0
0.05993682000000001,0.02318436,0.011150952,-0.020890216,-0.04659142,6.001,0,0
0.051142440000000004,0.020332242000000004,0.009741969,-0.009248556000000002,-0.026967716,6.002,0,0
0.036300304,0.015115377600000002,0.0072294784,0.0009838039999999996,-0.011464902000000003,6.003,0,0
0.018367064000000002,0.008271403600000001,0.0039051784,0.009789924000000002,-0.0014451680000000001,6.004,0,0
0.0008292439999999998,0.0016471896000000005,0.0006503664000000003,0.016579664,0.0036445380000000006,6.005,0,0
-0.013324156,-0.0033358104,-0.0012207696,0.021020240000000003,0.005030730000000001,6.006,0,0
-0.022332616000000003,-0.0071723344,-0.0021695166,0.023016680000000005,0.005968716000000001,6.007,0,0
-0.026180680000000005,-0.00933017,-0.003059738,0.02412512,0.008322282,6.008,0,0
-0.025331060000000002,-0.009605518,-0.0037434280000000005,0.02503096,0.011648288000000001,6.009,0,0
-0.022308520000000005,-0.009164946,-0.0038508540000000003,0.0259265,0.016510022000000003,6.01,0,0
-0.019762920000000003,-0.008306066,-0.004018512,0.027256080000000002,0.022204530000000004,6.011,0,0
-0.016922760000000002,-0.006527700799999999,-0.004107698,0.028847360000000002,0.02704668,6.012,0,0
-0.01419446,-0.004466398600000001,-0.004199722,0.02892064,0.029889560000000003,6.013,0,0
-0.01398696,-0.004914396600000001,-0.004011214,0.026453940000000002,0.031312820000000005,6.014,0,0
-0.01596946,-0.0066929146000000005,-0.0032205104000000003,0.022162880000000003,0.030959360000000002,6.015,0,0
-0.018193740000000003,-0.0086202346,-0.0025058301999999998,0.014828122000000001,0.027212560000000004,6.016,0,0
-0.02058782,-0.012285437800000002,-0.0012754802,0.004437382,0.020366299000000004,6.017,0,0
-0.02333582,-0.015417960000000001,0.0003971437999999999,-0.006038058000000001,0.013542409000000002,6.018,0,0
-0.02439284,-0.014864849999999999,0.0012673476,-0.014026378,0.009244163000000001,6.019,0,0
-0.02230358,-0.012379942000000001,0.001163003,-0.018881278,0.008681723,6.02,0,0
-0.018706886,-0.009565862,-0.0007227892,-0.02039714,0.011775503,6.021,0,0
-0.013896761800000003,-0.004101302000000001,-0.0053172652,-0.019020040000000002,0.014098264,6.022,0,0
-0.0060345217999999996,0.0026746979999999997,-0.009917693200000001,-0.01699224,0.011636114000000001,6.023,0,0
0.0038001582000000006,0.0073678879999999995,-0.012664095000000002,-0.01585258,0.00200864,6.024,0,0
0.0133828782,0.010403500000000001,-0.012487326000000002,-0.01478044,-0.014400180000000002,6.025,0,0
0.0223707042,0.01289388,-0.006650710000000001,-0.012967678,-0.03234622,6.026,0,0
0.0297361,0.014195460000000002,0.00404399,-0.009725725999999999,-0.043930800000000006,6.027,0,0
0.03305484,0.01351038,0.01586767,-0.004510271999999999,-0.04489280000000001,6.028,0,0
0.03166788,0.011803336000000001,0.02467727,0.0016471480000000002,-0.036626946,6.029,0,0
0.026827806,0.0096914298,0.025960057999999998,0.0068073280000000005,-0.021982286,6.03,0,0
0.01872039,0.0064856658,0.020779816,0.010304106,-0.005711086,6.031,0,0
0.00839835,0.0017230858000000001,0.0142728876,0.012338134,0.007254933999999999,6.032,0,0
-0.0010295700000000005,-0.0034917742,0.0074098416,0.011925136000000001,0.014193374,6.033,0,0
-0.00757545,-0.0068551902,0.0011455372000000001,0.0093325764,0.015781299999999998,6.034,0,0
-0.011167067999999999,-0.008240626000000001,-0.0017010608000000002,0.0060570244,0.012273298,6.035,0,0
-0.011785808,-0.00834809,-0.0015676308000000003,0.0026785123999999998,0.004974637999999999,6.036,0,0
-0.010163596,-0.007248674,-0.0021294024,-0.0010233256,-0.002004782,6.037,0,0
-0.008466732000000001,-0.005388752,-0.0036573944,-0.0037206916,-0.008410722,6.038,0,0
-0.0071842,-0.003145634,-0.0031364360000000003,-0.004286256,-0.014153122,6.039,0,0
-0.005687897000000001,-0.001382404,-0.0008626100000000001,-0.004114374,-0.01547095,6.04,0,0
-0.0031205350000000007,-0.00040051620000000013,0.001069778,-0.00337525,-0.0120133598,6.041,0,0
0.00040963299999999974,0.0011227998000000001,0.0034473439999999998,-0.0016298359999999997,-0.0079842018,6.042,0,0
0.004434009,0.0036262098000000003,0.0058393279999999995,-9.723799999999993e-05,-0.0039481538000000005,6.043,0,0
0.008754577,0.0057035318,0.00466411,0.0006273400000000001,0.0014093482,6.044,0,0
0.011429566,0.007476243800000001,-0.00027267600000000034,0.0012851919999999999,0.0060998982,6.045,0,0
0.01221116,0.010397064000000001,-0.008817132000000002,0.00143284,0.009165908,6.046,0,0
0.01156794,0.013390951999999998,-0.022652838,0.000564972,0.01189013,6.047,0,0
0.009336832,0.0139643,-0.036986544,-0.0005208300000000001,0.013663322000000002,6.048,0,0
0.0060464632,0.011961564000000001,-0.045653700000000005,-0.00156455,0.013244778,6.049,0,0
0.0026126292,0.008283248,-0.048004920000000006,-0.002370118,0.010885114000000001,6.05,0,0
-0.0013238508,0.0019562280000000004,-0.039769540000000006,-0.0027430880000000003,0.007591725600000001,6.051,0,0
-0.0055449108,-0.006440412,-0.017894979999999998,-0.002999116,0.003652135600000001,6.052,0,0
-0.008299722800000001,-0.013745752000000003,0.00984478,-0.002992666,-0.00021087639999999995,6.053,0,0
-0.010695394,-0.018261796000000004,0.03152242,-0.00287438,-0.0022650044000000003,6.054,0,0
-0.012766500000000002,-0.019653160000000003,0.041996120000000005,-0.0023378340000000004,-0.0019599824,6.055,0,0
-0.013141280000000002,-0.017477430000000002,0.04155414040000001,-0.0007340000000000001,-0.00039949799999999965,6.056,0,0
-0.012827920000000003,-0.013008071599999999,0.030538880400000003,0.0017590480000000003,0.0012462820000000002,6.057,0,0
-0.012902240000000002,-0.007984503599999998,0.014302318400000001,0.004750172,0.0033602460000000003,6.058,0,0
-0.011961942,-0.0022103936,0.0022969543999999996,0.007114274000000001,0.004396564,6.059,0,0
-0.0089916686,0.0028669864000000003,-0.0011567195999999998,0.00745784,0.0031162,6.06,0,0
-0.005214162600000001,0.0060629364,0.00031984799999999996,0.005829994,0.0011314240000000002,6.061,0,0
-0.0005677626000000001,0.008553878,0.0054343080000000005,0.0036244719999999997,-0.00034388599999999995,6.062,0,0
0.005022237400000001,0.009750852,0.01335533,0.0010283320000000003,-0.0012548741999999999,6.063,0,0
0.0099816194,0.0080941774,0.018818614,-0.0009672020000000001,-0.0007882761999999999,6.064,0,0
0.013000166,0.0047710054,0.019397232,-0.000526916,0.0011434498000000002,6.065,0,0
0.012957748000000002,0.0014160553999999998,0.016461813999999998,0.001127122,0.0027235498000000007,6.066,0,0
0.009121986,-0.0022246846000000004,0.010175234,0.0018567000000000002,0.003346607800000001,6.067,0,0
0.002786406000000001,-0.004789378600000001,-0.0006001459999999998,0.0016442460000000002,0.002286006,6.068,0,0
-0.003560054000000001,-0.0056923320000000005,-0.010497686,0.0012335140000000002,-0.00025850799999999974,6.069,0,0
-0.009271414,-0.0067900600000000005,-0.013995610000000002,-0.000249518,-0.002551198,6.07,0,0
-0.013955022000000003,-0.006968992,-0.011971120000000002,-0.0018805140000000002,-0.0031231160000000004,6.071,0,0
-0.014250492000000002,-0.004588618,-0.007968932000000001,-0.0016389820000000002,-0.001706808,6.072,0,0
-0.010387838,-0.0015994600000000007,-0.005679619999999999,-0.0005135720000000002,0.00233665,6.073,0,0
-0.0060240499999999995,0.0006510719999999999,-0.00517506,0.0006274839999999998,0.008413198,6.074,0,0
4.899000000000006e-05,0.0037947699999999994,-0.005100759999999999,0.002260214,0.013488228000000001,6.075,0,0
0.00910967,0.0074510719999999996,-0.006025088,0.003132894,0.015208166,6.076,0,0
0.017315542000000003,0.008995898,-0.0074510874000000005,0.001708174,0.0113692,6.077,0,0
0.022351248000000004,0.008899974,-0.0042623714,-0.0012401420000000003,0.0017052599999999984,6.078,0,0
0.025584100000000002,0.009088664,0.0028871286000000003,-0.005397034,-0.011242440000000003,6.079,0,0
0.02587988,0.008764774,0.0064656706,-0.010266084000000002,-0.022573000000000003,6.08,0,0
0.021942464000000002,0.005980078000000001,0.0061713526,-0.013619404,-0.02803622,6.081,0,0
0.015887288,0.00229453,0.005869556200000001,-0.014209704,-0.026385546000000003,6.082,0,0
0.009193321999999999,-0.0012169780000000003,0.0043545072,-0.012501086,-0.01930432,6.083,0,0
0.0017553820000000002,-0.005221702,-0.00021758679999999992,-0.009191544000000001,-0.009781086,6.084,0,0
-0.0049749980000000004,-0.007730266000000001,-0.0046610888,-0.0053334222,-0.0015058380000000002,6.085,0,0
-0.008951362000000001,-0.008060806,-0.0074492428,-0.0019654462,0.001978276,6.086,0,0
-0.01042179,-0.007205024000000001,-0.009807075000000002,-3.9384200000000123e-05,0.00162722,6.087,0,0
-0.009778222,-0.004616956000000001,-0.011067102000000002,0.000673395,0.00013927600000000003,6.088,0,0
-0.006612728000000001,-0.0002216399999999995,-0.009118526000000002,0.001672227,-0.0014597199999999999,6.089,0,0
-0.0026462380000000004,0.004199956,-0.003911086000000001,0.0024825992000000003,-0.002122078,6.09,0,0
-0.00043499800000000013,0.007379952,0.0009716799999999999,0.0031486912000000004,-0.0005277739999999995,6.091,0,0
0.00046999799999999995,0.009718578000000002,0.0038591980000000003,0.0045778752,0.0027037080000000004,6.092,0,0
0.0008973807999999999,0.010839506000000002,0.003822328,0.006864558,0.006568346000000001,6.093,0,0
-0.0004947652,0.009239818,0.0007291259999999996,0.009846024,0.010904408,6.094,0,0
-0.0040176152000000005,0.005132276,-0.002718356,0.01252335,0.013764118,6.095,0,0
-0.0082065552,0.00013231599999999994,-0.00427176816,0.014153882000000001,0.014111360000000002,6.096,0,0
-0.013520967200000001,-0.005357324,-0.0039008461599999997,0.014647080000000002,0.013751036000000001,6.097,0,0
-0.019519992,-0.010486314,-0.0029299921599999995,0.013991046,0.012343080000000003,6.098,0,0
-0.023541700000000002,-0.013726862000000001,-0.0008777017600000003,0.011621628000000002,0.008530601,6.099,0,0
-0.02589324,-0.01578272,0.00184827024,0.007544308000000001,0.0037798730000000004,6.1,0,0
-0.02725234,-0.01617446,0.0031639864000000003,0.002856144,0.0005223350000000001,6.101,0,0
-0.0265395,-0.014016058,0.0028923324,-0.0009383179999999998,-0.00013368099999999986,6.102,0,0
-0.023563080000000004,-0.010164292,0.0030105112,-0.004109824,0.0009562350000000004,6.103,0,0
-0.019328,-0.005114152,0.0030514932000000002,-0.007502686,0.003044906000000001,6.104,0,0
-0.013366240000000001,0.0007977679999999999,0.0018020132000000004,-0.009468366,0.005539364000000001,6.105,0,0
-0.0049151,0.0072318880000000006,0.0013840292000000002,-0.010712222,0.005053628000000001,6.106,0,0
0.004249320000000001,0.013871446,0.0019914352000000002,-0.01213142,-0.0009483919999999993,6.107,0,0
0.013333280000000001,0.01953166,0.0029848744000000003,-0.012241319999999998,-0.008777212,6.108,0,0
0.02348496,0.022960260000000003,0.004159978,-0.010247124,-0.015020504,6.109,0,0
0.03290862,0.02463402,0.004412302000000001,-0.006472068,-0.019021034000000003,6.11,0,0
0.0388929,0.022468462000000005,0.0034503514000000005,-0.002170423999999999,-0.018623912,6.111,0,0
0.041918960000000005,0.015471416000000002,0.0018356634000000005,0.0016880379999999998,-0.014025912,6.112,0,0
0.04105292,0.006551115999999999,0.0005787534,0.00371188,-0.008375034,6.113,0,0
0.034260200000000005,-0.0025433639999999998,-0.0008103446,0.0035586340000000006,-0.0025984520000000002,6.114,0,0
0.024340236,-0.010101484,-0.0020731586,0.0016969120000000005,0.0030249079999999998,6.115,0,0
0.014515290000000002,-0.014401986,-0.0023620180000000005,-0.0008753600000000003,0.00739716,6.116,0,0
0.005225968000000001,-0.01616572,-0.0015180480000000001,-0.00388744,0.00996816,6.117,0,0
-0.0014292919999999995,-0.015411972000000001,0.00015834599999999996,-0.006731902000000001,0.0095663908,6.118,0,0
-0.004925588,-0.010487380000000001,0.001534308,-0.007849134,0.0064681548000000005,6.119,0,0
-0.006727068000000001,-0.0038615800000000003,0.002096576,-0.0077595960000000005,0.0013690948000000007,6.12,0,0
-0.007003276000000001,0.0022845999999999995,-0.00043599999999999976,-0.0063145894,-0.0046430252,6.121,0,0
-0.006373568000000001,0.007587108,-0.005043754,-0.0027305934,-0.0073325052000000005,6.122,0,0
-0.006899028000000001,0.0095054512,-0.008598532,0.0018445865999999996,-0.004701354,6.123,0,0
-0.009272292,0.007995828,-0.011938812,0.005637688599999999,6.79800000000009e-05,6.124,0,0
-0.011739208000000001,0.0064346460000000005,-0.0158491,0.0092653966,0.005218540000000001,6.125,0,0
-0.013660314,0.006093046,-0.01691556,0.012379778,0.010376660000000001,6.126,0,0
