bandpass 1,bandpass 2,bandpass 3,bandpass 4,bandpass 5,time,onset,mark
-0.00041097612,-0.0004701122,3.225213999999996e-05,0.00021807460000000003,0.0002610342,3.852,0,0
-0.00088618012,-0.000546651,-0.00018055786000000006,0.00038906020000000006,0.0004884422,3.853,0,0
-0.00076912132,-0.0005008645999999999,-0.00017288566000000006,0.0007699142000000001,0.0006888502,3.854,0,0
-0.0009313492,-0.0004164438,-0.0002849706600000001,0.0006868118,0.000727743,3.855,0,0
-0.001691849,1.7604999999999964e-05,-0.00011914820000000006,0.0007694708000000001,0.0005482562,3.856,0,0
-0.0013742058,0.001101021,0.00034450379999999997,0.0009924368,3.193899999999998e-05,3.857,0,0
-0.0007668738,0.0016232797999999999,0.0005131338,0.0007137924000000001,-0.00031046320000000004,3.858,0,0
-0.0011418326,0.0018054194,0.00035949720000000003,6.969840000000001e-05,-0.0005841188000000001,3.859,0,0
-0.0014610348000000002,0.00244626,0.0004632502000000001,-0.00029777520000000003,-0.0009459628000000001,3.86,0,0
-0.0009922348,0.0024993240000000003,0.0004170532000000001,-0.0003249594,-0.0010318030000000002,3.861,0,0
-0.001043142,0.0018003544000000002,3.258640000000006e-05,-0.0005452946000000001,-0.0005071536,3.862,0,0
-0.0013276052,0.0016403704,9.853860000000005e-05,-0.00032608240000000003,-0.00014245740000000005,3.863,0,0
-0.0007552112000000001,0.0020717504000000004,0.0008238030000000001,2.5197400000000024e-05,-0.00018504280000000004,3.864,0,0
-7.790520000000003e-05,0.0018879804000000004,0.0010043110000000001,-1.6634600000000005e-05,0.00022165080000000008,3.865,0,0
0.00023582599999999996,0.0012650756000000003,0.0012316634000000002,-0.00019704040000000003,0.0003300758000000001,3.866,0,0
0.00116374,0.0010933262000000002,0.0018092302000000003,-0.0001699832,-1.6750799999999975e-05,3.867,0,0
0.0021824232,0.0008326216000000003,0.0015891158,-0.0002624258,-8.242459999999998e-05,3.868,0,0
0.0022343372,-0.0002048844,0.0007373418000000001,-0.0003544256,0.0007432144,3.869,0,0
0.0023790732,-0.0010670444,6.214980000000009e-05,-9.250422000000001e-05,0.0015642508000000002,3.87,0,0
0.002748482,-0.0011201396,-0.0005822721999999998,-6.650342e-05,0.0019430370000000003,3.871,0,0
0.00172435,-0.0014248166,-0.0014838702,8.916138e-05,0.0025446002000000002,3.872,0,0
0.00038758400000000017,-0.0021577600000000003,-0.001614958,0.0017975585800000002,0.0026510280000000006,3.873,0,0
5.214540000000003e-05,-0.002424512,-0.0015036914,0.004972078580000001,0.002163696,3.874,0,0
-0.0007290866000000001,-0.002775674,-0.0017421274000000001,0.007444081200000001,0.001615972,3.875,0,0
-0.0017048806,-0.0035346680000000004,-0.0019566454,0.0089106728,0.0009985140000000003,3.876,0,0
-0.0016786246000000003,-0.003706516,-0.001656084,0.009424682,-0.00011627600000000001,3.877,0,0
-0.0013697108,-0.0031956606,-0.0012503427999999998,0.006840822000000001,-0.0006600320000000001,3.878,0,0
-0.0016485462000000002,-0.0025557686,-0.0010629723999999998,0.0017430680000000008,-0.000860977,3.879,0,0
-0.0013555617999999998,-0.0013484026000000003,-0.0001885663999999999,-0.002926212,-0.001481585,3.88,0,0
-0.0003796817999999999,0.00042404940000000005,0.0006089456,-0.007021332000000001,-0.0014194410000000002,3.881,0,0
-0.00011178779999999997,0.0017015154000000002,0.0006929878,-0.010277966000000001,-0.0008085422000000002,3.882,0,0
-0.00010572359999999999,0.002400956,0.0005898534,-0.011264720000000002,-0.0007513354000000001,3.883,0,0
0.00035744840000000004,0.0027882980000000007,0.0005375814,-0.010553716000000001,-0.0013628684,3.884,0,0
0.0006051466000000001,0.0028208640000000006,0.0001526522,-0.009267075999999999,-0.0015173164,3.885,0,0
0.00037467060000000006,0.002291944,-0.00013718126000000005,-0.006880028,-0.0014169214,3.886,0,0
0.0007805346,0.0017703162000000001,-0.00010737126,-0.003972422000000001,-0.0015057794,3.887,0,0
0.0012658846,0.0016380142000000002,-0.00030367806,-0.0023046158,-0.0014744391999999998,3.888,0,0
0.0010589827800000001,0.0009729922000000001,-0.00049387706,-0.0009728349999999999,-0.0008386492,3.889,0,0
0.00101798278,0.00012184819999999988,-0.0003061858600000001,0.000421929,-0.00032032240000000003,3.89,0,0
0.0009469977800000001,-0.00029110320000000004,3.330960000000002e-05,0.0008928273999999999,-0.0005593694,3.891,0,0
0.00036570978,-0.0008593514000000001,-9.104e-05,0.0010183694,-0.00037142140000000006,3.892,0,0
-0.0002774162200000001,-0.0014544094,-0.000156346,0.0021740492,-0.00020432832,3.893,0,0
-0.0004353540000000001,-0.0010233268,4.544199999999999e-05,0.0032156184,-0.0006669363200000002,3.894,0,0
-0.0004655626000000001,-0.00045457699999999995,-0.00029178099999999996,0.0033335144000000002,-0.0008179331200000001,3.895,0,0
-0.0008892916,-0.00038422139999999994,-0.000974549,0.003921748,-0.00062578632,3.896,0,0
-0.0007553458000000001,0.00046237260000000005,-0.001120401,0.004572428,-0.0008963991200000002,3.897,0,0
0.0002581262,0.0011680946000000002,-0.0008939058,0.0042641680000000005,-0.0007421370000000001,3.898,0,0
0.0009214998000000002,0.0008703386,-0.0006601857999999999,0.0037272720000000002,-0.00022690600000000008,3.899,0,0
0.0014312018000000003,0.00085083,-0.00013670879999999987,0.004113736000000001,-0.0006530820000000001,3.9,0,0
0.0024347338000000004,0.0012738078,0.0005653972000000001,0.003954678,-0.0009902428,3.901,0,0
0.0025986526000000005,0.0009624896000000001,0.0011025102000000002,0.0027640904,-0.0007087048,3.902,0,0
0.0017322120000000001,0.0003858866,0.0012911452,0.0018383544,-0.0004137710000000001,3.903,0,0
0.0012391946,0.00031901600000000004,0.0010858873800000002,0.0008796384,0.00019846200000000016,3.904,0,0
0.00036534460000000013,-0.0001878812,0.0006272377799999999,-0.0005194196,0.001301808,3.905,0,0
-0.0012779214000000001,-0.0010818092,0.00026833830000000007,-0.0016343456,0.0019872772,3.906,0,0
-0.00183908,-0.001573939,4.027350000000002e-05,-0.0022231100000000004,0.0016408592000000002,3.907,0,0
-0.0016085686,-0.001680086,-0.0002815809,-0.0028924800000000002,0.0010528032,3.908,0,0
-0.0019142212,-0.001720704,-0.00042220928,-0.003051298,0.0006884612,3.909,0,0
-0.0017381958000000002,-0.0012868694,-0.00032521008000000004,-0.0027797900000000003,0.000107739416,3.91,0,0
-0.0007923110000000001,-0.0003911794,-0.0005832306000000001,-0.002591518,-0.00023719498400000003,3.911,0,0
-0.000736069,0.00019362860000000004,-0.0007401808000000002,-0.00188993676,0.000371209016,3.912,0,0
-0.0010834418,0.0008180606000000001,-0.0005781838000000001,-0.00083697516,0.0008452470160000001,3.913,0,0
-0.0002953398,0.0017916666000000001,-0.00048435820000000007,-0.00021672156000000005,0.0004904870160000001,3.914,0,0
0.0002086268,0.0023970180000000003,-0.00027996780000000005,0.00040557844000000006,0.00031721160000000006,3.915,0,0
0.00021739160000000003,0.002372594,0.0002462162,0.00122714444,0.0004024788000000001,3.916,0,0
0.0011593356000000003,0.002586478,0.0008217662000000001,0.0014101600000000001,0.00017509520000000002,3.917,0,0
0.0020443416,0.0026431500000000004,0.000981916,0.0013060986,1.1270199999999979e-05,3.918,0,0
0.0015100738,0.0019748484,0.0007170886,0.0010962516,0.0004338822000000001,3.919,0,0
0.00096201,0.0012313728000000002,0.000299979,0.0004749219999999999,0.0009963054,3.92,0,0
0.0015379504000000003,0.0006819848000000001,0.0002094920000000001,-4.2013e-05,0.001239558,3.921,0,0
0.0012624204,-0.0002751832,-0.00013682859999999999,-0.0003348442,0.0014563075999999998,3.922,0,0
0.0002032464000000001,-0.0016058692,-0.0007393992,-0.00041596940000000006,0.0014309999999999998,3.923,0,0
-3.8769799999999915e-05,-0.0021352076000000003,-0.0008554612,-0.000627432,0.00102770992,3.924,0,0
-0.00030961599999999997,-0.00242988,-0.0007881254000000001,-0.0011404444000000001,0.00089108592,3.925,0,0
-0.00117679,-0.0026845480000000006,-0.0012058164,-0.0011618912,0.0008453867199999999,3.926,0,0
-0.0012385134000000003,-0.0020688424,-0.0014337518,-0.0007855208000000001,0.00046243532000000005,3.927,0,0
-0.000672507,-0.0008631504000000002,-0.00093847332,-0.0006533704,0.00029648991999999994,3.928,0,0
-0.0008158510000000001,-0.00015760440000000005,-0.0007865593200000001,-9.738439999999998e-05,0.00034331,3.929,0,0
-0.000588829,0.00018051659999999997,-0.00068745752,0.0010398056,-0.000150678,3.93,0,0
1.590700000000001e-05,0.0007264936,-6.325152000000004e-05,0.0013985354,-0.0005124694,3.931,0,0
-0.00045134560000000007,0.000576863,0.00045845448,0.0013483853999999998,-0.0003129456,3.932,0,0
-0.0008210620000000002,0.0003925002,0.0006353057999999999,0.001641586,-0.0005009736,3.933,0,0
-6.9668e-05,0.0007719762000000001,0.001024845,0.0016896140000000003,-0.0008996616,3.934,0,0
0.000398846,0.0007618454000000002,0.001386293,0.001038559,-0.0007510764000000001,3.935,0,0
0.00011204359999999997,0.0002635564000000001,0.001520507,0.00029806900000000004,-0.00040342920000000003,3.936,0,0
0.00048649880000000003,0.0002630040000000002,0.001584127,-8.365979999999998e-05,-0.0006706006000000001,3.937,0,0
0.0006341144,-0.00016437319999999984,0.0016389852,-0.0008100858,-0.0007311746,3.938,0,0
-0.0005634396,-0.0018026952,0.001769426,-0.0015214157999999998,-0.00013884460000000004,3.939,0,0
-0.0014379276,-0.0024081714,0.0014358744,-0.001403187,0.00025088819999999996,3.94,0,0
-0.0019369831999999998,-0.0024420474,0.0010431020000000002,-0.0010433432,0.000482473,3.941,0,0
-0.0027708083999999997,-0.003135054,0.0007679994000000002,-0.0008266296,0.0007220042,3.942,0,0
-0.003058302,-0.0032838640000000005,0.00036117100000000003,-0.00032114839999999986,0.0005974382,3.943,0,0
-0.0022692114,-0.0023946146,0.00013346220000000006,3.20104e-05,-2.5518000000000524e-06,3.944,0,0
-0.0015920618000000001,-0.0014903746,0.00020307180000000004,8.360986000000001e-05,-0.0004606708,3.945,0,0
-0.0011243668,-0.0009029911999999999,0.00016489300000000002,0.00010328086000000003,-0.0010036786,3.946,0,0
0.0003183912,0.0002607088,7.924e-06,8.299846e-05,-0.0016596027999999999,3.947,0,0
0.0016297132000000001,0.0012618168,-7.141199999999992e-06,0.00020945526000000004,-0.0019683348,3.948,0,0
0.0020563506000000004,0.0013550612,-0.00043355239999999995,0.0006111424600000001,-0.0023240608000000005,3.949,0,0
0.0027058110000000002,0.0013072472,-0.0006481152,0.0010105192000000002,-0.0026677418000000002,3.95,0,0
0.0033685720000000002,0.0015214258000000001,-0.0005832923999999999,0.0009945754,-0.0026687200000000003,3.951,0,0
0.0030277400000000006,0.0012531122,-0.0006561614,0.000720505,-0.0021906774000000004,3.952,0,0
0.002421536,0.0008767582,-0.0003743778,0.0006246282000000001,-0.0014296612,3.953,0,0
0.0023946139999999998,0.0011327184000000001,0.0001626588,0.00032549440000000004,-0.0006823542,3.954,0,0
0.0016716288000000001,0.0012092204000000001,0.0006368616000000001,-0.00048021559999999997,0.0002949218,3.955,0,0
0.00014037879999999976,0.0009610686,0.000825838,-0.0005548952,0.0012050798000000002,3.956,0,0
-0.0007626472000000002,0.00069867,0.00113651,-0.0002609486,0.0014207409999999999,3.957,0,0
-0.0016124412000000003,0.00036701459999999997,0.0012339780000000002,-0.0005668218,0.0013875425999999998,3.958,0,0
-0.0030821032,-6.758539999999997e-05,0.0008394734,-0.0005695860000000001,0.0014712008,3.959,0,0
-0.0037889480000000003,-0.0003326578,0.00012527140000000007,-3.3474000000000025e-05,0.0009431969999999999,3.96,0,0
-0.0030144018,-0.0002271608,-0.0006371146,0.0004502566,2.7568999999999993e-05,3.961,0,0
-0.0024514428,-0.0002378152,-0.0012152,0.000708846,-0.0003325168,3.962,0,0
-0.0020087604,-0.00012214662,-0.0018378120000000003,0.001113126,-0.0006257906,3.963,1,1
-0.0006395604000000001,0.00044444138,-0.001893462,0.0014896120000000002,-0.0008432832000000001,3.964,0,0
0.0003273496,0.0006075693800000001,-0.0014685324,0.0016300480000000003,-0.00046972739999999994,3.965,0,0
0.0007450994000000001,0.0005021517800000001,-0.0010378480400000001,0.0014149066,1.332660000000007e-05,3.966,0,0
0.0015458284,0.0009767003800000003,-0.00042940604000000007,0.0008753766000000002,0.00036494740000000004,3.967,0,0
0.002570518,0.0015164272,0.00021581596000000002,0.0005032458000000001,0.0010148514000000001,3.968,0,0
0.002956484,0.0015560732000000001,0.00063630116,4.9170000000000005e-05,0.0018461268000000003,3.969,0,0
0.003016182,0.0018970356,0.00101825956,-0.000516444,0.0019774948,3.97,0,0
0.003059332,0.0020340000000000002,0.0011426702,-0.0015475486,0.0019290288,3.971,0,0
0.0018518600000000003,0.001133056,0.0005807462000000001,-0.0023159706000000003,0.00236784,3.972,0,0
6.940400000000002e-05,7.80939999999999e-05,0.00012783420000000005,-0.0023497080000000003,0.0023207320000000003,3.973,0,0
-0.0009220940000000001,-0.000809152,-4.231379999999999e-05,-0.0027204022000000007,0.0017106286,3.974,0,0
-0.0019751400000000002,-0.0019444280000000002,-0.0006377588,-0.0026778922000000004,0.0015078606,3.975,0,0
-0.003269974,-0.0026900720000000004,-0.0011111838000000002,-0.0017240058,0.0017119806,3.976,0,0
-0.0032154500000000003,-0.0023161392,-0.0011132978,-0.0008548588000000001,0.0015051906,3.977,0,0
-0.0025428778,-0.0017509391999999998,-0.0011800298,-0.0006932546,0.0009364286,3.978,0,0
-0.0024735318000000004,-0.0013372710000000001,-0.0013339329999999998,-0.0005140565999999999,0.000571386,3.979,0,0
-0.0017459064000000001,-0.000570432,-0.0012331784000000003,-0.00024081819999999997,0.00011516799999999997,3.98,0,0
-0.0002917204,0.00055146,-0.000942728,-4.480599999999945e-06,-0.00048654640000000006,3.981,0,0
0.0006746976000000001,0.0011434932,-0.0005664372,0.0004074444000000001,-0.0005705644,3.982,0,0
0.0015627474,0.0013638512000000002,1.3990799999999968e-05,0.0007140844000000002,2.6041599999999964e-05,3.983,0,0
0.0032547794000000003,0.001950827,0.0005842888,0.0010156504,0.00028038217999999996,3.984,0,0
0.004486238,0.00225368,0.0009472372,0.0010157848,0.00015067418,3.985,0,0
0.004570240000000001,0.0020463499999999997,0.001073248,0.0009157264000000001,0.00023930577999999996,3.986,0,0
0.004518858000000001,0.001747387,0.0011859498,0.0006671432,-0.00015647862000000006,3.987,0,0
0.0039647602,0.0015804781999999998,0.0009889144000000002,-7.851480000000007e-05,-0.00063529722,3.988,0,0
0.0021017742,0.0011372539999999999,0.0004582252,-0.0001980072,-0.0003397758,3.989,0,0
0.0001301961999999998,0.0007180748000000001,0.00027867340000000003,0.00020271000000000002,0.00011455220000000002,3.99,0,0
-0.0011943378000000002,0.00042581300000000004,0.00027428,6.012199999999998e-05,-2.114100000000002e-05,3.991,0,0
-0.0026901438,-4.560399999999998e-05,8.499800000000003e-06,0.0001962946,-5.6396400000000035e-05,3.992,0,0
-0.0037109860000000003,-0.00013588667999999999,-0.0001462524,0.0008337866000000001,-9.357040000000001e-05,3.993,0,0
-0.003668246,0.00035674952,-7.863300000000002e-05,0.0007027574000000001,-0.0007852843999999999,3.994,0,0
-0.003425952,0.00017729971999999998,-0.00045975120000000006,-0.0001707145999999999,-0.0008413214,3.995,0,0
-0.003565096,-0.0009523224800000001,-0.000984013,-0.00039756839999999997,-0.0002757234,3.996,0,0
-0.0033869,-0.0017212884799999999,-0.0014646814000000001,-0.00021645579999999995,-0.00024374199999999992,3.997,0,0
-0.0030713940000000003,-0.002954007,-0.0022923378,-0.0002927745999999999,-0.00044763340000000004,3.998,0,0
-0.003651838,-0.005067777000000001,-0.0030324540000000004,5.972340000000008e-05,-0.00026593259999999996,3.999,0,0
-0.00397013,-0.006016462,-0.003166044,0.0006174592000000002,-0.0007534776,4.0,0,0
-0.0033677099999999995,-0.00511212,-0.0028184215999999995,0.0005215094000000001,-0.0019651816,4.001,0,0
-0.0026106686,-0.0037509460000000002,-0.002282133,-3.362959999999996e-05,-0.0026592912000000003,4.002,0,0
-0.0015239886000000002,-0.002154024,-0.00138879618,-0.00010635880000000003,-0.0031854472,4.003,0,0
0.0008030894000000001,0.00025266000000000025,-4.068418000000007e-05,-3.652120000000004e-05,-0.004240394000000001,4.004,0,0
0.0034398054,0.0024103300000000005,0.00110401382,-0.00016640100000000005,-0.004752056,4.005,0,0
0.0052937874,0.0036388820000000004,0.00191348942,-3.321200000000002e-05,-0.0037617608,4.006,0,0
0.007392886,0.004734482,0.00300647482,-0.00010106500000000001,-0.0028667987999999997,4.007,0,0
0.00893132,0.00538441,0.003847694,-0.000582957,-0.0019045305999999998,4.008,0,0
0.008802564,0.004907798,0.003894752,-0.001215337,-9.485660000000003e-05,4.009,0,0
0.007938934,0.003826032,0.003670002,-0.001518187,0.0014033434,4.01,0,0
0.00666465,0.0026503258000000005,0.0033564420000000003,-0.0012838254,0.0020891282,4.011,0,0
0.003844578,0.0008308198,0.0023777908000000006,-0.0010550652000000003,0.0028049782,4.012,0,0
0.00020452000000000014,-0.0011639242,0.0012363188,-0.0007581844000000002,0.00342147,4.013,0,0
-0.002373554,-0.0022629822000000003,0.0006532430000000002,-0.0003119694,0.0030392847999999996,4.014,0,0
-0.005062642,-0.0032095382000000006,-0.00015357699999999998,0.00010912520000000002,0.002394739,4.015,0,0
-0.007852386,-0.004175598,-0.001129999,0.0004588326,0.0016473014,4.016,0,0
-0.008444,-0.004294204,-0.0016328518,0.0009940904000000001,0.00073344,4.017,0,0
-0.00723467,-0.003617896,-0.0017504598,0.0015914776,-5.76152e-05,4.018,0,0
-0.0060721080000000005,-0.0030459578,-0.001727046,0.0018587506,-0.000623146,4.019,0,0
-0.0037545980000000005,-0.0017041037999999998,-0.0014722840000000001,0.002176532,-0.0013017422000000001,4.02,0,0
9.270000000000025e-06,0.00044241020000000014,-0.0008185772,0.0020468020000000003,-0.0019755566,4.021,0,0
0.00244968,0.0015711342000000001,1.3907999999999325e-06,0.0015759766000000002,-0.0019176884000000002,4.022,0,0
0.003722276,0.0022656982,0.0009611148000000001,0.0014255986000000001,-0.0018546052000000003,4.023,0,0
0.005001292,0.0034133540000000004,0.0017681708000000002,0.001064807,-0.0014834752000000002,4.024,0,0
0.005267622,0.003446958000000001,0.0024636768000000004,0.00039231899999999997,-0.00011059120000000012,4.025,0,0
0.004190012000000001,0.0021736302000000002,0.003158134,-5.220180000000004e-05,0.0012285948,4.026,0,0
0.0029644944000000004,0.0015445378,0.003339496,-0.00039876240000000007,0.001865696,4.027,0,0
0.0016315504,0.0008959038,0.002645987400000001,-0.0009984724000000002,0.002686932,4.028,0,0
-0.0005072216000000002,-0.0008188181999999999,0.0012792474000000004,-0.0012110108,0.003775962,4.029,0,0
-0.0028472016,-0.0020957182,0.00011408540000000002,-0.0009576688000000001,0.0037443760000000006,4.03,0,0
-0.0045933556000000006,-0.0026002024,-0.0011443366,-0.0006711556000000001,0.0031768898000000003,4.031,0,0
-0.006094190000000001,-0.0035545380000000003,-0.0024556426,-0.00017544900000000005,0.0028166718000000005,4.032,0,0
-0.006852818000000001,-0.004093262,-0.0031357200000000003,0.000404187,0.0017788558,4.033,0,0
-0.005983550000000001,-0.0034383048,-0.003306112,0.0007436356000000001,0.0002547238,4.034,0,0
-0.004463482,-0.002737672,-0.0032492640000000004,0.0008797424000000001,-0.0008361102,4.035,0,0
-0.002837622,-0.002052011734,-0.0029148704,0.0008717148,-0.001698672,4.036,0,0
-0.0004304440000000001,-0.000589419734,-0.0020522218,0.0008157196000000001,-0.002482244,4.037,0,0
0.002232304,0.000885350266,-0.0009288618000000002,0.00047805160000000005,-0.0026564080000000003,4.038,0,0
0.0036447700000000003,0.001835311066,0.00012851020000000004,0.00012603100000000008,-0.0025361940000000003,4.039,0,0
0.004967954,0.0029645982660000004,0.0009015082000000002,-0.00012207459999999994,-0.002451582,4.04,0,0
0.006537126000000001,0.004037662,0.0015618806,-0.0006721534000000001,-0.0019089166,4.041,0,0
0.006511488000000001,0.004468208,0.001951554,-0.0012578708,-0.0009598306,4.042,0,0
0.0050541124000000005,0.004084298,0.002062138,-0.0017269608,-6.127859999999994e-05,4.043,0,0
0.003597020400000001,0.0032447858000000003,0.002044136,-0.0017567868,0.0005785614000000001,4.044,0,0
0.0016865284000000002,0.0018741918000000002,0.001580507,-0.001792559,0.0013339834,4.045,0,0
-0.0013349776,0.00021635579999999995,0.0005865990000000001,-0.0015595539999999999,0.002231186,4.046,0,0
-0.0033462635999999997,-0.0009084062,-0.00014845900000000004,-0.0008250620000000003,0.0022633540000000004,4.047,0,0
-0.004302588,-0.0019228942,-0.0006401022,-0.00026844240000000006,0.0016410692,4.048,0,0
-0.00521803,-0.002894102,-0.0014306902000000002,0.00030684159999999996,0.0011868700000000002,4.049,0,0
-0.004978288,-0.002982312,-0.0019081732,0.0010895746,0.0004012400000000002,4.05,0,0
-0.003325034,-0.002759038,-0.0020833292,0.0015336556,-0.0012636319999999998,4.051,0,0
-0.0016303460000000002,-0.0025882302000000005,-0.0024215852000000005,0.0011163535999999998,-0.00227234,4.052,0,0
0.00016996200000000017,-0.0012705721999999998,-0.0027345060000000003,0.0009029215999999999,-0.0024214172,4.053,0,0
0.002730988,0.0005450218,-0.0022555720000000004,0.00036983959999999994,-0.002839018,4.054,0,0
0.00447872,0.0016836058000000002,-0.001271434,-0.0007788524,-0.002444239,4.055,0,0
0.004859394,0.0025158558,2.052e-05,-0.0013269304,-0.001213859,4.056,0,0
0.005144132000000001,0.0031827039999999997,0.0017246040000000002,-0.0011440374,-0.00022803300000000004,4.057,0,0
0.005114632000000001,0.0032165380000000006,0.0033006500000000005,-0.0008449824,0.000648217,4.058,0,0
0.0037929564,0.0026726040000000003,0.0043021940000000005,-0.0007176264000000001,0.0020007590000000004,4.059,0,0
0.0019043824000000002,0.0018570482000000005,0.004248404000000001,-0.0003163714,0.0028687720000000003,4.06,0,0
0.0006522444000000002,0.0011133702,0.0030158440000000006,-7.75886e-05,0.003030486,4.061,0,0
-0.0009814576,0.0002400482,0.0012032400000000002,-0.00011560160000000002,0.003229028,4.062,0,0
-0.0034373936,-0.0010833738000000002,-0.0006418300000000001,4.581800000000031e-06,0.0028862980000000002,4.063,0,0
-0.00439446,-0.0019317778000000002,-0.002516734,0.00041443780000000003,0.0019537762,4.064,0,0
-0.004593046000000001,-0.0022667760000000003,-0.00354548,0.0005510384,0.0011615054199999998,4.065,0,0
-0.005376568000000001,-0.00245899,-0.0033633720000000003,0.0007697732,0.00067904142,4.066,0,0
-0.005000994000000001,-0.0022201038,-0.0027127982000000003,0.0013058132000000001,-0.00045027658000000006,4.067,0,0
-0.0034814984,-0.0012335118,-0.0019119522000000005,0.0012534072,-0.00141310458,4.068,0,0
-0.00256205252,-0.0001644337999999998,-0.0010378522,0.0009334496000000001,-0.0017263907800000003,4.069,0,0
-0.0013072705199999998,0.0008513802,-0.0002767282,0.0009483454000000001,-0.0024638740000000004,4.07,0,0
0.00126098548,0.0022692322,0.0002852626,0.0006639570000000001,-0.003065006,4.071,0,0
0.0027116574800000004,0.003018674,0.0005838368,-0.00030238300000000004,-0.0027113756,4.072,0,0
0.00316671988,0.003179316,0.0008050908000000001,-0.0008005730000000001,-0.0019136662000000001,4.073,0,0
0.003926462,0.003199158,0.0012486348,-0.0007495030000000001,-0.0011777942,4.074,0,0
0.003975060000000001,0.0024275240000000003,0.0016278068000000001,-0.0010337924,3.7231799999999985e-05,4.075,0,0
0.0029050178000000005,0.0008391659999999999,0.0016387878,-0.0012366176000000002,0.0010401198,4.076,0,0
0.0019243838,-0.0003789860000000002,0.0015335282,-0.0005919456000000001,0.0013787634000000002,4.077,0,0
0.0015599098000000002,-0.0016071140000000002,0.001225794,1.6839999999996268e-07,0.0013886730000000002,4.078,0,0
0.0004051218,-0.0033220640000000004,0.00040278200000000013,1.558599999999988e-05,0.00111513964,4.079,0,0
-0.0007974922000000002,-0.003843284,-0.000498194,0.0003278422,0.0007288154400000001,4.08,0,0
-0.0010478190000000002,-0.003725112,-0.0009666938,0.0007063767999999999,0.00027580504,4.081,0,0
-0.0016160190000000002,-0.0037902260000000003,-0.0011673752,0.0007044028000000001,7.600724e-05,4.082,0,0
-0.002469821,-0.0031866318,-0.0013069834,0.0010198588,-0.00011407396000000003,4.083,0,0
-0.0022316358000000003,-0.0018177418000000002,-0.0011069112,0.0014239988000000002,-0.0007870906,4.084,0,0
-0.0016639530000000001,-0.0008352598000000004,-0.0008889032000000001,0.0012853670000000002,-0.0014433544000000001,4.085,0,0
-0.0016458972000000002,-0.00011627780000000005,-0.0008748852,0.0010753808000000002,-0.0012257578000000001,4.086,0,0
-0.0005936612000000002,0.0012016062,-0.0006410582,0.0009997864,-0.0009996106000000002,4.087,0,0
0.0009041308,0.002123336,-0.0001587338,0.000497124,-0.0010843308000000002,4.088,0,0
0.0007933776,0.0026029679999999998,0.00022985100000000007,-2.1406600000000006e-05,-0.00027650639999999996,4.089,0,0
0.0005895288,0.003231024,0.000979543,0.0002412818,0.00037408480000000006,4.09,0,0
0.001311474,0.003429184,0.001992063,0.00018423340000000004,9.344100000000002e-05,4.091,0,0
0.0007879730000000002,0.002517054,0.002096045,-0.0005100902,0.0003032916,4.092,0,0
-0.00034048699999999994,0.001218798,0.0017666812000000003,-0.0008956978,0.000760352,4.093,0,0
-6.736899999999996e-05,0.0002483699999999999,0.0016496352,-0.001017526,0.0007223090000000002,4.094,0,0
-3.242419999999993e-05,-0.0008791960000000001,0.00114484826,-0.0015874688000000001,0.0009265338000000001,4.095,0,0
-0.0007677222,-0.0018634240000000002,0.0003115222600000001,-0.0016816968,0.0012058568000000002,4.096,0,0
8.912800000000082e-06,-0.0017433946,-5.944913999999999e-05,-0.0010560682000000001,0.0007754506,4.097,0,0
0.0014300268,-0.0010502372000000004,-0.00011149633999999999,-0.0011112202,0.0004568173999999999,4.098,0,0
0.0019158828,-0.0007571190000000001,-3.654974e-05,-0.0012557674000000002,0.000560226,4.099,0,0
0.002541906,-0.00010854700000000002,0.0003608432,-0.0009975844,0.0003246756,4.1,0,0
0.003435342,0.0009509590000000001,0.0007666872,-0.0012141344,-2.2050400000000022e-05,4.101,0,0
0.003250918,0.0012093790000000002,0.0011258626,-0.001906861,-0.00011790800000000004,4.102,0,0
0.0023542284,0.0009893598,0.0013948636,-0.001961635,-0.00019104020000000003,4.103,0,0
0.0019951504000000004,0.0007909722000000001,0.0010669356000000002,-0.0017296660000000001,-0.00046933960000000003,4.104,0,0
0.0010289164,-0.00042284780000000007,0.00034513360000000006,-0.0017632055999999999,-0.0001261932,4.105,0,0
-0.0012105356000000002,-0.0023511378,-0.00022753439999999997,-0.0010718068,0.0008258194,4.106,0,0
-0.0031443536,-0.0035970772000000002,-0.0009362744000000001,0.00024849320000000014,0.0012044332,4.107,0,0
-0.004653592000000001,-0.0043319794,-0.0020607784000000002,0.0012176432,0.0012351656,4.108,0,0
-0.006892762,-0.004998802,-0.0031230700000000004,0.0017196202000000003,0.0012672952000000002,4.109,0,0
-0.008233394000000002,-0.004432646,-0.0037307980000000004,0.0022596868,0.0004349391999999998,4.11,0,0
-0.0076278660000000005,-0.0025116360000000003,-0.004172478,0.002708414,-0.0009194508000000002,4.111,0,0
-0.006640336000000001,-0.0007540919999999999,-0.004348178,0.002450624,-0.0016328308,4.112,0,0
-0.00508905,0.0010255760000000003,-0.00371502,0.002159116,-0.0021636098,4.113,0,0
-0.00163558,0.003342088,-0.00234227,0.002377742,-0.0028864660000000003,4.114,0,0
0.0019173200000000004,0.004878524,-0.0009619960000000001,0.002402978,-0.002942752,4.115,0,0
0.003992092000000001,0.005456304,0.00017506799999999996,0.002017426,-0.0025351412,4.116,0,0
0.006140544000000001,0.006142962,0.0010718720000000002,0.0016195632,-0.0024133892000000002,4.117,0,0
0.007585502,0.0059570479999999995,0.001735864,0.0007636432,-0.0019953352,4.118,0,0
0.007156338000000001,0.0045696038000000005,0.002466994,-0.00042735280000000004,-0.0011147666,4.119,0,0
0.0062859100000000005,0.0031996302000000003,0.0027375380000000003,-0.0010591388,-0.0003066866,4.12,0,0
0.005490114,0.0017400402000000005,0.0024662966,-0.0017658328,0.0003588185999999999,4.121,0,0
0.003525666,-0.0006343878,0.0023947906,-0.0023254480000000004,0.0014399446,4.122,0,0
0.001116528,-0.0025930118000000004,0.001978287,-0.0019921260000000003,0.0023970386,4.123,0,0
-0.000727802,-0.0034986436000000003,0.0008445010000000001,-0.0013200176000000001,0.0024447954,4.124,0,0
-0.0030588480000000003,-0.004564982,-0.00030930499999999995,-0.0007803696,0.0019362754,4.125,0,0
-0.005459876,-0.005143454,-0.0012878056000000001,-0.0001513788,0.0010370094000000003,4.126,0,0
-0.006666246,-0.00485394,-0.0022094896000000004,0.0005375086000000001,-0.00010653859999999981,4.127,0,0
-0.006503972,-0.0039302880000000005,-0.0029197040000000004,0.0009671326000000001,-0.0014313346,4.128,0,0
-0.005775018600000001,-0.002765376,-0.0031283660000000005,0.0009801094000000002,-0.002125614,4.129,0,0
-0.0040877864000000005,-0.00115808,-0.0025715838000000004,0.000796731,-0.0018919774000000001,4.13,0,0
-0.0010506603999999998,0.0008121320000000001,-0.0013287218000000002,0.0010151562000000002,-0.0017755114000000002,4.131,0,0
0.0017093916,0.0023690940000000004,-0.00017590379999999993,0.0011989848,-0.0017281394,4.132,0,0
0.0037024835999999997,0.0034485220000000003,0.0007672062000000001,0.001140175,-0.0010510469999999998,4.133,0,0
0.0057066062,0.00419569,0.0017567262000000002,0.0010095438000000002,-0.00044135580000000005,4.134,0,0
0.007170386,0.004317948,0.002344708,0.0006875656,-0.00022356439999999996,4.135,0,0
0.0070455119999999994,0.0032088364,0.002285404,0.0002338806,0.0006016736,4.136,0,0
0.006274106000000001,0.002229177,0.0021664320000000003,2.986300000000001e-05,0.0013460756000000002,4.137,0,0
0.005228722000000001,0.001095995,0.002449456,-0.00026138720000000004,0.0016740412,4.138,0,0
0.0029631640000000003,-0.001040899,0.002303034,-0.0005671652000000001,0.002452842,4.139,0,0
0.00023030600000000022,-0.0026050630000000003,0.0016558916,-0.00040403440000000003,0.0029348000000000004,4.14,0,0
-0.002303078,-0.0036323374,0.0009824736000000002,-0.0006626234000000001,0.003017034,4.141,0,0
-0.0050897979999999995,-0.00502627,0.00021968560000000005,-0.0012251958,0.003131122,4.142,0,0
-0.007201605999999999,-0.005745348,-0.0006943124,-0.0013230138000000003,0.0029474320000000003,4.143,0,0
-0.007789278,-0.0048149354,-0.0015463424,-0.0011339668,0.0023060520000000003,4.144,0,0
-0.007716412,-0.0035654054,-0.0017143462000000001,-0.001356957,0.001699587,4.145,0,0
-0.006924110000000001,-0.0023290916,-0.0013303424000000001,-0.0013063970000000002,0.0012975464,4.146,0,0
-0.004362918,0.0002195904,-0.0006668803999999999,-0.001170039,0.000718886,4.147,0,0
-0.001256518,0.0029924444,0.00020864959999999998,-0.0014734350000000004,0.00024186799999999998,4.148,0,0
0.0006647419999999999,0.0043480758,0.0011293956,-0.0014514338000000003,-0.00014823779999999999,4.149,0,0
0.002892492,0.0052633738,0.0017996417999999999,-0.0013129382,-0.0004700674,4.15,0,0
0.005479889999999999,0.006478538000000001,0.002294044,-0.0010865676,-0.0006506673800000001,4.151,0,0
0.006321910000000001,0.006508610000000001,0.002391604,-0.000839038,-0.00022356698,4.152,0,0
0.005655888,0.005280326000000001,0.0018411080000000002,-0.00033072600000000005,0.00054869102,4.153,0,0
0.005174434,0.004346476,0.0014997837999999998,-9.840199999999988e-06,0.00096525682,4.154,0,0
0.004057948600000001,0.002793674,0.0012362758,5.79108e-05,0.00129108282,4.155,0,0
0.0014469626,0.00037362600000000017,0.0007731690000000001,0.0004011282,0.001458357,4.156,0,0
-0.0005710153999999998,-0.00163756,0.00044767299399999996,0.0008994966,0.0009758508000000001,4.157,0,0
-0.0022544714,-0.0035944720000000005,0.000304669194,0.0010499104000000002,0.00020883279999999994,4.158,0,0
-0.0044968394,-0.005409990000000001,-6.381060600000002e-05,0.0007611830000000001,0.0001417054,4.159,0,0
-0.006068264,-0.005739560000000001,-0.0005243012060000001,0.0011201564000000001,-4.246020000000002e-05,4.16,0,0
-0.006149908,-0.004957436,-0.000488845006,0.0014525384000000003,-0.0006101998,4.161,0,0
-0.005995568,-0.004413332000000001,-0.000518896,0.0012785904000000002,-0.0008832036000000001,4.162,0,0
-0.005355686,-0.0032401140000000005,-0.00033583242,0.0013714386000000002,-0.0013381976000000002,4.163,0,0
-0.002669534,-0.00113804,8.062377999999998e-05,0.0017560320000000003,-0.0023368802,4.164,0,0
-2.782999999999974e-05,0.00038389399999999997,-0.00013651362000000002,0.001431138,-0.002958436,4.165,0,0
0.0015101160000000001,0.001329274,-0.00029019802,0.0006587652000000002,-0.0030065200000000004,4.166,0,0
0.0038198360000000005,0.0029987240000000004,0.00026793098,0.00038428628000000014,-0.003180556,4.167,0,0
0.006529016,0.004377402,0.0009115352,1.1537479999999974e-05,-0.002898132,4.168,0,0
0.007184922,0.0038173306000000005,0.001243531,-0.0004908825200000001,-0.001859772,4.169,0,0
0.007132464,0.0028605686,0.0015581202,-0.0004703023800000001,-0.0007642339999999999,4.17,0,0
0.007429135999999999,0.0022003888,0.0015856931999999996,-8.520358000000007e-05,-0.00018970600000000002,4.171,0,0
0.005786562,-3.01832000000001e-05,0.0009687157999999997,-0.00020267686000000008,0.0007695660000000001,4.172,0,0
0.00297647,-0.0027622412000000004,-0.0002265142000000001,-0.00033584406000000005,0.001651554,4.173,0,0
0.0007852120000000002,-0.0038498398,-0.0014190742000000003,-0.00018168766000000003,0.0013498916,4.174,0,0
-0.001535458,-0.0045024978,-0.0021316054,-0.00023339300000000003,0.0010693572,4.175,0,0
-0.00416868,-0.00535362,-0.0029391034000000003,-0.00020166899999999997,0.0011221294,4.176,0,0
-0.0053162059999999995,-0.00491556,-0.0037342940000000004,0.00023400320000000006,0.0004715013999999999,4.177,0,0
-0.00520398,-0.0029159359999999996,-0.004087548000000001,0.0005627306000000001,-0.0002767526,4.178,0,0
-0.005086526,-0.001089668,-0.004134850000000001,0.0005825072,-1.374739999999999e-05,4.179,0,0
-0.0038321116000000002,0.000358314,-0.003968732,0.0007428156,-9.514000000000004e-05,4.18,0,0
-0.0011078795999999998,0.0024211320000000003,-0.0034610459999999997,0.0003865418,-0.0005475322,4.181,0,0
0.0010632804,0.003928118,-0.0025391378,-0.0004837382,-0.0004523684,4.182,0,0
0.0023062444,0.004410234,-0.0014568876000000002,-0.0010006456,-0.0007842584,4.183,0,0
0.0037919484,0.004777366,-0.00047585360000000014,-0.0013998746,-0.0015315692,4.184,0,0
0.004557729999999999,0.004697998,0.00022991,-0.0022335878000000003,-0.0016518274000000004,4.185,0,0
0.003701718,0.003751716,0.0005619851200000002,-0.0028100140000000004,-0.0012241742000000003,4.186,0,0
0.0028503802,0.00277816578,0.0006761783200000001,-0.002292658,-0.0009663814000000001,4.187,0,0
0.0023538942000000005,0.0017057797800000003,0.00093513012,-0.0015664000000000001,-0.0003413846000000001,4.188,0,0
0.0006150562,-0.00041790822000000013,0.00107078812,-0.0011071120000000002,0.0007515554,4.189,0,0
-0.0015539378,-0.0024638082200000005,0.0009989767199999999,-0.00042319879999999996,0.0014068746,4.19,0,0
-0.0031193878,-0.0036433422200000004,0.001051275,0.000269684,0.0015608193999999999,4.191,0,0
-0.00508499,-0.004686616,0.0009425918000000002,0.00039294320000000005,0.0015481058,4.192,0,0
-0.0070772100000000004,-0.005305866,0.00030819760000000006,0.0002432752,0.0014824568,4.193,0,0
-0.007509860000000001,-0.0045010916,-0.0002074086,0.0005762652,0.0009486248000000002,4.194,0,0
-0.006728202000000001,-0.0025566675999999997,-0.0002415588,0.000882814,6.050679999999994e-05,4.195,0,0
-0.005607982,-0.0007898816000000001,-0.0005460642,0.0011725372,-0.0006055712000000001,4.196,0,0
-0.003515934,0.0010691624000000002,-0.0004899160000000001,0.0016722120000000002,-0.0010316262000000002,4.197,0,0
-0.0006883460000000003,0.0029918723999999997,0.00029455620000000003,0.00176883,-0.0010797524000000001,4.198,0,0
0.001885946,0.004126834000000001,0.0008029244,0.0015172642,-0.0007926203999999999,4.199,0,0
0.0041167600000000006,0.0043680820000000006,0.0010518104,0.0015054062,-0.0004182344,4.2,0,0
0.006219809999999999,0.004058562,0.0017144783999999999,0.0013524246,-0.00013636299999999997,4.201,0,0
0.007543337999999999,0.003706372,0.002287874,0.0009607466,0.00016691560000000005,4.202,0,0
0.007511672,0.003341794,0.0021322800000000003,0.0009150332000000001,0.00012106560000000005,4.203,0,0
0.006888218,0.0031636499999999996,0.002166384,0.00046736700000000005,-0.0003759364,4.204,0,0
0.00515041,0.002526992,0.002200306,-0.0004846070000000001,-0.00014536639999999994,4.205,0,0
0.002313104,0.001198064,0.001753602,-0.0012966094000000001,0.0009442942000000001,4.206,0,0
1.0357999999999808e-05,0.00019881200000000003,0.0009302096000000001,-0.0017156714000000001,0.0015867796000000002,4.207,0,0
-0.0018512780000000003,-0.000996298,-3.926399999999936e-06,-0.0018982172000000003,0.0016913008000000005,4.208,0,0
-0.003755944,-0.002881546,-0.0007128984,-0.0015030852000000004,0.0020131852000000003,4.209,0,0
-0.005092060000000001,-0.0035483520000000003,-0.0011933266000000002,-0.0004340212,0.0013565332000000001,4.21,0,0
-0.005196222,-0.002443934,-0.0010623110000000002,0.0002648428,-0.0004086528000000002,4.211,0,0
-0.004907756000000001,-0.0018128860000000003,-0.0007251542000000001,0.0002185108,-0.0010621518000000002,4.212,0,0
-0.0045464519999999994,-0.0013363412,-0.0001259352,0.00026011714,-0.0008213826000000003,4.213,0,0
-0.0029636320000000003,0.00029448479999999997,0.00041980680000000005,0.00034238854,-0.001344371,4.214,0,0
-0.0006261600000000001,0.0013692548,0.0007684640000000001,-0.00018405865999999998,-0.0014367429999999999,4.215,0,0
0.001117828,0.0013989307999999999,0.0010846244,-0.00026159006,-0.0006488814,4.216,0,0
0.002678578,0.0018790247999999998,0.00117401,0.00027726594000000005,-0.0008106284000000001,4.217,0,0
0.00434021,0.002544508,0.0014471890000000002,0.00029120560000000004,-0.0013583523999999999,4.218,0,0
0.004810516,0.002380642,0.0016153070000000003,-0.0001497938,-0.0008195292,4.219,0,0
0.00460456,0.0019745864,0.0015495042,1.653879999999999e-05,-0.00010633920000000007,4.22,0,0
0.004529694,0.0011864364,0.0012304688,0.00011987200000000001,0.00016479519999999998,4.221,0,0
0.0031901511999999996,-0.0007128316,0.0006680708,-0.0003674308,0.0009387032,4.222,0,0
0.0010969112,-0.0027781216,-0.00018611919999999996,-0.0002820452000000001,0.0016312992000000002,4.223,0,0
-0.00010125279999999987,-0.0043988716,-0.0009234492000000001,0.00017401059999999998,0.0015342554000000001,4.224,0,0
-0.0012628187999999998,-0.005695988000000001,-0.0015656294,9.299899999999997e-05,0.0014642254000000001,4.225,0,0
-0.0031107088,-0.006119686000000001,-0.0023552900000000003,0.00016119939999999997,0.0015198934,4.226,0,0
-0.0039844780000000005,-0.0051980740000000004,-0.002403578,0.0007071522,0.0009633054000000002,4.227,0,0
-0.0032947898000000005,-0.0036769794000000005,-0.002270012,0.0005829258,9.943540000000007e-05,4.228,0,0
-0.0030367735999999998,-0.0020383674000000003,-0.002509878,0.0006164246000000001,-0.000276608,4.229,0,0
-0.0027731296,-0.00037107339999999984,-0.0023546580000000004,0.0011813888,-0.0008519840000000002,4.23,0,0
-0.0009595656,0.0012382926,-0.0018937320000000002,0.0009893172,-0.0017599900000000003,4.231,0,0
0.0008514424,0.0024178226000000002,-0.0015955924000000002,0.0002406652,-0.00172946188,4.232,0,0
0.0017263262,0.0028386400000000003,-0.0011765112,9.53494e-05,-0.0009454138799999999,4.233,0,0
0.003086022,0.0033714140000000005,-0.00041499500000000014,0.00040224080000000005,-0.0007477380800000001,4.234,0,0
0.004483034,0.0036965620000000005,0.0003728630000000001,0.00028050680000000003,-0.0008189440800000001,4.235,0,0
0.004604670000000001,0.0030718242,0.000899315,8.715220000000005e-05,-0.0004417942800000001,4.236,0,0
0.004308964,0.0022502824,0.0012473374,0.0003214928,-0.00043493686000000006,4.237,0,0
0.003553189000000001,0.0013648204000000002,0.0013972242000000001,0.00040601399999999995,-0.00063037386,4.238,0,0
0.0013555190000000003,-0.0005197256,0.0012518610000000002,-0.00031255000000000003,3.09143400000001e-05,4.239,0,0
-0.001360899,-0.0024808596000000004,0.001168601,-0.0006331838,0.0009839043400000002,4.24,0,0
-0.0035066430000000003,-0.0036897478000000004,0.0008848854,-0.00012972580000000002,0.0012763473400000003,4.241,0,0
-0.005842769000000001,-0.0050923620000000005,0.00010462939999999994,0.00011225220000000001,0.0015594558000000002,4.242,0,0
-0.007860160000000001,-0.005859500000000001,-0.00031579460000000003,0.0003482318,0.0019029948000000001,4.243,0,0
-0.008059294,-0.005371140000000001,-0.00030155940000000005,0.00057131468,0.0014370525999999998,4.244,0,0
-0.006947640000000001,-0.004454236,-0.0007584498000000001,0.00024459648,0.0010071968,4.245,0,0
-0.005956502000000001,-0.0034239644,-0.0012302722,-5.785692e-05,0.001123022,4.246,0,0
-0.004142908999999999,-0.0014795704,-0.0006266822,-0.00027020832,0.00046170400000000006,4.247,0,0
-0.0012154129999999998,0.0007726836,0.00021064179999999997,-0.00068042932,-0.000445502,4.248,0,0
0.0008940470000000001,0.0018799396,0.0004517196000000001,-0.0005935088,-0.0003826166,4.249,0,0
0.0027549130000000003,0.0029204116,0.000844586,-9.549279999999995e-05,-0.0008860568,4.25,0,0
0.004823517,0.00408436,0.0015104320000000001,-3.565345999999998e-05,-0.0019646648,4.251,0,0
0.006257404,0.004253006,0.0016883040000000003,4.0468540000000044e-05,-0.0020817348000000003,4.252,0,0
0.006619306000000001,0.003422098,0.0011505056,0.00028956532,-0.0017017788,4.253,0,0
0.006410444,0.0029566998,0.0006635976,-8.523807999999999e-05,-0.0016019620000000002,4.254,0,0
0.005231116,0.0024784638000000005,0.00035946640000000005,-0.00076734208,-0.0010233262000000003,4.255,0,0
0.0028324560000000006,0.0010365017999999998,1.0203999999999986e-05,-0.00096933082,0.00029665780000000003,4.256,0,0
0.0006185880000000002,2.4401799999999906e-05,-0.0003697862,-0.0008578572199999999,0.0010652398000000002,4.257,0,0
-0.00125291,-0.00026397300000000003,-0.0005646546,-0.0009501102,0.0011128962,4.258,0,0
-0.00330867,-0.0008162368000000001,-0.0005149728,-0.0007523149999999999,0.0010911226000000001,4.259,0,0
-0.004788604,-0.0013499328000000001,-0.0007709676,-0.0004483082,0.0008858858,4.26,0,0
-0.004377468,-0.00038769680000000004,-0.0010137292,-0.0006534334000000001,0.0002992266000000001,4.261,0,0
-0.003724737,0.00048636320000000003,-0.001149861,-0.0010435122,0.00011965380000000002,4.262,0,0
-0.0033895690000000003,0.0003593794000000001,-0.0010302864,-0.0009942892,8.006440000000001e-05,4.263,0,0
-0.0019371139999999998,0.0012081014000000002,-0.0005629222000000001,-0.0004541503999999999,-0.0005864300000000001,4.264,0,0
-0.000356298,0.0021603994,-0.0001015124,0.00017481080000000013,-0.0009458470000000001,4.265,0,0
0.00066219,0.0021166014,0.000457993,0.0009694828,-0.0010527488,4.266,0,0
0.0020871250000000004,0.0021477094,0.000912841,0.0014390924,-0.0016499280000000002,4.267,0,0
0.0036404830000000003,0.002634602,0.0011610372,0.0015233506000000001,-0.0018781650000000004,4.268,0,0
0.004341464000000001,0.002502858,0.0009021788000000001,0.0011613978,-0.0012217112000000004,4.269,0,0
0.004691548,0.0019518244,0.000530193,0.0006305530000000001,-0.0005400772000000001,4.27,0,0
0.004685082,0.0013812434,0.0005623116,0.0004065722,-7.494820000000004e-05,4.271,0,0
0.0035126576000000004,0.0002999153999999999,9.786159999999999e-05,1.815460000000003e-05,0.0007411858000000001,4.272,0,0
0.0014993356000000003,-0.0005839086,-0.0007616284,-0.0002596664,0.0014459278000000001,4.273,0,0
3.995159999999997e-05,-0.0008734164,-0.0008648646,-0.00040377960000000004,0.0012244990000000002,4.274,0,0
-0.0011789344,-0.0011850744,-0.0008267490000000001,-0.0008558728000000001,0.0009967684000000002,4.275,0,0
-0.0026349324,-0.0015935774,-0.0013621510000000002,-0.0014258180000000001,0.0012564944,4.276,0,0
-0.0031233320000000004,-0.0015253133999999998,-0.0013520270000000002,-0.0012283016000000002,0.001083181,4.277,0,0
-0.002908196,-0.0014692814,-0.0011246570000000003,-0.0009783001200000003,0.0007319786,4.278,0,0
-0.003123976,-0.0018386175999999998,-0.0013152064,-0.00104258872,0.0013090876,4.279,0,0
-0.002901066,-0.0015280288,-0.0009942108000000002,-0.00032558672,0.0017623042000000002,4.28,0,0
-0.0015815659999999997,-0.00044003080000000016,-0.0002656008000000001,0.00044877328,0.0011873834,4.281,0,0
-0.0007363360000000001,0.0005263732,0.0002588632,0.00065442968,0.0012205272000000002,4.282,0,0
1.1919799999999858e-05,0.0012734472,0.0009230412000000001,0.0007005135999999999,0.0013267008,4.283,0,0
0.0018915458,0.0018792012,0.0019415732,0.0008400053999999999,0.00021252279999999998,4.284,0,0
0.0036799478,0.0018770656,0.00246526,0.00045369939999999993,-0.0006609092000000001,4.285,0,0
0.0042403978,0.00125954276,0.002300714,-0.0004068286,-0.00036799239999999996,4.286,0,0
0.0045038638,0.00067888936,0.002196736,-0.0009345594000000001,-0.0005782502000000001,4.287,0,0
0.004571722,-3.116640000000101e-06,0.0018347488,-0.0013966668000000002,-0.0010705074000000002,4.288,0,0
0.0029606159999999997,-0.00105764264,0.0008282408000000001,-0.0018000000000000002,-0.00023193540000000004,4.289,0,0
0.0007310320000000002,-0.00200161824,5.527620000000006e-05,-0.0016000736000000002,0.0002027668,4.29,0,0
-0.0011643640000000002,-0.0025637274,-0.00029947299999999997,-0.0011253112520000002,4.860800000000006e-06,4.291,0,0
-0.0034449040000000004,-0.003131406,-0.00046190040000000003,-0.0008216918520000001,0.0008230622,4.292,0,0
-0.005298504000000001,-0.0035521980000000003,-0.0005034512,-0.000473895252,0.0014911362000000002,4.293,0,0
-0.005980774000000001,-0.0031247400000000004,-0.0006492892,-8.244521200000001e-05,0.0012422622000000001,4.294,0,0
-0.006144004000000001,-0.0023860716,-0.0008272086000000001,0.00024389638800000003,0.0010938698,4.295,0,0
-0.006203014000000001,-0.0018628570000000003,-0.0011948394000000002,0.0006946780400000001,0.0006420218,4.296,0,0
-0.005126526,-0.0010389502000000001,-0.0015532599999999999,0.00138935664,-0.0006535482000000001,4.297,0,0
-0.003001318,-0.00013539080000000007,-0.0013694832000000002,0.0020679060400000003,-0.0017045762000000002,4.298,0,0
-0.0013078379999999998,0.0002677962,-0.0006188912000000001,0.002423082,-0.0019444282000000003,4.299,0,0
0.000396958,0.0008614758000000001,9.999880000000002e-05,0.002337362,-0.002086312,4.3,0,0
0.002801046,0.0016608212000000001,0.0008102988000000002,0.0020684276,-0.002187468,4.301,0,0
0.004631252000000001,0.0018855544000000001,0.0016357928,0.0015809512,-0.0017756638,4.302,0,0
0.005011908000000001,0.0019164724000000004,0.002043066,0.0010026812000000001,-0.00103582466,4.303,0,0
0.0053876440000000005,0.0020479458,0.001899002,0.0006298912000000001,-0.00054556266,4.304,0,0
0.005370474000000001,0.0016354908,0.001667347,0.00021119740000000005,0.00024024534000000004,4.305,0,0
0.0036445520000000006,0.00046067880000000007,0.0013477874,2.0385800000000058e-05,0.0015970973400000002,4.306,0,0
0.0017662320000000004,-0.00010139599999999996,0.0005000454000000001,0.00023473420000000005,0.00220236314,4.307,0,0
0.00041733000000000004,-0.00011748599999999998,-0.0002268546,0.0004918902000000001,0.0020919202000000002,4.308,0,0
-0.0014948500000000003,-0.0010101944,-0.0006222488,0.0007322022000000001,0.0016171362,4.309,0,0
-0.003290902,-0.0018682794,-0.0010121678,0.001175458,0.0006282162000000001,4.31,0,0
-0.0035017700000000004,-0.0015156966000000002,-0.0013862141999999998,0.0015749240000000001,-0.0007814958,4.311,0,0
-0.0032742660000000005,-0.0010804098000000001,-0.0018026222,0.0011023742000000002,-0.00128233092,4.312,0,0
-0.0029416662000000004,-0.0009663992000000002,-0.0018623542000000002,0.00044981620000000003,-0.00074783912,4.313,0,0
-0.0014694121999999999,0.00021342479999999993,-0.00146639,0.0002659036000000001,-0.0008789991199999999,4.314,0,0
-5.830019999999991e-05,0.0016909908000000001,-0.0010643476,-0.0003254784,-0.00097821112,4.315,0,0
0.0005394602,0.0025111280000000005,-0.0003782236000000001,-0.0010436784,-0.00063045312,4.316,0,0
0.0016010742000000001,0.0031470180000000006,0.0007035144,-0.0009655640000000001,-0.0009452919999999999,4.317,0,0
0.0026020944000000002,0.0034894420000000006,0.0011879558000000001,-0.0006386240000000001,-0.0015238606000000001,4.318,0,0
0.0023272946000000004,0.0031635468000000004,0.0009606355,-0.0008046598,-0.0009391406000000001,4.319,0,0
0.0020960684,0.0024120420000000005,0.0008969723,-0.0005725084,3.4461400000000144e-05,4.32,0,0
0.002280026,0.0018105722,0.0008957823,-0.0002560544,0.0005990814000000001,4.321,0,0
0.001159368,0.0006549622000000001,0.0004463703,-0.000586851,0.0009634292000000001,4.322,0,0
-0.000676922,-0.0007244738000000001,-5.564710000000001e-05,-0.001168299,0.0005346018,4.323,0,0
-0.0013495862,-0.0011870506,-0.0005666688,-0.0012324116,-0.00032095219999999996,4.324,0,0
-0.002094548,-0.0013205672000000002,-0.001308734,-0.0007919670000000002,-0.0010571002,4.325,0,0
-0.0034406519999999998,-0.0020523834,-0.0022023660000000003,-0.0006674838,-0.0013398079999999998,4.326,0,0
-0.0037928740000000003,-0.0022318114,-0.0028705820000000004,-0.0004802996000000001,-0.0011312637999999998,4.327,0,0
-0.0030934660000000004,-0.0011913914,-0.002948244,-8.166460000000005e-05,-0.0007197956,4.328,0,0
-0.0027708540000000005,-0.0006240633999999998,-0.002762922,8.928439999999991e-05,-6.954580000000006e-05,4.329,0,0
-0.0024063588,-0.00020134199999999997,-0.0023253298000000004,-0.00017339839999999998,0.0002286732,4.33,0,0
-0.0005710028,0.000989934,-0.0012102217999999999,-0.00016023899999999998,-0.0003613750000000001,4.331,0,0
0.0011824312,0.001780978,-1.4041800000000012e-05,9.300140000000003e-05,-0.0012481950000000001,4.332,0,0
0.0021963732000000002,0.0018868459999999997,0.0008177262,0.0002462008,-0.0014801192,4.333,0,0
0.0036914092,0.002419736,0.0018893562,9.056800000000004e-05,-0.0014197720000000001,4.334,0,0
0.005005782,0.002756348,0.0025895120000000004,-0.00037945519999999996,-0.001142769,4.335,0,0
0.004752248000000001,0.002307936,0.0022853788,-0.0005887624000000001,-3.3136999999999923e-05,4.336,0,0
0.003906933600000001,0.0018749366000000002,0.0019047564,-0.0006435641400000001,0.0010740470000000003,4.337,0,0
0.0033564956,0.0012573086000000004,0.0017988744000000004,-0.00052483594,0.0017939750000000004,4.338,0,0
0.0017109875999999997,1.2258600000000059e-05,0.0012926564,-0.00041104814000000005,0.0025783380000000003,4.339,0,0
-0.00010798239999999988,-0.0013968174,0.0009312156,-0.00040234814000000005,0.003005848,4.34,0,0
-0.0008779268,-0.0022929334,0.0011623408,-0.00064005154,0.002632914,4.341,0,0
-0.0018272024000000001,-0.003240362,0.0013876252000000003,-0.0009490764,0.0024387840000000003,4.342,0,0
-0.0034183864,-0.004281668000000001,0.0009038128000000002,-0.0010897352,0.0020909568,4.343,0,0
-0.0040114584,-0.0048254380000000005,0.00031206680000000017,-0.0010501902,0.0007480467999999999,4.344,0,0
-0.0039557164,-0.004872498,-0.0001740023999999999,-0.0007773578000000001,-0.0003995232,4.345,0,0
-0.004353742000000001,-0.005065640000000001,-0.0009477164,-0.0006663818,-0.0004951701999999999,4.346,0,0
-0.003767916,-0.004540636,-0.0011132098,-0.00037891180000000006,-0.0003754422000000001,4.347,0,0
-0.0019549759999999998,-0.0027706320000000003,-0.001039728,-3.279760000000003e-05,-0.0005065544000000001,4.348,0,0
-0.00039676399999999975,-0.001275812,-0.0006015914,-0.00028277360000000004,0.0003708876,4.349,0,0
0.000525024,0.0005802520000000003,-5.105939999999995e-05,-0.00043113000000000005,0.0008151392000000001,4.35,0,0
0.002281442,0.0020714460000000002,0.0009324586,-0.0003947396,0.0005974672000000001,4.351,0,0
0.0027041540000000003,0.00298914,0.00119683,-0.0002657084,0.0017713852000000002,4.352,0,0
0.0023806038,0.0023335616,-0.0010815133999999998,0.00044062560000000003,0.0024337806,4.353,0,0
0.0011099298,-0.0007578463999999999,-0.003569752,0.0015170736,0.0009749906000000002,4.354,0,0
-0.0035846541999999997,-0.0027375744,-0.0049032,0.0027215656,-0.00044229100000000004,4.355,0,0
-0.0059669141999999994,-0.0019091824,-0.005899022,0.0039284132,-0.0023577539999999997,4.356,0,0
-0.0032282822,0.00027543160000000023,-0.005510642,0.00425365,-0.006236358,4.357,0,0
0.0011618340000000005,0.003696352000000001,-0.0019234,0.0032190906000000006,-0.008490188,4.358,0,0
0.00798223,0.009623472000000001,0.0023096,0.0022199064,-0.008600394,4.359,0,0
0.018989850000000003,0.014223918000000002,0.005562214,0.0010883424000000003,-0.007953941999999999,4.36,0,0
0.026138920000000003,0.01496568,0.007896804,-0.0006450256,-0.005398182000000001,4.361,0,0
0.025954440000000002,0.012745248,0.00858804,-0.0020207816000000003,-0.0014300639999999998,4.362,0,0
0.0215071452,0.008359898,0.008253038,-0.0026488742,0.002482038,4.363,0,0
0.013108665200000001,0.0022370779999999987,0.006833068,-0.003126002,0.006388638,4.364,0,0
0.0015329452000000018,-0.005451422000000001,0.004380736,-0.0034059560000000003,0.009907838,4.365,0,0
-0.0113955348,-0.012304202000000002,0.0014132260000000003,-0.00234879,0.011507838,4.366,0,0
-0.0220886748,-0.017761990000000002,-0.001809704,-0.0007995079999999998,0.011548144000000002,4.367,0,0
-0.03065102,-0.02132552,-0.004805004,0.0004842900000000002,0.010427750000000001,4.368,0,0
-0.03614564,-0.021803820000000005,-0.007381134,0.001675898,0.007487196000000001,4.369,0,0
-0.03591002,-0.018934270000000003,-0.009153782000000001,0.0025703860000000005,0.0033183580000000004,4.37,0,0
-0.030811351999999997,-0.013342514,-0.009468110000000002,0.002662806,-0.0005613220000000004,4.371,0,0
-0.022198773999999998,-0.006325567999999998,-0.008491906,0.002432054,-0.004284886,4.372,0,0
-0.010145313999999999,0.001699632,-0.006156222,0.002263374,-0.0075740320000000005,4.373,0,0
0.0032230059999999996,0.009257292,-0.0028097520000000004,0.0016218898000000001,-0.009132082000000001,4.374,0,0
0.014400566000000002,0.014627122,0.0007170280000000002,0.0008088978000000001,-0.00919519,4.375,0,0
0.023570778,0.018092886000000002,0.003998834,-0.00012255619999999997,-0.008462698,4.376,0,0
0.030276700000000004,0.019590920000000005,0.00675604,-0.0013731082000000001,-0.006491172200000001,4.377,0,0
0.03201582,0.017780122000000002,0.008331228,-0.0028004022000000005,-0.0033273662000000005,4.378,0,0
0.029232160000000004,0.013746612000000002,0.008530652,-0.00350546,-0.0004063701999999997,4.379,0,0
0.023526582000000004,0.009090498,0.007867338,-0.0037135580000000005,0.0022487178000000006,4.38,0,0
0.014294096000000004,0.002785618,0.006256444,-0.0036407400000000004,0.0048118438,4.381,0,0
0.0026060960000000005,-0.003905162,0.004063806,-0.0029304436000000002,0.006394972000000001,4.382,0,0
-0.008229804,-0.008840084,0.001558752,-0.0017185915999999998,0.006601544000000001,4.383,0,0
-0.017516264000000004,-0.012865854,-0.0012505779999999998,-0.0002630235999999999,0.006367090000000001,4.384,0,0
-0.025102005999999996,-0.01612084,-0.004007076,0.0009272404000000001,0.005772102,4.385,0,0
-0.02878638,-0.01646764,-0.006323086,0.0020840424000000005,0.00391441,4.386,0,0
-0.027744,-0.013751012,-0.007671430000000002,0.0030841980000000002,0.0012168899999999998,4.387,0,0
-0.023336279999999997,-0.009964444000000001,-0.007730376000000001,0.0036940360000000004,-0.0016278400000000004,4.388,0,0
-0.01578651,-0.004620618,-0.006146704400000001,0.004019928000000001,-0.00437508,4.389,0,0
-0.00562063,0.0020974419999999997,-0.003530748400000001,0.0039416880000000005,-0.006999474,4.39,0,0
0.00480147,0.007855682,-0.0005945443999999999,0.0033611634,-0.008585658000000001,4.391,0,0
0.013887070000000001,0.012001974,0.0022359836,0.002411396,-0.008363915999999999,4.392,0,0
0.02123175,0.015102066,0.0042323596,0.0009497460000000002,-0.0067983772000000005,4.393,0,0
0.025867260000000003,0.01621744,0.005427948,-0.0007087560000000001,-0.0044862892,4.394,0,0
0.0267707,0.014509032000000002,0.005743454,-0.0019132020000000001,-0.0015371931999999997,4.395,0,0
0.0242076,0.011250504000000001,0.005355892,-0.0028575874,0.0015464008000000001,4.396,0,0
0.018413225,0.007028368000000001,0.004363942,-0.003582084,0.004075900800000001,4.397,0,0
0.009905165,0.0017455800000000005,0.0029180874000000003,-0.003554354,0.005962528000000001,4.398,0,0
0.000294024999999999,-0.0035105400000000004,0.0012394154,-0.003150074,0.007045728000000001,4.399,0,0
-0.008638415000000002,-0.0075191120000000005,-0.0005057866000000002,-0.0027519379999999998,0.007246500000000001,4.4,0,0
-0.016166435,-0.010692264000000002,-0.0022921606,-0.0020034448,0.006420076,4.401,0,0
-0.021749200000000003,-0.012709968000000002,-0.0041226686000000005,-0.0010682064,0.0047183298,4.402,0,0
-0.02386216,-0.012384270000000001,-0.005145294,-0.00026478440000000003,0.0022343718,4.403,0,0
-0.022259800000000003,-0.010117188000000001,-0.005663148,0.0003188836000000001,-0.0006897661999999999,4.404,0,0
-0.018068048000000003,-0.006746624,-0.005649086,0.0009567356,-0.0030593482,4.405,0,0
-0.011270548000000002,-0.002438257999999999,-0.0045467458,0.0013125984,-0.0046992522,4.406,0,0
-0.0024473480000000002,0.002115624,-0.0025740778,0.0012149216420000001,-0.006008464000000001,4.407,0,0
0.005831192000000001,0.005528844000000001,-0.0005304078,0.0008011976420000001,-0.006038124000000001,4.408,0,0
0.012602352,0.007888442,0.0013766002,7.862364199999992e-05,-0.004851107800000001,4.409,0,0
0.01845402,0.009718778,0.0036810222,-0.0007988883580000001,-0.004044923800000001,4.41,0,0
0.021566460000000003,0.010001594,0.00505622,-0.001580756358,-0.00264052,4.411,0,0
0.02056426,0.0081282978,0.005227942000000001,-0.0017807564000000002,-0.00041909400000000006,4.412,0,0
0.017278529999999997,0.005799331800000001,0.00486975,-0.0016938302000000004,0.001228942,4.413,0,0
0.011826642000000002,0.0027443698000000002,0.0038096680200000003,-0.0015603382000000002,0.0028991038000000004,4.414,0,0
0.0037114820000000008,-0.0020711502,0.0020569140200000003,-0.0011044330000000002,0.0048458618,4.415,0,0
-0.004353818000000001,-0.006235892200000001,9.436602000000016e-05,-0.0003844510000000001,0.0059994160000000005,4.416,0,0
-0.010645117999999999,-0.008221762,-0.0017387819800000002,6.801539999999997e-05,0.006335858,4.417,0,0
-0.015842448000000002,-0.009550968,-0.00381584998,0.00036792239999999994,0.006081398000000001,4.418,0,0
-0.019132720000000002,-0.010182976000000002,-0.005432906,0.0012171024,0.0047548726000000005,4.419,0,0
-0.019143399999999998,-0.008311988000000001,-0.006235290000000001,0.0020645992,0.0026235366,4.42,0,0
-0.016864091999999997,-0.005236864000000001,-0.006098404000000001,0.0020973672000000002,8.082059999999988e-05,4.421,0,0
-0.012790480400000002,-0.0024332520000000003,-0.0047514974000000005,0.0023072252,-0.0024077294000000005,4.422,0,0
-0.0062679444,0.000760714,-0.0027510174000000003,0.0027037240000000002,-0.0046211994000000004,4.423,0,0
0.0012066955999999996,0.004162952,-0.0006490153999999998,0.0021877198,-0.006360936,4.424,0,0
0.007771655600000001,0.006566894,0.0011614166000000004,0.001296819,-0.006755464000000001,4.425,0,0
0.013357947600000003,0.008006204000000001,0.0026545826,0.0009511392000000001,-0.0059943900000000005,4.426,0,0
0.017727356000000003,0.008610922,0.0036838420000000005,0.0003530302,-0.0047474958,4.427,0,0
0.019124280000000004,0.008073046,0.004329424,-0.0008634898000000001,-0.002978619,4.428,0,0
0.017502078000000004,0.006794386000000001,0.00461503,-0.0013775856000000002,-0.000947815,4.429,0,0
0.014246632000000002,0.004270554,0.004096172,-0.0015884088000000002,0.0006781870000000001,4.43,0,0
0.008495118000000001,0.00048989,0.0031686510000000006,-0.0017441450000000001,0.002009859,4.431,0,0
0.0009583579999999994,-0.003225536,0.0021071759999999997,-0.0013083220000000002,0.0033113808000000003,4.432,0,0
-0.005497242,-0.006284644000000001,0.0008833698000000001,-0.00016073200000000013,0.004022306000000001,4.433,0,0
-0.010603800000000002,-0.008798492000000002,-0.0002225642,0.00101859,0.004019346,4.434,0,0
-0.014895794,-0.01004246,-0.0011744582,0.0019321020000000002,0.004016778,4.435,0,0
-0.016589620000000003,-0.009409869999999999,-0.0018312892,0.003023194,0.0032780248000000007,4.436,0,0
-0.015001812000000003,-0.00718306684,-0.0023295242000000004,0.0033494220000000003,0.0015569068,4.437,0,0
-0.012157876000000003,-0.0042943628400000005,-0.0027663960000000004,0.0029613512,0.0004683847999999999,4.438,0,0
-0.008220542,-0.0010805748399999998,-0.002988102,0.0027953652000000002,-0.0005690272,4.439,0,0
-0.0026579460000000004,0.0027157571600000003,-0.0023383986000000004,0.0026319731999999998,-0.0021338952000000003,4.44,0,0
0.002905874,0.00604135716,-0.0011585326000000005,0.0016775447999999998,-0.0027355780000000007,4.441,0,0
0.007405566000000001,0.008039694,-0.00011902460000000011,0.0009101151999999998,-0.00251052,4.442,0,0
0.011079870000000002,0.00916103,0.0013332194000000002,0.000568768,-0.002478801,4.443,0,0
0.013550736000000002,0.009418598,0.0028544034000000003,-0.0005155680000000001,-0.0019050021,4.444,0,0
0.013790120000000003,0.007856274000000002,0.0036232040000000005,-0.0018007280000000001,-0.00031313010000000004,4.445,0,0
0.012149272000000001,0.005308222,0.003629628,-0.0026239636,0.0009331079000000002,4.446,0,0
0.0090769588,0.002539998,0.0031982240000000004,-0.0031642920000000004,0.0015746199,4.447,0,0
0.004247870799999999,-0.0010544719999999999,0.002088668,-0.0035000580000000003,0.0021900669000000004,4.448,0,0
-0.0011842491999999997,-0.00433685,0.0008572680000000002,-0.003154314,0.002682812,4.449,0,0
-0.005815269200000001,-0.006648548,-0.00013161400000000006,-0.002811736,0.0026483860000000004,4.45,0,0
-0.0097482012,-0.008460316,-0.001240484,-0.002923406,0.00229287,4.451,0,0
-0.012722728,-0.00932378,-0.0020200080000000002,-0.0026793019999999997,0.0021021252,4.452,0,0
-0.01316743,-0.008118124,-0.00230151,-0.0021505046,0.0012449872000000002,4.453,0,0
-0.011424004000000001,-0.005494664,-0.002259394,-0.0021073074000000002,0.00012772719999999986,4.454,0,0
-0.009198824000000001,-0.002664138000000001,-0.0021366016000000003,-0.0016374374,-0.0008946448,4.455,0,0
-0.005533934,0.0007023960000000003,-0.0016710934000000002,-3.863740000000003e-05,-0.0021769788,4.456,0,0
-0.0007269499999999996,0.00369275,-0.0006934294000000001,0.0009185646,-0.0033373480000000004,4.457,0,0
0.002953814,0.005397062,8.43125999999999e-05,0.0012803871999999999,-0.0037872300000000004,4.458,0,0
0.005975668,0.005986910000000001,0.0004718932,0.002006818,-0.0038781980000000002,4.459,0,0
0.009125628,0.006434348000000001,0.0010935507999999998,0.0022236620000000004,-0.0037933740000000004,4.46,0,0
0.011047998,0.0066422140000000005,0.0016344986,0.0014377113999999999,-0.0021123420000000006,4.461,0,0
0.010960556,0.005685615999999999,0.0013380586,0.0010985904000000001,1.2632000000000051e-05,4.462,0,0
0.010327013999999999,0.0043813374,0.0010984411999999998,0.0011587304,0.0013676020000000003,4.463,0,0
0.0082756192,0.0028530082,0.0012104106,0.0005041276,0.0027806720000000005,4.464,0,0
0.0037201332,0.00048361620000000015,0.0006499584000000001,0.0003253692,0.003950132,4.465,0,0
-0.0009374667999999999,-0.0024145338000000002,-0.0003524156,0.0007170838,0.003412498000000001,4.466,0,0
-0.0047146888,-0.0043663558,-0.0011880916,0.0009364188000000001,0.0020093740000000004,4.467,0,0
-0.008466620800000001,-0.0055610972,-0.0020343442,0.0008120248000000002,0.0013744818000000002,4.468,0,0
-0.011161466,-0.006433892,-0.0030326402,0.0008774204000000001,0.0006939128000000003,4.469,0,0
-0.010913638,-0.005946052,-0.0034688180000000002,0.0009989592,-0.0004052352,4.47,0,0
-0.009261414000000003,-0.0045878533999999995,-0.003071444,0.00037868520000000015,-0.0011707592,4.471,0,0
-0.0070271936,-0.0031083038,-0.0023301854,-0.0002758468,-0.0014488472000000001,4.472,0,0
-0.0032978696,-0.0011706078,-0.0013905326,-0.0005407948000000001,-0.0021463610000000003,4.473,0,0
0.0008231123999999999,0.0007576182000000001,-0.00019446660000000006,-0.0008575615999999999,-0.0029471920000000004,4.474,0,0
0.0040314904000000006,0.0015535602,0.0008216434,-0.001232274,-0.0030906320000000003,4.475,0,0
0.006253816400000001,0.0024477696,0.0012143042,-0.00079645924,-0.0028087800000000003,4.476,0,0
0.008192116000000001,0.0036956360000000004,0.0017131035999999999,-0.00049486384,-0.0022036844,4.477,0,0
0.0089301,0.0035727880000000004,0.0020360568,-0.0005890658400000001,-0.0007567084000000001,4.478,0,0
0.007902482,0.0026752720000000002,0.0018849768,-8.991303999999998e-05,0.0010485776,4.479,0,0
0.0062859992000000005,0.0023841178,0.0020766928,0.00022037036,0.0019493376,4.48,0,0
0.0039503472,0.0013204058,0.002379038,-2.3510399999999998e-05,0.0027126196,4.481,0,0
0.0004019532000000003,-0.0009781522000000002,0.002234334,-0.0002275972,0.003525602,4.482,0,0
-0.0030487628000000003,-0.0020734182,0.001826548,1.4299799999999981e-05,0.003327566,4.483,0,0
-0.005579480800000001,-0.0026030282000000004,0.001004366,-0.0002071774,0.002714016,4.484,0,0
-0.007675698000000002,-0.00359967,-0.0001870660000000001,-0.00044339440000000003,0.002446146,4.485,0,0
-0.008652948,-0.003541154000000001,-0.0009152400000000001,0.00013065359999999999,0.001473594,4.486,0,0
-0.008031812000000001,-0.0022622570000000006,-0.0014611140000000001,0.00048744099999999997,-0.0002630340000000001,4.487,0,0
-0.006865976000000001,-0.0014623170000000003,-0.001506643,0.00021182800000000003,-0.0011807900000000001,4.488,0,0
-0.004878093000000001,-0.0007971454,-0.0009543385999999999,0.00021804900000000003,-0.0018495060000000001,4.489,0,0
-0.001821031,0.0009908966,-0.0004195382,0.0004540338,-0.002940514,4.49,0,0
0.0009175390000000002,0.0023171786,0.00019000780000000004,5.88646e-05,-0.0030621980000000004,4.491,0,0
0.003184259,0.0028454676,0.0008252897999999999,-0.00013131674,-0.0021973,4.492,0,0
0.005522743,0.0037067496,0.0015772688,-3.120914e-05,-0.0017765342,4.493,0,0
0.00739533,0.0047837140000000005,0.0019465504000000002,-4.3695940000000006e-05,-0.0015646166,4.494,0,0
0.007522698,0.004781912,0.00189884722,-0.00021031874000000003,-0.0002864165999999999,4.495,0,0
0.006702392000000001,0.004156728,0.00174343522,-0.00027038374,0.0006533414000000001,4.496,0,0
0.005735544,0.003860980000000001,0.00126130342,-0.0001425198,0.0007821142000000002,4.497,0,0
0.0032637440000000007,0.0023499200000000006,0.00017005342000000004,-0.0003859934000000001,0.0012586944,4.498,0,0
-5.8186e-05,0.00038645,-0.00068920458,-0.0005358192000000001,0.0014022786,4.499,0,0
-0.0023303480000000003,-0.0008259579999999999,-0.0010617998,-0.00036481200000000006,0.00101171644,4.5,0,0
-0.003665296,-0.002103818,-0.0018103178,-0.00022742620000000007,0.00061021844,4.501,0,0
-0.0049567100000000005,-0.00303763,-0.002077886,-0.00011305880000000008,0.00033973103999999997,4.502,0,0
-0.005197454000000001,-0.0027095028,-0.0021125040000000003,0.0006027512,-0.00030347896,4.503,0,0
-0.004121864,-0.0019410167600000003,-0.00231949,0.0010325912,-0.00090480276,4.504,0,0
-0.003316574,-0.0015022467599999998,-0.0023911260000000004,0.0007301376,-0.0010665458000000002,4.505,0,0
-0.0023479179999999996,-0.00066932296,-0.002245378,0.0005811026000000001,-0.0010597458,4.506,0,0
-0.00033094000000000005,0.00016991104000000005,-0.0017917968,-0.00011283540000000001,-0.0008941956000000002,4.507,0,0
0.0014488819999999999,0.00060188384,-0.0012807916,-0.0011565534,-0.0004685424,4.508,0,0
0.002808848,0.0012606578000000002,-0.00031121560000000014,-0.0012798894000000003,-6.903520000000003e-05,4.509,0,0
0.004770362,0.0020188758,0.0007403804,-0.0006649174,-0.000255922,4.51,0,0
0.005855320000000001,0.0019859408,0.0014714304,-0.0005574460000000001,-0.00038323620000000003,4.511,0,0
0.005040958000000001,0.0008947368,0.0016547052000000003,-0.000514714,2.744620000000005e-05,4.512,0,0
0.0041293022000000006,-0.00024012320000000003,0.001751649,0.00013995940000000002,0.0002992110000000001,4.513,0,0
0.0031057094200000004,-0.0016150252,0.0015673129999999999,0.00023056,0.0005239950000000001,4.514,0,0
0.0007567394199999998,-0.0032517571999999997,0.0008666996000000001,-0.00020867759999999998,0.001393913,4.515,0,0
-0.00169758458,-0.003923698000000001,0.000409231,-3.3947799999999967e-05,0.0017520312,4.516,0,0
-0.00338461858,-0.003914386,-0.000153811,0.0007362482,0.0011061672,4.517,0,0
-0.004858486780000001,-0.003965266,-0.00044253920000000005,0.0010926328000000001,0.0006569372,4.518,0,0
-0.006421420000000001,-0.003623868,-0.000561604,0.0011212122000000002,0.0005871809999999999,4.519,0,0
-0.006488064,-0.002592636,-0.0007568346,0.0014051318000000003,5.189145999999997e-05,4.52,0,0
-0.0052184212,-0.0018878394000000005,-0.0007481198,0.0014613660000000002,-0.00037765654,4.521,0,0
-0.0045741172,-0.0010344422000000003,-0.00038004740000000003,0.0013063140000000003,-0.00020030754,4.522,0,0
-0.0029031292000000005,0.0004400138,-0.00012856640000000002,0.0009937188,-0.00030001714,4.523,0,0
-0.0002375312000000003,0.0015673978000000002,-0.0001669776,0.00044198680000000006,-0.00046442734,4.524,0,0
0.0012513828,0.0022720638000000002,0.0004007464,-7.292920000000002e-05,-0.0002940558,4.525,0,0
0.002595412,0.0030125412,0.0010303542,-0.00028596082,2.6859399999999996e-05,4.526,0,0
0.00503261,0.003403468,0.0011793718,-0.00048369278000000006,-7.93684e-05,4.527,0,0
0.006006808,0.00281074478,0.0011824524,-0.0008070775800000001,7.574600000000002e-05,4.528,0,0
0.005147766000000001,0.0016007127800000001,0.0011071219999999999,-0.0008577315800000001,0.0004033932,4.529,0,0
0.004733304000000001,0.00029449877999999994,0.0007026128000000001,-0.00083239958,-1.8092800000000045e-05,4.53,0,0
0.0035126939,-0.00100296722,0.0002186866,-0.00098845036,-0.00017544660000000004,4.531,0,0
0.0014061419000000004,-0.00240418122,-7.308740000000004e-05,-0.0011198362,3.571439999999995e-05,4.532,0,0
6.0815700000000015e-05,-0.002946974,-0.000207686,-0.0010314758,-0.00022019440000000005,4.533,0,0
-0.0005796863000000001,-0.0026408266000000004,-4.282200000000011e-06,-0.0008980718000000001,-0.0005870606,4.534,0,0
-0.0018162403000000003,-0.0023733770000000003,0.0001432716,-0.0005938246000000002,-0.0003487646,4.535,0,0
-0.0029398542000000005,-0.001809433,8.030380000000002e-05,-0.0002272022,-0.00023546000000000005,4.536,0,0
-0.0027757202,-0.0006471810000000001,0.000185947,-7.796460000000002e-05,-0.00033284680000000003,4.537,0,0
-0.0027538404,0.000278851,0.0002555408,9.203539999999998e-05,1.4865799999999989e-05,4.538,0,0
-0.0023934746000000002,0.0010103236,0.0001326474,0.00047280980000000003,0.0002412278,4.539,0,0
-0.0007556826,0.0021910239999999997,0.00024263240000000003,0.0007949066,-3.513420000000005e-05,4.54,0,0
0.0008959854000000001,0.002857736,0.0005008384,0.0008133746,-0.00030635420000000007,4.541,0,0
0.0014060034000000002,0.003141644,0.0005758694,0.0008013742,-9.493720000000006e-05,4.542,0,0
0.0019238758,0.0032982280000000003,0.000650342,0.0009483358,-3.705360000000007e-05,4.543,0,0
0.0029484260000000005,0.0027932992000000005,0.00067823422,0.0005718214,-0.00015352760000000002,4.544,0,0
0.0025633260000000003,0.001653275,0.00049208442,-0.00037730260000000003,0.00047102640000000007,4.545,0,0
0.0014784900000000003,0.0005842010000000001,0.00021549362,-0.0006773142,0.0010525544,4.546,0,0
0.0009161980000000004,-0.00041540100000000014,-5.0077379999999974e-05,-0.0007884890000000001,0.0010579608,4.547,0,0
3.974999999999991e-05,-0.001657091,-0.00053433758,-0.0011660098,0.0015563806000000002,4.548,0,0
-0.0014959700000000001,-0.0024780062,-0.0010314658000000001,-0.000754932,0.0020686108,4.549,0,0
-0.0022313800000000003,-0.0025376000000000005,-0.0012806376,-2.400940000000002e-05,0.0017536894000000003,4.55,0,0
-0.0018931339999999999,-0.00222402,-0.0018301748000000002,0.0001440612,0.0014801276000000001,4.551,0,0
-0.002110288,-0.002146456,-0.002321694,0.00016236739999999999,0.0013268766,4.552,0,0
-0.002026132,-0.0013535916000000001,-0.002225256,0.00017215899999999996,0.0005343624000000001,4.553,0,0
-0.0012419179999999998,2.004400000000031e-06,-0.0020630300000000004,-6.65976e-05,-8.811420000000002e-05,4.554,0,0
-0.0012495140000000002,0.0004131164000000001,-0.0020891720000000003,-0.0001703058,-0.0001814572,4.555,0,0
-0.001668428,0.0009956784000000002,-0.0016374316000000002,0.00017876319999999998,-0.0007823474,4.556,0,0
-0.001097872,0.0021484124,-0.0008956557999999999,0.0005317723999999999,-0.0014417412,4.557,0,0
-0.0006341678,0.002469292,-0.0005769538000000001,0.0006398654,-0.001345899,4.558,0,0
-0.0008997078000000001,0.0023996300000000003,-0.0001567424,0.0007229538,-0.0011101648,4.559,0,0
-0.0002288698,0.00267877,0.0004990536,0.0006176258,-0.001105465,4.56,0,0
0.0007326042,0.0025652,0.0008271492000000001,-1.6383400000000078e-05,-0.0005736132,4.561,0,0
0.0009276762,0.00183515824,0.000685389,-0.00019238980000000003,0.00045305880000000005,4.562,0,0
0.0011295860000000001,0.0012188700400000002,0.0007361448000000002,0.0005608143999999999,0.0006091946000000001,4.563,0,0
0.0015186700000000002,0.00045233603999999996,0.0009844974000000001,0.0010387147999999999,5.799500000000003e-05,4.564,0,0
0.00127691,-0.00070572196,0.0006868064,0.0016163864000000002,-0.00036146839999999996,4.565,0,0
0.0011622320000000002,-0.00146442196,0.000453007,0.0026116076,-0.0008524022,4.566,0,0
0.0016099600000000001,-0.0016551944000000002,0.0006644606,0.0025860382,-0.00124014602,4.567,0,0
0.0013724122,-0.0020965242,0.0004141666000000001,0.0014101142000000001,-0.00118193782,4.568,0,0
0.0008023205999999999,-0.0024743102,-0.0002406194,0.0005639541999999999,-0.00057810542,4.569,0,0
0.0007136218,-0.0020758222,-0.000444719,-0.00018096180000000007,5.964980000000027e-06,4.57,0,0
0.0004709425999999999,-0.0020616682,-0.0002915772,-0.0013942098,0.0005276379800000001,4.571,0,0
-0.00026154739999999997,-0.002131876,-0.0001440584000000001,-0.0018539519999999999,0.0007222058,4.572,0,0
5.5076400000000014e-05,-0.001247068,0.0003280338,-0.00164611,6.747379999999997e-05,4.573,0,0
0.0009232900000000001,-0.00017737000000000004,0.0011066078,-0.00159145,-0.0004875286000000001,4.574,0,0
0.0010086288,0.00046199399999999997,0.0014088225999999999,-0.0015465316,-0.0005285628000000001,4.575,0,0
0.0011010896000000002,0.0007887982000000001,0.0012850662,-0.0010148386,-0.0007668766000000001,4.576,0,0
0.0014444216000000002,0.0013780302,0.0013521122,-0.0005587874,-0.0013412666,4.577,0,0
0.0011450292000000002,0.0015674122,0.0013150382000000002,-0.0005272934,-0.0013383246000000003,4.578,0,0
-7.418879999999994e-05,0.0009845976,0.0009763578,-0.0003841134,-0.0012551726000000001,4.579,0,0
-0.0003947087999999999,0.0008152346000000002,0.000994437,-0.00041138320000000004,-0.0013344528,4.58,0,0
-0.0003957625999999999,0.0009188796000000001,0.0010864724,-0.0008357562,-0.0006396940000000001,4.581,0,0
-0.0012130226,0.0005242008,0.0008693982,-0.0012904574,0.0003033739999999999,4.582,0,0
-0.0013909502,0.0001784172,0.0009753002000000002,-0.0010986036,0.000955464,4.583,0,0
-0.0008845974,1.0297799999999988e-05,0.0011937226000000001,-0.0008479614000000001,0.001592874,4.584,0,0
-0.0009159094,-0.0006929352000000001,0.0012354366000000001,-0.0008792520000000001,0.0020583900000000002,4.585,0,0
-0.0011692984000000002,-0.0009330842,0.0011506812,-0.0006144452000000001,0.001913762,4.586,0,0
-0.0006519628,-0.0007107618000000001,0.0008246956,-0.00013837600000000006,0.0014854898,4.587,0,0
-0.0006901663999999999,-0.0009736258,0.00012271959999999996,2.0647999999999983e-05,0.0014392622,4.588,0,0
-0.0013933532,-0.0009691978,-0.0005004664,0.00022352379999999994,0.0014868442,4.589,0,0
-0.0011807906,-0.0003553520000000001,-0.0006619449999999999,0.0008733438,0.000859274,4.59,0,0
-0.0007816814,0.00026570779999999996,-0.000737063,0.0009759574,0.00025331199999999995,4.591,0,0
-0.0012165929999999998,0.0002819026,-0.0007234672000000001,0.0009727382,0.0003833542,4.592,0,0
-0.0012687016,0.000318502,-0.0006413192,0.0011490984,0.0005356438,4.593,0,0
-0.00034011720000000004,0.0006999724,-0.0007801932000000001,0.0007811183999999999,0.0004144378,4.594,0,0
-0.00022752980000000003,0.0005717916000000001,-0.00122742,0.0003836152,0.0006455870000000001,4.595,0,0
-0.0007063078,0.00030100820000000003,-0.0015440120000000002,0.00047144539999999994,0.000859343,4.596,0,0
-0.0002285048,0.0007026538000000001,-0.0016973280000000001,0.0003416586,0.00042096780000000007,4.597,0,0
-0.00022764680000000002,0.0009335668000000001,-0.001822738,7.555260000000001e-05,6.33814e-05,4.598,0,0
-0.0008881772,0.0009070718,-0.001784656,0.0003064984,-0.000135225,4.599,0,0
-0.0005766452,0.0015355528000000002,-0.0014425582,0.00045195240000000007,-0.0005878540000000001,4.6,0,0
0.0001766848000000001,0.0017719242,-0.0009335896000000002,0.0002807578,-0.000778118,4.601,0,0
0.0004326418000000001,0.0011419016,-0.0008117140000000001,0.00018284860000000006,-0.0004909606,4.602,0,0
0.0006110200000000001,0.001099502,-0.0005288294000000001,0.00011868540000000003,-0.0006180916000000001,4.603,0,0
0.0010391466000000001,0.0013917346000000001,0.00025808259999999996,-0.0003404184,-0.0008980632000000001,4.604,0,0
0.0008073542000000001,0.0008145668,0.0003684942,-0.0008874552000000001,-0.0005885654,4.605,0,0
0.00032154804000000006,0.0002487976000000001,0.00011062359999999995,-0.0009993776,-0.0006138014000000001,4.606,0,0
0.00029048404000000004,0.0005025022,0.000586516,-0.0009698366000000002,-0.0009821856,4.607,0,0
0.00018804304000000002,0.0005495686,0.0008843174,-0.0012749414,-0.0008432900000000001,4.608,0,0
-8.859156000000002e-05,4.5977999999999986e-05,0.0005093238000000001,-0.0011230496,-0.0008133760000000001,4.609,0,0
-0.00015696796,-0.0002980402,0.0004578284,-0.00037775959999999996,-0.0012148338,4.61,0,0
-0.00025428220000000006,-0.0007067490000000001,0.0005720304000000001,-0.00013665200000000005,-0.0011364022000000002,4.611,0,0
-0.0009459242000000002,-0.001448555,3.4758399999999996e-05,0.00018452299999999994,-0.0007067516,4.612,0,0
-0.0010707432000000002,-0.0019185766000000002,-0.0002827104,0.001015453,-0.0007150699999999999,4.613,0,0
-0.0004915971999999999,-0.0016949344,-0.00011381880000000002,0.001314194,-0.000770094,4.614,0,0
-0.0005410152,-0.0010740664,-0.00019417020000000003,0.0008414146,-0.0004572956,4.615,0,0
-0.0003125498,-0.0005697909999999999,-5.368260000000005e-05,0.0007065694,-0.0006797432000000001,4.616,0,0
0.0010010322,-0.00012788859999999998,0.0004492694,0.0007106234000000001,-0.0013413458000000001,4.617,0,0
0.0020222662,0.00013988360000000003,0.0005863401999999999,4.63614e-05,-0.0010982996000000003,4.618,0,0
0.0022202002,-0.0005006139999999999,0.00039327180000000005,-0.00035046540000000003,-0.0003035656,4.619,0,0
0.002922049,-0.00128276,0.0002838192000000001,6.452400000000005e-05,0.00015474600000000004,4.62,0,0
0.0036644280000000004,-0.0015548594,0.00011681900000000006,0.00022738320000000004,0.000914904,4.621,0,0
0.0030273540000000003,-0.0020643118000000004,-0.00031648660000000003,3.210060000000002e-05,0.001959798,4.622,0,0
0.0024207302000000003,-0.0021277863999999997,-0.0006001866,0.0007178306,0.002216354,4.623,0,0
0.0022030722,-0.0014691630000000001,-0.0004937518000000001,0.0018220246000000004,0.002071972,4.624,0,0
0.0011035762000000003,-0.0013416010000000002,-0.00043156680000000015,0.0020666666,0.0019576012,4.625,0,0
-8.083979999999998e-05,-0.0013585070000000001,-0.00046526240000000006,0.0019825162,0.0014145578000000002,4.626,0,0
-0.0004748360000000001,-0.0008826134,-0.0004304516,0.002020832,0.0007204642,4.627,0,0
-0.0011502262000000001,-0.000970435,-0.00048165160000000003,0.0012765620000000002,0.0003557671999999999,4.628,0,0
-0.0023750662000000004,-0.0012597810000000002,-0.00060128756,-9.294199999999999e-05,1.4283199999999972e-05,4.629,0,0
-0.0025454422000000003,-0.0005782930000000001,-0.00024180255999999996,-0.0009284180000000001,-0.00030440700000000003,4.63,0,0
-0.0023607424,0.00023155099999999987,0.0003147456400000001,-0.0013918948,-0.00020386480000000005,4.631,0,0
-0.0027774622,0.0005649174,0.0008763884400000001,-0.0018438740000000001,-7.730000000000009e-06,4.632,0,0
-0.0023769618,0.0013711274,0.0014879984400000001,-0.001609151,-0.00047002700000000003,4.633,0,0
-0.00121208,0.002093442,0.001715382,-0.0011674812000000002,-0.0013338490000000002,4.634,0,0
-0.0006774740000000001,0.0017431188000000004,0.0015312734,-0.001066656,-0.0016851400000000001,4.635,0,0
-0.0006936030000000001,0.0016173828,0.0010326842000000001,-0.0006624835,-0.0018614448000000001,4.636,0,0
-0.00015088839999999998,0.0021811448,0.0006823008000000001,-0.0005550535,-0.0019763206,4.637,0,0
-7.194579999999999e-05,0.0022437768,0.0005360328,-0.0010513665,-0.00141196,4.638,0,0
-0.0005674556000000001,0.0020041408,0.0005706508000000001,-0.0010694195,-0.00057178326,4.639,0,0
-4.539359999999995e-05,0.0022703720000000005,0.0009807734,-0.0007985283000000001,-0.00022528746000000002,4.64,0,0
0.0004086236000000001,0.002237386,0.0011219418,-0.0008356978,-0.00030559546000000004,4.641,0,0
-2.0854999999999908e-05,0.00146587856,0.0005707891999999998,-0.00022515780000000003,-0.00048872686,4.642,0,0
-0.0002313779999999999,0.00075211996,7.569120000000003e-05,0.0009670622,-0.00098578946,4.643,0,0
0.00012962040000000016,0.00040903716,-0.00048164280000000006,0.0013347914,-0.0014128362,4.644,0,0
-0.0003028876,-0.00037264484,-0.0014675488000000002,0.0011977842,-0.0009319220000000002,4.645,0,0
-0.0003423176,-0.00114674884,-0.001791484,0.0014893692,-0.0003168680000000001,4.646,0,0
0.0011682144,-0.0009609134,-0.001229475,0.0014527832,-0.00030872000000000007,4.647,0,0
0.0021774564,-0.0010590608,-0.0008233956,0.000658101,6.748800000000063e-07,4.648,0,0
0.002404112,-0.001272108,-0.0005483495999999998,0.00013485700000000005,0.0007580688799999999,4.649,0,0
0.002772774,-0.000335602,2.4808200000000024e-05,2.4247200000000014e-05,0.00117589488,4.65,0,0
0.0027039019999999998,0.00059713,0.00029380020000000005,-0.0007060467999999999,0.0016878228799999998,4.651,0,0
0.001172948,0.0002886172,0.00033817840000000004,-0.0016623528,0.00247077888,4.652,0,0
9.7408e-05,0.00011797519999999994,0.000458395,-0.0016583524000000002,0.0024865077999999996,4.653,0,0
8.986200000000067e-06,0.0001616760000000001,0.0003849258,-0.0017373064,0.001955021,4.654,0,0
-0.0006871857999999999,-0.000848884,0.0003263402,-0.0020452118,0.0015087669999999998,4.655,0,0
-0.0010463144,-0.0016254860000000002,0.0004750602,-0.0013258718,0.0007903604,4.656,0,0
-0.0005141184,-0.0013286854,0.00039994179999999996,-0.0005824447999999999,0.0001621066,4.657,0,0
-0.0006077744000000001,-0.0011017592,-7.55742e-05,-0.0006389414,0.0006565928,4.658,0,0
-0.0013839606,-0.00113071,-0.0005803690000000001,-0.0004112514,0.0013076716,4.659,0,0
-0.0012818046,-0.00040030900000000006,-0.0010753312000000002,0.0001318762,0.0010577044000000002,4.66,0,0
-0.0011922848,-6.624712600000003e-05,-0.0014362578,-6.19734e-05,0.000681273,4.661,0,0
-0.0018035348000000001,-0.0005097869260000001,-0.0015536334000000001,-0.00031258360000000005,0.0004889148,4.662,0,0
-0.0015506276000000002,-0.00032691152600000005,-0.001395189,4.15762e-05,-0.0002865532,4.663,0,0
-0.00033567159999999994,8.655747399999997e-05,-0.0006892380000000001,0.00046800620000000005,-0.0013588932,4.664,0,0
1.5467400000000102e-05,0.000277022474,4.4740000000000036e-05,0.0006558246,-0.0015517298,4.665,0,0
0.00019721740000000007,0.0006329046000000001,0.0001978406,0.0008874342000000001,-0.0013970302,4.666,0,0
0.0013472194000000001,0.0011661206,4.2025400000000006e-05,0.0011591368000000001,-0.0014093342,4.667,0,0
0.0015977946,0.0012900756,-0.00011862700000000003,0.0008884559999999999,-0.0011478576199999999,4.668,0,0
0.0010585876000000001,0.0012835892000000002,-0.0004055942000000001,0.000696423,-0.00041361342,4.669,0,0
0.0011388026000000002,0.0011815832000000002,-0.0005478708,0.000662219,-0.00011759242,4.67,0,0
0.0011718936,0.0007458758000000001,-0.0004119966000000001,6.712899999999997e-05,5.2148780000000024e-05,4.671,0,0
0.0005513244,-8.999419999999988e-05,-0.0003425068000000001,-0.00037634240000000013,0.00106111678,4.672,0,0
5.270800000000005e-05,-0.0008196627999999999,-0.00018321200000000003,-0.0003988234000000001,0.0018786982000000001,4.673,0,0
-0.00033245700000000003,-0.0011328879999999999,-8.712640000000003e-05,-0.0006607464000000002,0.002235806,4.674,0,0
-0.001088117,-0.0019273159999999999,-0.00032124500000000006,-0.0010174690000000002,0.0024727068,4.675,0,0
-0.0018519352,-0.0025888926,-0.0006138448000000001,-0.0008003740000000001,0.0022643106000000005,4.676,0,0
-0.0020457932000000002,-0.0023480506,-0.0006197770000000001,-0.00046871,0.0013271922000000001,4.677,0,0
-0.0017202370000000003,-0.0020640606,-0.00036615720000000005,-0.0005369162,0.0003331394000000001,4.678,0,0
-0.0017452890000000003,-0.002095196,0.00012827339999999996,-0.00010468419999999998,-0.0003925685999999999,4.679,0,0
-0.0011981456,-0.0010261080000000002,0.0006741266,0.0006578004000000001,-0.0011619486,4.68,0,0
-7.359359999999993e-05,0.0003934659999999999,0.0009677822000000001,0.0008966196000000001,-0.0015951111999999998,4.681,0,0
6.333499999999996e-05,0.0009119643999999999,0.0013488446,0.0012494176,-0.0016533188000000002,4.682,0,0
0.0003866628,0.0018312924,0.0018814220000000002,0.0019687022,-0.0018476440000000003,4.683,0,0
0.0014789668000000002,0.0024445264,0.0017611220000000002,0.001862257,-0.0020243560000000006,4.684,0,0
0.0018431953999999999,0.0016477944000000003,0.0013050688000000002,0.0011699076000000002,-0.001519202,4.685,0,0
0.0017702694000000002,0.0010308642,0.0014722488,0.0009082576000000001,-0.0009966444000000002,4.686,0,0
0.002440554,0.0010841078,0.0014370188,0.0005245270000000001,-0.0010886184,4.687,0,0
0.00260743,0.0003792708,0.0007732459999999999,-0.0001148728,-0.0007396324000000001,4.688,0,0
0.001327096,-0.00018603419999999997,0.000384122,-0.00045017440000000004,-0.00014549640000000003,4.689,0,0
0.0002903840000000001,0.00018518720000000003,0.0003942476,-0.00017845300000000005,-0.00020270100000000004,4.69,0,0
-0.0006166979999999999,6.263580000000001e-05,-3.80102e-05,-2.335180000000001e-05,-0.00023798080000000002,4.691,0,0
-0.002483252,-0.0005846282000000001,-0.0006204862,-0.00032000120000000006,0.0001250086,4.692,0,0
-0.003961906,-0.0008711732000000001,-0.0008903034000000001,-0.00025201180000000007,0.00019605460000000002,4.693,0,0
-0.0038891720000000006,-0.0006918990000000002,-0.0010296974000000001,-0.00028595620000000004,-0.000118226,4.694,0,0
-0.0035762300000000006,-0.0006268482000000001,-0.0011049406000000002,-0.0005092421084,-0.0002459124,4.695,0,0
-0.003453068,-0.0003749064000000001,-0.0010002612000000002,3.206491599999921e-06,-0.0002911506,4.696,0,0
-0.00189178,0.00047865360000000004,-0.00044626020000000015,0.0005991104916,-0.0004244936,4.697,0,0
-0.0003758720000000002,0.0008971738000000002,-4.419459999999999e-05,0.0006642018915999999,-0.0002597116,4.698,0,0
0.00011681800000000006,0.0009169368000000001,1.2204800000000036e-05,0.0008939140915999999,-2.1452000000000024e-05,4.699,0,0
0.001193978,0.0013807066000000002,0.00014203560000000006,0.0007662718,-0.00027502700000000006,4.7,0,0
0.002407204,0.0014484924000000001,0.00015952400000000005,4.381280000000001e-05,-0.0003097826000000001,4.701,0,0
0.002806722,0.0008428302000000001,-0.00012807200000000002,-0.0002595772,-0.00033742220000000005,4.702,0,0
0.0030761,0.0008093042,-0.00021701139999999997,-0.0001744944,-0.0008867662000000001,4.703,0,0
0.0037345340000000007,0.0008677796000000002,-4.9968800000000036e-05,-6.0657800000000014e-05,-0.0009380698,4.704,0,0
0.0031862364,0.00011922039999999996,9.16832e-05,0.0001371252,-0.0002976518,4.705,0,0
0.0017258924,-0.00029123520000000005,0.0001579284,0.0005631422,9.62022e-05,4.706,0,0
0.0007656484,-0.00020711460000000004,6.517359999999998e-05,0.0007330736000000001,0.0004344546,4.707,0,0
-0.0006647536000000001,-0.0009927188000000001,-0.00022584460000000002,0.0006172618,0.0014731026000000002,4.708,0,0
-0.0025400216,-0.0019726024,-0.0007726446,0.0005455508,0.0021149072,4.709,0,0
-0.003346224,-0.0021266192000000002,-0.0012007926,0.00045381400000000003,0.0020298712,4.71,0,0
-0.0030929319999999996,-0.0021674218000000004,-0.0012199192000000001,8.842960000000003e-05,0.0020564232,4.711,0,0
-0.0029061646,-0.0022234536000000004,-0.0013127574000000003,-0.00040464380000000005,0.002206454,4.712,0,0
-0.0022494790000000004,-0.0012698036000000001,-0.0013686754,-0.00045292560000000006,0.0017947880000000003,4.713,0,0
-0.0008981950000000003,4.200840000000009e-05,-0.0008626304,-0.0004990952,0.001166743,4.714,0,0
5.337499999999998e-05,0.0005139856,-0.0004721354,-0.0005162334000000001,0.0009101972,4.715,0,0
0.000698887,0.0009605258000000001,-0.00034024840000000005,-0.00031868060000000005,0.00013781920000000014,4.716,0,0
0.0015544996000000002,0.0017067992000000002,0.0002280796,-4.9547800000000014e-05,-0.0009136287999999999,4.717,0,0
0.002659444,0.0019344232,0.0008259216000000001,-0.00026555000000000003,-0.0016973367999999999,4.718,0,0
0.003301964,0.0017591032000000002,0.0009627986,-0.000613101,-0.0023190958,4.719,0,0
0.003719548,0.00200847,0.0012203736,-0.0008083528000000001,-0.0024041468,4.72,0,0
0.004306320000000001,0.0019816300000000003,0.0015825960000000003,-0.0014019852000000002,-0.0017543562000000002,4.721,0,0
0.0037846240000000003,0.0008874359999999999,0.0013145655600000003,-0.001775534,-0.0010885682,4.722,0,0
0.00247528,4.075600000000008e-05,0.0008834769600000001,-0.0016025686000000002,-0.0008769882000000001,4.723,0,0
0.00140137,-0.0003778087999999999,0.0008725627600000002,-0.0012440322,-0.0007328882,4.724,0,0
0.0001125900000000002,-0.0013235928,0.00044556816000000015,-0.0012991302,-0.0002875413999999999,4.725,0,0
-0.0013916640000000001,-0.0017978788000000002,-0.00014962144,-0.0009194437999999999,0.00029486400000000015,4.726,0,0
-0.0018067534000000003,-0.0014599458,-0.00020441100000000002,-1.8611799999999977e-05,0.0004989948000000002,4.727,0,0
-0.0015589786900000004,-0.0013333898,-0.00038897240000000004,0.0003691768000000001,0.0007238148000000002,4.728,0,0
-0.0017339886900000004,-0.0013689791999999998,-0.0005873256000000001,0.0003967144000000001,0.0012345488,4.729,0,0
-0.00103572869,-0.0006451382,-0.00037997180000000005,0.00047938640000000013,0.0011086368000000001,4.73,0,0
0.00017535130999999998,0.00019444980000000002,-0.00033397020000000007,0.0002975720000000001,0.0005053588000000001,4.731,0,0
0.00022726331000000002,0.0004123534,-0.00042155640000000004,-0.00024849720000000004,0.0005765640000000001,4.732,0,0
0.0004397746,0.0007176648000000001,-0.00011214279999999999,-0.0005843232,0.0007930862000000001,4.733,0,0
0.0015035866,0.001205107,8.867240000000001e-05,-0.0007516712,0.0005049594,4.734,0,0
0.0015401040000000003,0.0011550552000000002,-6.28094e-05,-0.0005366728800000001,0.0002173284,4.735,0,0
0.0009487730800000001,0.0004270806,-9.557740000000001e-05,-8.278687999999998e-05,-3.419060000000004e-05,4.736,0,0
0.0011639032800000002,0.00021125439999999997,8.01318e-05,0.00024610432000000005,-0.0005377646,4.737,0,0
0.00064060328,6.693679999999997e-05,-3.3881600000000004e-05,0.00040401871999999996,-0.0005623066000000001,4.738,0,0
-0.00122600072,-0.00035322999999999995,-0.0002756592,0.00083998472,5.146219999999991e-05,4.739,0,0
-0.0023673201200000004,-0.0005148398,-0.00010591659999999997,0.0012930364000000001,0.0001798336,4.74,0,0
-0.0032000172000000004,-0.0009416512000000001,-9.10914e-05,0.0011739254,0.000424432,4.741,0,0
-0.004687738,-0.0014850236,-0.0002065936,0.001015413,0.00098243,4.742,0,0
-0.005015016000000001,-0.0015253800000000002,-4.001459999999999e-05,0.0009728928,0.0007905104,4.743,0,0
-0.0038993386,-0.0013525254000000004,-0.00010572279999999999,0.00076997,0.000245545,4.744,0,0
-0.0033579786,-0.0012448856000000005,-0.0004759708000000001,0.0003500314,0.0003304176,4.745,0,0
-0.0028485846,-0.0005314492000000001,-0.000684798,0.0002003094,0.0002397742,4.746,0,0
-0.0012982666,0.0006731448,-0.000729437,0.0003313082,-0.00038488780000000005,4.747,0,0
-0.0003730945999999999,0.0014032214000000002,-0.0006288756000000001,0.00010443760000000005,-0.0003032396,4.748,0,0
3.937999999999999e-05,0.0016027296000000002,-0.00014310160000000007,-0.00014182939999999997,-0.00028064240000000003,4.749,0,0
0.001505382,0.0023079783999999997,0.0005890984,0.00045763920000000004,-0.0011897134000000001,4.75,0,0
0.00314043,0.0029689700000000005,0.0015300484000000001,0.0007621728,-0.0019813194,4.751,0,0
0.003961328,0.0026073872,0.0023464066,0.0004763968,-0.0019052074000000003,4.752,0,0
0.004930594,0.002207347,0.00270325,0.0008238175999999999,-0.0017870020000000002,4.753,0,0
0.005462228,0.0022384730000000004,0.0029413219999999997,0.0005952233999999999,-0.0013970058000000003,4.754,0,0
0.0041996740000000005,0.0015432612,0.002734418,-0.0005924426000000001,7.935419999999986e-05,4.755,0,0
0.002255488,0.00073728656,0.0021698920000000005,-0.0010358772,0.0013343762,4.756,0,0
0.0005209340000000001,0.0007425613600000001,0.0013627242,-0.0012477656000000003,0.0016790379999999999,4.757,0,0
-0.0015645680000000001,0.00016010956,0.0005171982,-0.0017836720000000003,0.0019547818000000003,4.758,0,0
-0.0034462840000000004,-0.0009254784400000001,-6.23334e-05,-0.0015090194000000003,0.0017487423999999999,4.759,0,0
-0.0040016240000000005,-0.0013583786400000002,-0.0005982073999999999,-0.0009872958,0.0006556784,4.76,0,0
-0.003680306,-0.001581186,-0.0010770034,-0.0008755380000000001,0.00013439160000000002,4.761,0,0
-0.0034549240000000003,-0.0020417400000000002,-0.0014971736000000003,-0.0006790294000000001,0.00022457979999999993,4.762,0,0
-0.002969262,-0.0016759738000000001,-0.0016820476,-0.00032725002000000004,-0.00042297820000000003,4.763,0,0
-0.0016769780000000002,-0.0007792190000000002,-0.001996134,8.995379999999977e-06,-0.0011842348,4.764,0,0
-0.000648538,-0.0003908634000000001,-0.002271776,0.00042248978,-0.0012393268,4.765,0,0
-3.640000000000002e-05,-0.00018025940000000002,-0.0022970660000000004,0.00104680598,-0.0013341794000000001,4.766,0,0
0.0012155520000000002,0.0004242486,-0.0019043594,0.00158679738,-0.0017712254,4.767,0,0
0.0024187120000000004,0.0008277984,-0.00135122,0.0014208196,-0.0018196854,4.768,0,0
0.00284488,0.00036372360000000003,-0.0008930354,0.0008770496,-0.0010562574,4.769,0,0
0.003376706,4.216000000000029e-06,-3.4533999999999693e-06,0.0006801146,-0.00046890500000000004,4.77,0,0
0.0038164280000000006,-0.0005029,0.0006208846000000001,0.00037696540000000013,-0.00025721839999999995,4.771,0,0
0.0029333012,-0.0018410420000000002,0.000639855,0.00010666280000000007,0.0003887436000000001,4.772,0,0
0.0014914972000000001,-0.002933892,0.0005338698,0.0007877392000000002,0.0009593236000000002,4.773,0,0
0.0005564812,-0.003313186,0.0005475738,0.0014297592000000001,0.0011014876000000002,4.774,0,0
-0.0008904248000000002,-0.0037392400000000004,9.377740000000001e-05,0.0010692650000000002,0.0014520872,4.775,0,0
-0.0025724108000000005,-0.0034495180000000004,-0.0002457816,0.0007328078000000001,0.001929058,4.776,0,0
-0.0025810234,-0.0024887068000000005,0.00011908540000000003,0.0004968450000000001,0.0016965772000000002,4.777,0,0
-0.0022987134,-0.0018908562000000003,9.627440000000002e-05,-0.00017116479999999996,0.001365458,4.778,0,0
-0.0026971934,-0.0011486078,6.523480000000005e-05,-0.0006594903999999999,0.001166237,4.779,0,0
-0.0018074074000000002,1.8020200000000007e-05,0.0006068472,-0.0006735523999999999,0.00023780300000000003,4.78,0,0
-0.0005643954,0.0010055202,0.0009077042000000001,-0.00091427,-0.000532299,4.781,0,0
-0.00032346100000000004,0.001474871,0.0006364002000000001,-0.0011806046,-0.0003919822,4.782,0,0
0.000476773,0.0023048564,0.000500413,-0.0012956687999999999,-0.00019341699999999993,4.783,0,0
0.001941467,0.003358618,0.0005466292000000002,-0.0015729852000000001,-0.00022816399999999994,4.784,0,0
0.002506803,0.003501856,0.0002869992,-0.001751242,0.0005304180000000001,4.785,0,0
0.002667245,0.0031175660000000004,-8.18940000000004e-06,-0.001581782,0.001054052,4.786,0,0
0.003106444,0.003141588,0.0001636524,-0.0012105536000000003,0.0004627919999999999,4.787,0,0
0.0029595059999999998,0.0026212192000000002,0.0005048146,-0.001113295,0.000656954,4.788,0,0
0.00193028,0.0015047022,0.0003319414,-0.0007772514000000001,0.001300392,4.789,0,0
0.000592082,0.0006638722,5.1671600000000015e-05,-0.00036205060000000003,0.00124747,4.79,0,0
-0.0006075739999999999,-0.0003550738000000001,8.633780000000003e-05,-0.0002788886,0.0011109878000000002,4.791,0,0
-0.001967112,-0.0012485258000000002,-0.00027683000000000004,-0.00020771020000000002,0.0011193578,4.792,0,0
-0.003080996,-0.0016725190000000003,-0.0006715922,2.3068199999999977e-05,0.0003520318,4.793,0,0
-0.00327562,-0.0018698920000000002,-0.0004836926,0.0002235284,-0.0010040802000000001,4.794,0,0
-0.00316441,-0.0018327880000000003,-0.00045557020000000004,0.00019051179999999998,-0.0017680202,4.795,0,0
-0.0031054719999999997,-0.0012511798,-0.0006460998000000001,0.0003858872,-0.002269596,4.796,0,0
-0.0023747842,-0.0003249698,-0.0005403672,0.0005889404,-0.002889196,4.797,0,0
-0.0012639262000000001,0.00034580820000000003,-0.00039745339999999995,0.0007428034000000001,-0.0029560080000000004,4.798,0,0
-0.0004622402000000002,0.0006988374,-0.0004837399600000001,0.0008798836000000001,-0.002516594,4.799,0,0
0.0010286178,0.0013388934000000002,-0.00015879656,0.0009676904,-0.00247228,4.8,0,0
0.0032548478000000002,0.0019369092000000002,0.00044869544,0.0005063250000000001,-0.0021082849,4.801,0,0
0.0043175060000000005,0.0016706648000000004,0.00051283304,-0.0002438150000000001,-0.0010592711,4.802,0,0
0.004594372,0.0011597024,0.00059071944,-0.0003178048000000001,-0.00026480909999999994,4.803,0,0
0.0051642300000000006,0.0011227308,0.0007012526000000001,-0.0004527626,0.0006624149000000001,4.804,0,0
0.0042988354,0.0009073628,0.00022321939999999995,-0.0005618009932,0.0016531229000000002,4.805,0,0
0.0024202614,0.0001279208,-0.00015164460000000003,0.00017562100679999998,0.0020330838,4.806,0,0
0.001296412,-0.0003608548,6.709979999999999e-05,0.0011380510068000002,0.0019985270000000004,4.807,0,0
-0.0001019380000000002,-0.0008345844,4.460919999999998e-05,0.0013872908068,0.0018277936000000003,4.808,0,0
-0.002277116,-0.001706698,-0.00042506900000000003,0.0015135246068,0.0015979056000000001,4.809,0,0
-0.0034394314000000003,-0.002252062,-0.0006182598,0.0017849519999999998,0.0011972832,4.81,0,0
-0.0037770574000000005,-0.002230918,-0.0007609282,0.0014761746000000002,0.0010395612000000001,4.811,0,0
-0.004229382,-0.001954624,-0.0009414428,0.0007670982,0.0013607482,4.812,0,0
-0.00386563,-0.0010986379999999999,-0.0009579316000000001,0.0005180104000000001,0.0012324618,4.813,0,0
-0.002905772,0.00011443599999999993,-0.000664351,0.0006576164000000001,0.00048281579999999994,4.814,0,0
-0.0019877714,0.0008256960000000001,-0.000396261,0.0003427056,0.00012973219999999993,4.815,0,0
-0.0007940374000000001,0.0013475100000000001,-0.00029142700000000003,6.3037e-05,-0.00025730600000000006,4.816,0,0
0.0007980486,0.0017319440000000002,2.992899999999999e-05,0.00012797680000000005,-0.001048408,4.817,0,0
0.0018186486000000002,0.0012934158,0.00010715820000000001,-0.000168303,-0.0012717202,4.818,0,0
0.0024913666000000003,0.0002765898000000001,0.0001187246,-0.0005468382000000001,-0.0009306331000000001,4.819,0,0
0.0032851860000000003,-0.00010725860000000006,0.000413094,-0.0006181858,-0.00031207509999999996,4.82,0,0
0.00306095,-0.00021109060000000006,0.0005500876000000001,-0.0006934938,0.0006165191000000001,4.821,0,0
0.00138039,-0.000636256,0.00020827460000000003,-0.0008041672,0.0017840591000000002,4.822,0,0
1.1226000000000031e-05,-0.00029930779999999996,0.0002946668,-0.0007297078000000001,0.0024584351,4.823,0,0
-0.0006259039999999998,0.0005678722,0.0007083198000000001,-0.0006073882,0.00248345,4.824,0,0
-0.0018592,0.0006250092,0.0008707804000000001,-0.0003941662,0.0020922985,4.825,0,0
-0.0027020200000000003,7.45772e-05,0.0009122564000000001,0.00017285580000000003,0.0008370164999999998,4.826,0,0
-0.0023884660000000005,-0.00029361940000000004,0.0005209854000000001,0.0009002098000000001,-0.0007225835,4.827,0,0
-0.002078784,-0.0008856614,-0.00023553280000000016,0.0013529660000000002,-0.0016873175,4.828,0,0
-0.002458112,-0.0017433254000000001,-0.0012551588,0.0016049296000000002,-0.0022434755,4.829,0,0
-0.002257666,-0.0019474980000000002,-0.0021380868000000003,0.001769762,-0.002671802,4.83,0,0
-0.001494966,-0.0014599236000000003,-0.0025049,0.00116332,-0.0023757214,4.831,0,0
-0.0011201631799999997,-0.0009553636,-0.0020247316,0.0001361079999999999,-0.0018963474,4.832,0,0
-0.00037005318,3.000400000000101e-06,-0.0011639708000000001,-0.0004207114000000001,-0.0020572954,4.833,0,0
0.00106006882,0.0015747624,-0.00035924220000000003,-0.0009331772,-0.0022932793999999998,4.834,0,0
0.00199247082,0.0021445404,0.0001783198,-0.0015846652,-0.0023917574,4.835,0,0
0.00197015082,0.0018134354,0.0003770402,-0.0015300712,-0.0025556119999999996,4.836,0,0
0.00219059,0.0016988369999999997,0.0006289798,-0.0013342552,-0.002340162,4.837,0,0
0.0019092632,0.0009572302,0.0006743750000000001,-0.0019430038,-0.00123973,4.838,0,0
0.00027091120000000016,-0.0005075418000000001,0.0007587304000000001,-0.0024571940000000002,-9.037799999999995e-05,4.839,0,0
-0.0009539748000000001,-0.0011331158000000001,0.0011135824,-0.0021195598000000003,0.00043209292000000003,4.84,0,0
-0.0013563236,-0.0009423312000000001,0.0012849726,-0.0016810500000000003,0.00088870252,4.841,0,0
-0.0020938835999999997,-0.0010190116,0.0009332661999999999,-0.0014885010000000004,0.0012460525200000002,4.842,0,0
-0.0025689508,-0.000975037,0.00039808819999999985,-0.0006744848,0.00092992892,4.843,0,0
-0.0017371879000000002,-0.0006267874000000001,-0.0002176458000000001,2.566120000000001e-05,0.00047331032000000003,4.844,0,0
-0.0008536119,-0.0006103114,-0.0009309618000000002,9.938620000000001e-05,0.0005044418,4.845,0,0
-0.0007866221000000001,-0.0007962360000000001,-0.001029649,0.0005005344000000001,0.00025001060000000004,4.846,0,0
-0.00017495289999999996,-0.0006359824000000001,-0.0005230286000000002,0.0013441254000000002,-0.00042867340000000005,4.847,0,0
0.0006425091000000001,-0.00017854820000000012,0.00011349539999999994,0.0018124412000000002,-0.0006844732000000001,4.848,0,0
0.0008500762,0.0005250642,0.0007802514,0.0020846172000000005,-0.0007315352,4.849,0,0
0.0013040222,0.0017297322000000002,0.0014485494,0.0025687400000000003,-0.0008852218,4.85,0,0
0.0021853752000000003,0.0028647788000000004,0.0018017939999999998,0.0023184000000000004,-0.0004097282,4.851,0,0
0.0025878060000000002,0.0032065420000000006,0.0016384680000000001,0.001318778,0.0006609658000000001,4.852,0,0
0.0027208920000000004,0.0030812234000000003,0.0014638864,0.0007505389999999999,0.0013699012,4.853,0,0
0.003022082,0.0023517514,0.0014104643999999999,0.00046179840000000005,0.0020189018,4.854,0,0
0.0021599378,0.00044511940000000003,0.0011224831199999998,-0.0003785316,0.002854322,4.855,0,0
0.0009631538000000001,-0.0012661906000000001,0.00067139952,-0.000679034,0.0028336679999999997,4.856,0,0
0.0004431498000000001,-0.0019801126000000002,0.0004735289199999999,-0.00043798020000000005,0.002370718,4.857,0,0
-0.0006175422000000001,-0.003194254,0.00022910952,-0.0007337492000000001,0.002398762,4.858,0,0
-0.0019866242,-0.004551978,-0.00046274448,-0.001010068,0.0019783562,4.859,0,0
-0.00236986,-0.004677716,-0.0007804191999999999,-0.0008196138,0.0011464182,4.86,0,0
-0.00221169,-0.004600782,-0.0007254256,-0.0007701212800000001,0.0010822442,4.861,0,0
-0.0022785268,-0.004971176,-0.001072049,-0.0009066610800000001,0.0016311922000000001,4.862,0,0
-0.0018011373999999999,-0.0042556140000000004,-0.001206898,-0.00080586108,0.0018072142000000002,4.863,0,0
-0.0007979052,-0.0022232500000000004,-0.0007620840000000001,-0.00054517048,0.0018569124000000002,4.864,0,0
0.00027783680000000006,-0.0005119500000000001,-0.0006035242000000001,-0.0005216164800000001,0.0021930524,4.865,0,0
0.0013713488000000002,0.00099416,-0.0006574295999999999,-0.0005660516,0.00197142116,4.866,0,0
0.0026753316,0.002870134,-0.00033712659999999997,-0.00012354159999999998,0.0007238591600000001,4.867,0,0
0.0039495982,0.004137954,-0.0001966862,6.4556000000000064e-06,-0.00049775884,4.868,0,0
0.004554542,0.004171382,-0.0002649388,-5.951960000000002e-05,-0.0008225806400000001,4.869,0,0
0.004807514000000001,0.0037572760000000004,-8.764139999999998e-05,0.00020894099999999998,-0.00170001064,4.87,0,0
0.004452196,0.003502126,6.344600000000014e-06,5.705420000000003e-05,-0.0024304114000000005,4.871,0,0
0.002830074,0.002675212,-4.328860000000002e-05,-0.00022169640000000001,-0.0018789610000000004,4.872,0,0
0.0010249959999999998,0.0016736614,0.00019593380000000002,0.00031541440000000005,-0.0015743434,4.873,0,0
-0.0002467480000000001,0.0011902902,0.0005446444000000001,0.0006319664000000001,-0.001655308,4.874,0,0
-0.0019158760000000004,0.0006961722,0.0004918792,0.0003404736000000001,-0.0010187100000000001,4.875,0,0
-0.0034841960000000006,-0.00021778780000000005,0.0001825886,0.00044480140000000007,-0.00021322620000000002,4.876,0,0
-0.003961190000000001,-0.0006694178,-2.1707399999999988e-05,0.0004621384,-0.0004952786,4.877,0,0
-0.004064170000000001,-0.000782839,-0.00021610500000000002,0.0001138256,-0.0006057762,4.878,0,0
-0.004316172,-0.0012612998,-0.0007650269999999999,-0.00015674740000000002,-0.0003889972,4.879,0,0
-0.0036813500000000003,-0.0007440978000000002,-0.001148637,-5.470580000000001e-05,-0.0009652832,4.88,0,0
-0.0020128760000000002,0.00018193019999999992,-0.000989996,0.00010632880000000002,-0.0017008510000000002,4.881,0,0
-0.000682076,0.0005939482,-0.0007348328000000001,0.00011967240000000002,-0.0013926110000000002,4.882,0,0
0.00056564,0.00119942,-0.00021422199999999997,-0.00010051,-0.000702147,4.883,0,0
0.002233544,0.0020287300000000003,0.0006269399999999999,-0.000568383,-0.00047148800000000005,4.884,0,0
0.003234114,0.002171724,0.0012741200000000001,-0.0010108726,0.000335674,4.885,0,0
0.003019532,0.0019417160000000002,0.001610391,-0.0012654102,0.0011493876000000002,4.886,0,0
0.0029576199999999998,0.0020370699999999998,0.0016014398000000001,-0.0010957246,0.0009159693999999999,4.887,0,0
0.002967094,0.0016203336,0.0010412116,-0.0009526178,0.0001546074,4.888,0,0
0.00160611,0.0009289095999999999,0.0005776858,-0.0005757173999999999,-0.00036424659999999997,4.889,0,0
0.00010788799999999989,0.00043068600000000006,0.0004710428,0.00019641260000000002,-0.0010037525999999999,4.89,0,0
-0.0007634740000000001,-0.00018248400000000006,0.00024610079999999997,0.0005157712,-0.0016990702,4.891,0,0
-0.002203214,-0.0012736240000000001,0.00013131980000000002,0.00039474139999999997,-0.0017296714,4.892,0,0
-0.003871696,-0.0020807076,7.016419999999999e-05,0.00044925,-0.0015990940000000001,4.893,0,0
-0.003983584,-0.0022202316,-0.00020184480000000002,0.0006286842000000001,-0.0017196520000000001,4.894,0,0
-0.003825472,-0.002415504,-0.00043276840000000007,0.00033522620000000006,-0.0013569866000000001,4.895,0,0
-0.004152589999999999,-0.0024879539999999997,-0.0005308686,4.4158999999999995e-05,-0.0005975386,4.896,0,0
-0.0030428388000000002,-0.0017254642,-0.0005823084,-6.7984e-05,-0.000517201,4.897,0,0
-0.0012273747999999999,-0.0005853201999999999,-0.00037536220000000003,-1.1006999999999998e-05,-0.00040902120000000004,4.898,0,0
-3.979280000000003e-05,-0.00015418209999999992,-0.00020152578,0.0002130284,7.967500000000001e-05,4.899,0,0
0.0012553032000000002,0.0002462415,-0.00018843497999999998,0.000371234,-9.291640000000002e-05,4.9,0,0
0.0031295232000000004,0.0009585895000000001,-6.75715e-05,0.0007328896,-0.00028863200000000004,4.901,0,0
0.004061754,0.0010674081000000002,-7.17413e-05,0.0006778154,0.00014435579999999998,4.902,0,0
0.003970884,0.0006878121,-0.0001623197,0.000503102,0.00027031,4.903,0,0
0.003967460000000001,0.000462824,-0.00047187132000000003,0.0006306840000000001,0.00023041416000000003,4.904,0,0
0.0032062260000000004,8.444440000000006e-05,-0.00084184552,0.0007623924000000001,0.00076845216,4.905,0,0
0.0014254839999999999,-0.0005068036,-0.0011658588,0.0008477844000000001,0.0009583577600000001,4.906,0,0
1.1459999999998837e-06,-0.0008688168,-0.001422364,0.00098800746,0.0006381627600000001,4.907,0,0
-0.001312676,-0.0013135088,-0.0015320422,0.0011310838600000002,0.0007739567600000001,4.908,0,0
-0.003071486,-0.0020545108,-0.0013945648,0.0005840624599999999,0.0010127584,4.909,0,0
-0.004165988000000001,-0.0024326648,-0.0009962066,0.00012231046000000002,0.0008379160000000001,4.91,0,0
-0.004254382,-0.0024144588,-0.0009612386000000001,-8.201354e-05,0.0006086720000000001,4.911,0,0
-0.004425018,-0.00268195,-0.0011922326,-0.0002082758,0.0006716566000000001,4.912,0,0
-0.0041466739999999995,-0.002225954,-0.0012183264000000002,-4.292000000000033e-06,0.0004225164,4.913,0,0
-0.0025692100000000006,-0.0006823580000000001,-0.0009489948,0.00010058440000000001,-0.00022639760000000002,4.914,0,0
-0.001087266,0.00019939999999999991,-0.000656951,0.00013909300000000002,-0.0004701888,4.915,0,0
0.00036418400000000014,0.0006874259999999999,9.005900000000008e-05,0.00019509039999999998,-0.00044580719999999996,4.916,0,0
0.00217336,0.001812016,0.001299297,0.00043960600000000005,-0.0007915588,4.917,0,0
0.003699336,0.002506452,0.001956971,0.00016993399999999998,-0.0009224652,4.918,0,0
0.00439853,0.002548162,0.002206552,-0.00016291700000000003,-0.0001230952,4.919,0,0
0.005059064,0.002889638,0.0026723800000000002,-0.00021524180000000005,0.0004615524,4.92,0,0
0.0054103300000000005,0.002964856,0.0029887200000000003,-0.0005734272000000001,0.00039478299999999995,4.921,0,0
0.0042590786000000005,0.002070924,0.002658192,-0.0008639972000000001,0.0007790376,4.922,0,0
0.0027608565999999997,0.0010545560000000001,0.002181482,-0.0009916708,0.0013342948,4.923,0,0
0.0011227365999999998,0.000266732,0.0019420548000000002,-0.0008625938000000001,0.0012998827999999999,4.924,0,0
-0.0009808154,-0.00085413,0.0012934324,-0.0008325,0.0015091148,4.925,0,0
-0.0032138634,-0.0017613680000000001,5.774639999999993e-05,-0.000915294,0.0019666686,4.926,0,0
-0.00440087,-0.001792376,-0.0007590436,-0.000775526,0.00183535822,4.927,0,0
-0.00486483,-0.0016756800000000001,-0.0010721996,-0.0007149866000000001,0.00164777702,4.928,0,0
-0.0050701999999999995,-0.0017670720000000002,-0.0014346464,-0.0008484656000000001,0.00140355222,4.929,0,0
-0.0038664705999999997,-0.00101102,-0.0013334750000000002,-0.0005319060000000001,0.00044041222,4.93,0,0
-0.0021085865999999997,-7.048199999999997e-05,-0.0006070909999999999,-2.690800000000002e-05,-0.00037991778000000004,4.931,0,0
-0.0008563628000000001,0.000121827,-0.0001546162,-0.00015611560000000003,-0.0006344040000000001,4.932,0,0
0.0005045632,0.000691947,0.00017584399999999998,-0.0001271036,-0.0012480488000000001,4.933,0,0
0.0023184192,0.001528601,0.0005631618,0.0003744884,-0.0019335340000000002,4.934,0,0
0.0032338478000000005,0.001729505,0.0005269682,0.0003463966,-0.001870626,4.935,0,0
0.0033820638000000005,0.001834913,0.00016689879999999996,0.00015410620000000003,-0.001665168,4.936,0,0
0.003964004,0.002609108,5.4029199999999994e-05,0.00036851160000000006,-0.00177961,4.937,0,0
0.003963004000000001,0.0027265780000000003,0.0001938434,0.000559682,-0.0014830414,4.938,0,0
0.002539406,0.0018504440000000004,-5.2396000000000045e-05,0.0007359619999999999,-0.0010813802000000001,4.939,0,0
0.001153262,0.0011869860000000001,-0.00015886372000000002,0.0008362246000000001,-0.0010731922,4.94,0,0
0.0001780519999999999,0.00045364599999999993,-0.00025404812000000005,0.0008143209800000001,-0.0008604839600000001,4.941,0,0
-0.0015121700000000002,-0.000882448,-0.00062573532,0.0006703737800000001,-0.0003307055600000001,4.942,0,0
-0.0031861240000000002,-0.0019343060000000002,-0.00086972672,0.0004651587800000001,0.00014506583999999997,4.943,0,0
-0.0036908880000000007,-0.001867722,-0.00108546712,0.00036629078000000005,0.0005342666400000001,4.944,0,0
-0.0037772600000000006,-0.002036864,-0.0015549008,0.00016481698000000002,0.0008641372400000001,4.945,0,0
-0.0037707080000000007,-0.0022800320000000004,-0.0016431949999999999,2.852119999999998e-05,0.0010291898,4.946,0,0
-0.002480474,-0.001363998,-0.0011668702,0.0002837042,0.0009077288000000002,4.947,0,0
-0.0007470200000000001,-0.00020998799999999982,-0.0012043086,0.0004180002,0.0007233976,4.948,0,0
0.00045332200000000014,0.0001317526,-0.0009649745999999999,0.0002465652,0.0009359176000000001,4.949,0,0
0.002065692,0.00053813278,-0.00024884459999999995,0.0003476064,0.001178053,4.95,0,0
0.003930546,0.0014791007800000003,0.00037086540000000004,0.00022808220000000002,0.001126034,4.951,0,0
0.004483454,0.00153645878,0.0006262698000000001,-0.00023960040000000005,0.0011584348000000001,4.952,0,0
0.004441810000000001,0.00122357878,0.0008472116,3.1992399999999975e-05,0.0011135544,4.953,0,0
0.0048678060000000006,0.0016368521800000002,0.0015338736,0.0002191054,0.0008031463999999999,4.954,0,0
0.003927514,0.0015372758000000001,0.0017999336000000003,6.91038e-05,0.0011591004,4.955,0,0
0.0017678099999999999,0.0006594298000000001,0.0018342016000000001,0.0005533958000000001,0.0018373146000000003,4.956,0,0
8.286599999999991e-05,3.275180000000008e-05,0.0018029628000000002,0.0008353118,0.0018843602000000001,4.957,0,0
-0.001497398,-0.0010101442000000002,0.0014514104000000001,0.00029682099999999996,0.0018414427999999998,4.958,0,0
-0.0034021859999999998,-0.0026718942000000002,0.000740779,-0.00011440640000000003,0.0016141074000000002,4.959,0,0
-0.004506302,-0.003288268,-9.467000000000064e-06,-7.688200000000012e-06,0.0004124134,4.96,0,0
-0.004187522,-0.003195314,-0.0006820730000000001,-0.00021669740000000002,-0.0013883646000000002,4.961,0,0
-0.003750968,-0.0035245660000000002,-0.0012028014,-0.00018146620000000004,-0.0025313904000000003,4.962,0,0
-0.003174984,-0.002887652,-0.0011299904000000001,0.00010289220000000002,-0.0030585694000000003,4.963,0,0
-0.0017129720000000003,-0.001147472,-0.0010579740000000002,-9.812440000000003e-05,-0.0031548820000000003,4.964,0,0
-0.0005315060000000001,-0.00012078000000000007,-0.001059896,-0.0004092064000000001,-0.0028062910000000003,4.965,0,0
1.1010000000000045e-05,0.00029166439999999994,-0.000878987,-0.0005770736,-0.002392739,4.966,0,0
0.001327124,0.0013749364000000001,-0.0006630642000000001,-0.0008088488000000001,-0.002023167,4.967,0,0
0.0029840120000000003,0.0020474064,-0.0005685872,-0.0013372704000000001,-0.001758737,4.968,0,0
0.0032579939999999997,0.0014880294,-0.0006151686,-0.0016173784000000002,-0.001426648,4.969,0,0
0.0033376060000000003,0.0013595514,-0.00039932460000000004,-0.0017150464000000002,-0.0011863836,4.97,0,0
0.003384978,0.0015497690000000003,-0.00014261160000000002,-0.0016138038,-0.0008575455999999999,4.971,0,0
0.0017140759999999997,0.0005415870000000001,-0.00013067980000000003,-0.0014583262,4.3156400000000006e-05,4.972,0,0
-0.0005442320000000002,-0.000726817,-0.00010118060000000002,-0.0011780556,0.0009503024,4.973,0,0
-0.0016954360000000003,-0.0011353040000000002,0.00012368319999999996,-0.0006001656,0.0011093674,4.974,0,0
-0.00279963,-0.0019648240000000004,0.00013770029999999998,-0.00044712100000000003,0.0011820074,4.975,0,0
-0.0041609360000000005,-0.0028911400000000004,-0.00031202370000000005,-0.00031210159999999995,0.0013708288,4.976,0,0
-0.0037112120000000006,-0.002647356,-0.00035546290000000006,-0.00013751839999999997,0.0009122448,4.977,0,0
-0.0024931654000000004,-0.002027455,-0.0003391001,-0.000216045,0.00013002160000000004,4.978,0,0
-0.0023667574,-0.0017772914000000004,-0.0007511175000000001,-1.850499999999996e-05,-0.0002136544,4.979,0,0
-0.001629793,-0.0007881154000000002,-0.0009323498000000001,0.0005897664000000001,-0.00035288880000000004,4.98,0,0
0.00019075499999999992,0.0006248986,-0.00063353098,0.0008037008,-0.00039468980000000004,4.981,0,0
0.0009786130000000001,0.0010591826,-0.00024406438000000005,0.0007357392,-0.0002912254,4.982,0,0
0.0014299764,0.0016269376000000002,-9.904380000000032e-06,0.0009453727999999999,-0.00023404620000000003,4.983,0,0
0.0028649504,0.0027586040000000004,0.0004909016200000001,0.0007494927999999999,-0.0002538136,4.984,0,0
0.004023578,0.003370568,0.00069901982,0.0002859562,-0.00043389860000000004,4.985,0,0
0.0041514,0.00320349,0.0006470418000000001,0.0004778662,-2.9624999999999975e-05,4.986,0,0
0.003644908,0.003375768,0.0011024778,0.0012647350000000001,0.0003657246,4.987,0,0
0.0022835779999999996,0.0028879071999999995,0.0016996898000000002,0.0022327454,0.0005577148,4.988,0,0
-0.00041967799999999993,0.0007019732000000001,0.001626732,0.0031502134000000004,0.0017020982,4.989,0,0
-0.0032068680000000003,-0.0012735908,0.001392965,0.003745676,0.0030010062,4.99,0,0
-0.0051516900000000004,-0.0026109628,0.0013184412000000001,0.003519068,0.0034231362,4.991,0,0
-0.006453750000000001,-0.0036199887999999996,0.00034331320000000016,0.0024837887999999996,0.0039699022,4.992,0,0
-0.006425594000000001,-0.0036413107999999994,-0.0008323728000000001,0.0011872748000000002,0.0047415159999999994,4.993,0,0
-0.004782118000000001,-0.0021898988,-0.0011076618,-0.0001505732,0.003902544,4.994,0,0
-0.0029963010000000003,-0.0006717088000000002,-0.0008917785200000001,-0.0013900092,0.0023494199999999996,4.995,0,0
-0.0014126429999999999,0.0005399391999999999,-0.0007599835800000002,-0.0026954632,0.0009897559999999998,4.996,0,0
0.001181035,0.0019666312,-0.00045951758,-0.0037580879999999997,-0.0007405180000000001,4.997,0,0
0.0034982850000000003,0.0027261159999999998,6.636522000000001e-05,-0.004772332,-0.0020120280000000003,4.998,0,0
0.004446269,0.0028525000000000004,0.0005023440200000001,-0.006084236000000001,-0.0022162082,4.999,0,0
0.005463058000000001,0.0028136000000000003,0.00090059074,-0.007001238000000001,-0.0019455238000000003,5.0,0,0
0.006402136,0.0028578,0.0014668588,-0.007204554,-0.0020870578,5.001,0,0
0.005996338,0.0024077280000000005,0.0019973888,-0.007582124000000001,-0.0026197958,5.002,0,0
0.005109826,0.0018396082,0.002133106,-0.0076637400000000005,-0.0038618318000000003,5.003,0,0
0.004659098,0.0016656482000000001,0.00183084784,-0.005293848,-0.005615629600000001,5.004,0,0
0.003121318,0.0010478324000000002,0.00081192984,2.366399999999963e-05,-0.006155802,5.005,0,0
0.0006942179999999999,7.866400000000173e-06,-0.00011605216000000018,0.00871032,-0.004959574,5.006,0,0
-0.0009914380000000003,-0.0008109136000000001,-0.0005429085600000001,0.02011633,-0.0029304180000000006,5.007,0,0
-0.002854718,-0.0019332718000000001,-0.0012070165600000001,0.031082408000000002,-0.00033873600000000007,5.008,0,0
-0.004854088,-0.0034301078000000002,-0.0016057904,0.03838614,0.0025485200000000003,5.009,0,0
-0.005494576000000001,-0.003816326,-0.0012654084000000001,0.039760859999999995,0.004239464,5.01,0,0
-0.005066378000000001,-0.0033748925999999998,-0.0011166988,0.03304997,0.00489028,5.011,0,0
-0.004817120000000001,-0.0030342696000000002,-0.0014889584000000002,0.01862037,0.005876308,5.012,0,0
-0.004284130000000001,-0.0021671312,-0.0014001624,0.0003580500000000004,0.006587716,5.013,0,0
-0.0028424418000000005,-0.0004881092000000001,-0.0005917644000000001,-0.01849229,0.0068493880000000005,5.014,0,0
-0.0018287944,0.0005826427999999999,3.578359999999994e-05,-0.035143310000000004,0.007521842000000001,5.015,0,0
-0.0013371265999999999,0.0006990669999999999,4.955119999999996e-05,-0.046085219999999996,0.007397944,5.016,0,0
7.247739999999996e-05,0.00115667,0.00033119719999999994,-0.04954894,0.0054046,5.017,0,0
0.0022165674,0.0017849616,0.0006917424,-0.046586100000000005,0.0029404960000000003,5.018,0,0
0.0036349792,0.0016899696,0.00023975,-0.03893398,0.0008681819999999996,5.019,0,0
0.004859425800000001,0.0016752516000000002,-3.3812799999999996e-05,-0.029184604000000003,-0.0017135260000000004,5.02,0,0
0.006294674,0.002163288,6.783439999999998e-05,-0.020131782,-0.004487598000000001,5.021,0,0
0.006230522000000001,0.0017243526000000002,-0.0002874776,-0.012916630000000002,-0.006800268,5.022,0,0
0.004962048,0.0007706746,-0.0003320314,-0.007873644,-0.009932492000000001,5.023,0,0
0.0036922652,0.00024890959999999995,-8.908699999999996e-05,-0.003663784,-0.013120226,5.024,0,0
0.0016412172,-0.0005363324000000001,-0.00019292219999999995,0.0018262399999999998,-0.014124622,5.025,0,0
-0.0008560588,-0.0014040944000000002,-8.291059999999995e-05,0.009890298,-0.01324345,5.026,0,0
-0.0021952828,-0.001031367,0.00036858940000000003,0.022548326,-0.01134183,5.027,0,0
-0.0027964248,0.00020756300000000002,0.00048270880000000004,0.0386721,-0.007887638,5.028,0,0
-0.0036433940000000003,0.0007940060000000001,7.814320000000001e-05,0.05297202,-0.0039045024,5.029,0,0
-0.00366624,0.0011397124,-0.0002274608,0.062379420000000005,-0.0018149204,5.03,0,0
-0.0025874546,0.0016160292,-0.0004927228000000001,0.06417732,-0.0007124416,5.031,0,0
-0.0020843738,0.0015437354,-0.0007820236000000001,0.0552592,0.0012550964,5.032,0,0
-0.0013403178,0.0011051354,-0.0008838002000000001,0.03717406,0.0035748404000000003,5.033,0,0
0.0005823881999999999,0.0010064074,-0.0006315806000000001,0.01324496,0.0057199448000000005,5.034,0,0
0.0022927802,0.001285725,4.943539999999994e-05,-0.013381840000000002,0.0079983868,5.035,0,0
0.0031423848,0.0016895862000000002,0.00046754639999999997,-0.03747498,0.010075174000000001,5.036,0,0
