bandpass 1,bandpass 2,bandpass 3,bandpass 4,bandpass 5,time,onset,mark
0.01744228,0.00792394,-0.003637716,-0.0026333920000000005,-0.002506078,4.645,1,1
0.022212100000000002,0.010648600000000001,-0.003847754,-0.0029953480000000005,-0.002138078,4.646,0,0
0.024455860000000003,0.012389316000000001,-0.003308052,-0.0030193596000000007,-0.0011364219999999998,4.647,0,0
0.019689240000000004,0.010461452000000001,-0.0009417320000000005,-0.0017582744000000003,0.0014920000000000003,4.648,0,0
0.01167032,0.007112642000000001,0.001151898,-0.0006971544000000001,0.0035100820000000003,4.649,0,0
0.0008806000000000013,0.0026580700000000002,0.002845396,0.0002844236,0.005121804000000001,4.65,0,0
-0.00949006,-0.00215367,0.00359404,0.0010536796,0.005879174000000001,4.651,0,0
-0.01736376,-0.006191006,0.003295292,0.0017806072,0.005787490000000001,4.652,0,0
-0.02345434,-0.008957362,0.0023584948,0.002665844,0.005094322,4.653,0,0
-0.02661376,-0.010518831999999999,0.0010291488,0.00296332,0.0037576824000000006,4.654,0,0
-0.02506462,-0.010587606000000001,4.966879999999984e-05,0.0027114336,0.0019147804000000004,4.655,0,0
-0.020749874,-0.009505148,-0.0006036702000000001,0.0024676256,0.0001673664000000001,4.656,0,0
-0.014704318,-0.007628055999999999,-0.0011276362,0.0018596096000000003,-0.0015243276,4.657,0,0
-0.006349097999999998,-0.004606524,-0.001562421,0.0008020181999999999,-0.0030976755999999996,4.658,0,0
0.0025228220000000005,-0.00046392000000000004,-0.0017386530000000002,-0.00011832180000000001,-0.00378921,4.659,0,0
0.010053622000000002,0.0036723660000000007,-0.001789073,-0.0008740234000000002,-0.00371758,4.66,0,0
0.016495876,0.0070901079999999995,-0.0017006635999999998,-0.0019235174000000002,-0.0035623760000000003,4.661,0,0
0.02124262,0.009697956,-0.0011921535999999998,-0.0027547014,-0.0028997312,4.662,0,0
0.022345320000000002,0.010815262,-0.0004957916,-0.0029350059999999996,-0.0013364132000000001,4.663,0,0
0.020211410000000003,0.009803316000000001,0.00048639839999999995,-0.002304202,4.794679999999994e-05,4.664,0,0
0.015941760000000003,0.007237407,0.0013381763999999999,-0.0011269540000000003,0.0010926588,4.665,0,0
0.009133054000000002,0.004091915,0.0019701600000000003,-2.4770000000000103e-05,0.0023180888,4.666,0,0
0.0006950340000000006,0.0003388950000000001,0.002585992,0.001168246,0.002825494,4.667,0,0
-0.006638206,-0.0033245130000000003,0.003097382,0.0022231160000000002,0.0024096182,4.668,0,0
-0.012123235999999999,-0.005947627,0.0033618800000000003,0.00258342,0.001906295,4.669,0,0
-0.016434806,-0.007855560000000001,0.003204256,0.0027153060000000002,0.0012979614,4.67,0,0
-0.01804614,-0.008856098,0.0027969837999999997,0.0028756320000000004,0.0003258614,4.671,0,0
-0.016607256,-0.008181978,0.0020972764,0.002032402,-0.00034368660000000004,4.672,0,0
-0.013567558,-0.0065390579999999995,0.0011643270000000002,0.0006726059999999999,-0.0007562648,4.673,0,0
-0.008606480000000001,-0.0043844719999999995,0.00020776299999999997,-0.00037041000000000016,-0.0015239796000000002,4.674,0,0
-0.0016215599999999998,-0.0012149920000000002,-0.0005695450000000001,-0.0017671360000000003,-0.00221741,4.675,0,0
0.005193040000000001,0.00197436,-0.0014346208,-0.002829976,-0.0024855660000000003,4.676,0,0
0.010932996,0.004493652,-0.0021730534,-0.0028552860000000003,-0.0020999478000000003,4.677,0,0
0.016061738,0.0065785900000000005,-0.0025248780000000004,-0.0025095960000000002,-0.0013105978,4.678,0,0
0.019147900000000002,0.00797825,-0.0026167700000000005,-0.0022176086,-0.00043410979999999985,4.679,0,0
0.018694480000000003,0.008275926000000001,-0.0019869188,-0.0014218502,0.0010716281999999999,4.68,0,0
0.015833700000000003,0.0072108,-0.0009955628,-0.0003050302000000001,0.0025970802000000004,4.681,0,0
0.011323314,0.0050756099999999995,-0.00031438760000000005,0.00039283579999999996,0.0029190920000000003,4.682,0,0
0.004592354000000002,0.0023174199999999997,0.0005653764,0.0011126858,0.00308432,4.683,0,0
-0.002716306,-0.0005572580000000004,0.0015374104,0.0016902144,0.003367264,4.684,0,0
-0.008584186,-0.0031132960000000006,0.0017436831999999998,0.0016501508999999998,0.002616204,4.685,0,0
-0.013106866,-0.005169072,0.0017948592,0.0014495368999999998,0.0017150735999999999,4.686,0,0
-0.01647184,-0.006654356000000001,0.00198842,0.0014562869,0.0009677735999999999,4.687,0,0
-0.01715952,-0.007390806000000001,0.0014815526000000001,0.0011323125,-0.0004444724000000001,4.688,0,0
-0.015233796,-0.007341826,0.0006947425999999999,0.0006635323000000001,-0.0019480484,4.689,0,0
-0.012091474,-0.006788224,-3.855740000000002e-05,0.0005551967999999999,-0.0030661444,4.69,0,0
-0.006966938000000001,-0.005362128,-0.0011515834,0.00045563480000000006,-0.0042513640000000005,4.691,0,0
-0.00047983799999999936,-0.002807808,-0.0019951034,8.167260000000003e-05,-0.0049083220000000006,4.692,0,0
0.004711362,-1.2871999999999927e-05,-0.0024402,-0.000442487,-0.004448442,4.693,0,0
0.008697618,0.0023829360000000004,-0.002809744,-0.0004285408,-0.0032770376000000006,4.694,0,0
0.012188396,0.0045552380000000005,-0.0028033280000000003,-0.00032388877999999996,-0.0018087216000000003,4.695,0,0
0.013575940000000002,0.006303166000000001,-0.0024500340000000002,-0.0008996167800000001,-0.00030220760000000007,4.696,0,0
0.012347120000000001,0.006826378000000001,-0.0020484686,-0.0012377245800000002,0.0013218884,4.697,0,0
0.010283226000000001,0.006116746000000001,-0.0015515952,-0.0008735225800000001,0.0023953344,4.698,0,0
0.007098818000000001,0.0045321934000000005,-0.000762673,-0.0008301291800000001,0.0028408500000000002,4.699,0,0
0.002046426,0.0024459794,-8.17189999999999e-05,-0.0007558840000000001,0.0033472940000000002,4.7,0,0
-0.002870934,0.0003838474,0.000201644,-4.211400000000005e-05,0.003638808,4.701,0,0
-0.006640774,-0.0016538225999999999,0.00017412499999999996,0.000587952,0.003428712,4.702,0,0
-0.00957508,-0.0033726386,8.760119999999992e-05,0.001080532,0.0028352418,4.703,0,0
-0.011355912,-0.004381746,-0.00023072260000000003,0.0013962046,0.0020228646,4.704,0,0
-0.010994818,-0.004352534,-0.0007377406,0.0012918839999999999,0.0006739266000000001,4.705,0,0
-0.009131199999999999,-0.003710068,-0.0007302056,0.0009335537999999999,-0.0006045734000000001,4.706,0,0
-0.006324692,-0.0028205526000000002,-0.0006015,0.0006042527999999998,-0.0014552374,4.707,0,0
-0.00223721,-0.0011488866,-0.0006012896000000001,6.474399999999996e-05,-0.0022804812000000005,4.708,0,0
0.0021588700000000002,0.0007771654000000002,-0.0005418066,-0.000513242,-0.00249063,4.709,0,0
0.005562718,0.0020022794,-0.0003038976,-0.0006257816000000002,-0.002254008,4.71,0,0
0.0080783,0.0029870534,-3.5846800000000024e-05,-0.0007472234,-0.0018873562,4.711,0,0
0.010428032,0.00399422,0.0003109192,-0.0010356224,-0.0013331533999999998,4.712,0,0
0.01107379,0.00425115,0.0013745392000000002,-0.0013113916,-0.00038888940000000004,4.713,0,0
0.00964796,0.00401634,0.0027147498,-0.0013368616000000002,0.0007010266000000001,4.714,0,0
0.007801897200000001,0.0033558492,0.0035158688000000004,-0.0010348056000000002,0.0013098006,4.715,0,0
0.0046876132,0.0017908131999999997,0.003860476,-0.0006196156,0.001493478,4.716,0,0
-0.00037834680000000016,-0.00042877880000000005,0.004626912,6.705839999999994e-05,0.0017143412,4.717,0,0
-0.004790106800000001,-0.0022791988,0.003945114,0.0009064764000000001,0.0017333571999999999,4.718,0,0
-0.0077113168,-0.0035623008,0.001512004,0.0013830704,0.0010215294,4.719,0,0
-0.010349144,-0.00483994,0.0006123594000000001,0.0012978666000000002,0.000506003,4.72,0,0
-0.011414420000000002,-0.0053073700000000005,0.0004124674000000001,0.0011503986000000002,0.0003044288000000001,4.721,0,0
-0.009845786000000002,-0.004381538,-0.0009552186000000001,0.0009179654,-0.00044697119999999996,4.722,0,0
-0.007892979999999999,-0.003179043,-0.0016996886,0.0003904054,-0.0011044152000000002,4.723,0,0
-0.0056583734000000005,-0.0023148588,-0.0017020866,8.66058e-05,-0.0012114682000000001,4.724,0,0
-0.0017495954000000002,-0.0009158967999999999,-0.003498928,6.381679999999982e-06,-0.0012770278,4.725,0,0
0.0017157046,0.0004996872,-0.005934923999999999,-1.5423320000000007e-05,-0.0010655386,4.726,0,0
0.0037830446000000004,0.0014650752,-0.0075342379999999995,0.00011687708000000002,-0.0008936346000000001,4.727,0,0
0.0059930346,0.0023496242,-0.00888682,0.00047790708,-0.0007321064,4.728,0,0
0.007758394,0.002965464,-0.00801616,0.00046376388000000013,-8.066360000000012e-05,4.729,0,0
0.007163832,0.003219812,-0.0037333840000000006,2.7215400000000112e-05,0.0006118483999999999,4.73,0,0
0.005970744,0.003013202,0.001061036,-0.0002205335999999999,0.0012793582,4.731,0,0
0.0049004176,0.0024755824,0.0048223400000000005,-0.0006508188000000001,0.0020716422,4.732,0,0
0.0021975656,0.0013824915999999998,0.008576170000000001,-0.0010547186,0.0024289592,4.733,0,0
-0.0006900744,0.0003360055999999999,0.010536066000000002,-0.0007608270000000002,0.0021939871999999997,4.734,0,0
-0.0023266984,-0.0001881284,0.008972254,-0.0002653786,0.0018705344,4.735,0,0
-0.0041047504,-0.0006731424,0.0064510988,0.000134061,0.0009363524,4.736,0,0
-0.006045616,-0.0012789388000000001,0.0045084754,0.0004605278,5.427440000000007e-05,4.737,0,0
-0.0062387,-0.001755508,0.0023728474,0.00039003700000000003,-0.0004924828,4.738,0,0
-0.0054126444000000004,-0.0019635300000000002,0.0006399588,0.0005236162,-0.0014187928000000002,4.739,0,0
-0.0045583964,-0.0022833840000000003,-0.00017255160000000005,0.0007316958,-0.001969792,4.74,0,0
-0.0025836104,-0.0020906932000000003,-0.0005051168000000001,0.0005110102000000001,-0.0022166760000000003,4.741,0,0
0.00045883960000000037,-0.0010128352000000002,-0.0007279614000000001,0.0002584656,-0.002481702,4.742,0,0
0.0025899676000000005,0.00029962079999999996,-0.0009750074000000001,-0.00012017379999999995,-0.0021259160000000003,4.743,0,0
0.004071408,0.0013567088000000001,-0.0013612148,-0.0007547238000000002,-0.0013562636,4.744,0,0
0.005962536000000001,0.0022615588,-0.0018917304000000002,-0.0011488167999999998,-0.00092093048,4.745,0,0
0.006780688000000001,0.002986082,-0.0020689320000000003,-0.0012690972000000001,-0.00016589048,4.746,0,0
0.006065068000000001,0.002999116,-0.001967248,-0.0009977268,0.0007815155200000001,4.747,0,0
0.005426014,0.002750078,-0.0020146879999999997,-0.00014063280000000007,0.0010909295200000001,4.748,0,0
0.0041104520000000005,0.0024359924,-0.00187369,0.00027744360000000003,0.0013138211200000001,4.749,0,0
0.0008762940000000003,0.0015574283999999997,-0.0014731719999999998,0.0005959516,0.0017100060000000002,4.75,0,0
-0.0017426340000000003,0.0006800813999999998,-0.00112525,0.001042724,0.0018416340000000002,4.751,0,0
-0.0033090500000000004,1.2945600000000034e-05,-0.0009352308,0.0008489634000000001,0.0014437582000000001,4.752,0,0
-0.005210216,-0.0007805704000000001,-0.0005248766000000001,0.0005442934,0.0009334202000000001,4.753,0,0
-0.006533592,-0.0011900648,-0.0001498728,0.0006696230000000002,0.0005368257999999999,4.754,0,0
-0.00574788,-0.0010580238,-0.00015185319999999998,0.0005932600000000001,-8.247620000000002e-05,4.755,0,0
-0.00436852492,-0.0009784848,-0.0003267026,0.00018745519999999996,-0.0005023362000000001,4.756,0,0
-0.0035080183200000004,-0.0011194710000000001,-0.0005431358,0.0001669006,-0.00034798240000000007,4.757,0,0
-0.0013748063199999997,-0.0007783252000000001,-0.000679,0.00011025660000000002,4.416620000000001e-05,4.758,0,0
0.00121522768,4.914679999999997e-05,-0.0009223252000000001,-0.0002974182,0.0004768106,4.759,0,0
0.00266391568,0.00041042440000000003,-0.0009055158,-0.0005368856000000001,0.0007201312,4.76,0,0
0.0037639186,0.0005517208000000001,-0.0006679316000000001,-0.00045885660000000004,0.0005823526,4.761,0,0
0.00552081,0.0011364808,-0.0004868530000000001,-0.0005225526,0.00018511460000000005,4.762,0,0
0.006139952000000001,0.0011258846000000002,-0.00019603640000000005,-0.0007050854000000001,-0.000318518,4.763,0,0
0.005463078,0.0003521828000000001,5.0318e-05,-0.0007820406000000001,-0.0010359500000000001,4.764,0,0
0.00497085,9.747640000000004e-05,5.438260000000001e-05,-0.0008427619999999999,-0.0013574926,4.765,0,0
0.003549538,-0.000230032,0.0001369584,-0.0007993118,-0.00084676,4.766,0,0
0.0010016680000000003,-0.000869404,0.0004537018,-0.000576039,-0.00041799940000000004,4.767,0,0
-0.0007784900000000001,-0.00100175,0.0005269122,-0.00050214,-0.0006110794,4.768,0,0
-0.0014921082000000003,-0.0011721982,0.00047696836000000006,-0.0004264646000000001,-0.0008702254,4.769,0,0
-0.0022730662,-0.0014271744000000002,0.0006022917599999999,-0.0003314516,-0.0011688614,4.77,0,0
-0.0021804262000000006,-0.0013901484,0.00082957516,-0.0006192140000000001,-0.0020623914000000004,4.771,0,0
-0.0012221549600000003,-0.0011720684,0.0010795751600000002,-0.0006032092,-0.0027249680000000004,4.772,0,0
-0.00130483896,-0.0008282232,0.0014580981600000001,-0.0003772984,-0.0025115800000000002,4.773,0,0
-0.00206073876,-0.0003990169999999999,0.001991023,-0.00039075439999999997,-0.0020177614,4.774,0,0
-0.00231725676,0.0003275130000000001,0.0020962568,-0.000379717,-0.0016960274000000003,4.775,0,0
-0.00298061476,0.0009621930000000001,0.0017743718,6.115700000000001e-05,-0.0013561884,4.776,0,0
-0.004064760000000001,0.001211653,0.0014300354000000002,0.00051259,-0.0006625636,4.777,0,0
-0.00410953,0.0012756842,0.0008394566,0.000616661,-0.00043116620000000004,4.778,0,0
-0.0029186880000000004,0.0007996880000000002,-0.0001044574,0.000876263,-0.0005499448,4.779,0,0
-0.0008444060000000002,-0.0007402140000000001,-0.0006869742,0.00113963,0.0002112172,4.78,0,0
0.00192743,-0.0026549700000000004,-0.0007561178,0.0011362438000000002,0.0007075202,4.781,0,0
0.004441818,-0.004052704000000001,-0.0011027886,0.0006607296000000001,0.0004326454,4.782,0,0
0.005036982,-0.0048949480000000005,-0.0013729118,0.00030629880000000004,0.0006870160000000001,4.783,0,0
0.0037056480000000006,-0.004765686,-0.0009684745399999999,0.00020385739999999997,0.0008148806000000001,4.784,0,0
0.0014875920000000003,-0.003506059,-0.00048681193999999996,4.140279999999999e-05,0.000135272,4.785,0,0
-0.0014521960000000002,-0.0017943042000000003,-0.00052868994,7.360239999999998e-05,1.3922400000000008e-05,4.786,0,0
-0.004146732,-0.0004531412,-0.0002523077400000001,0.00023780899999999999,0.0006247544000000001,4.787,0,0
-0.0050707519999999996,0.0004304628,0.00041261626,0.0005369122,0.0010044564,4.788,0,0
-0.004501588000000001,0.0009777868,0.0004521142,0.0006575004,0.0014191258,4.789,0,0
-0.004134526,0.0011662498000000001,0.00047644000000000007,0.0006772818000000001,0.0019547124,4.79,0,0
-0.003565534,0.001400885,0.00072444,0.0005068823400000001,0.0022503740000000003,4.791,0,0
-0.0022320728,0.001758828,0.00041371500000000005,1.3873940000000006e-05,0.0021013520000000003,4.792,0,0
-0.0010820528,0.001978722,2.2627800000000014e-05,-0.00026756826000000003,0.0018660880000000001,4.793,0,0
7.696919999999993e-05,0.002200806,2.1454800000000058e-05,-0.00037443446000000005,0.0017955360000000004,4.794,0,0
0.0013097272000000002,0.00250255,2.5760000000002274e-07,-0.00036143066000000006,0.0014576028000000002,4.795,0,0
0.0022835972,0.0026260300000000006,-0.00029797620000000005,-0.00024679320000000005,0.0008228882000000001,4.796,0,0
0.0024046560000000002,0.00252185,-0.0011151742,3.503079999999999e-05,0.0003463776000000001,4.797,0,0
0.00212287,0.002546486,-0.0023322330000000004,0.000212047,-0.00012654720000000003,4.798,0,0
0.001434570632,0.002337632,-0.0036427532000000004,6.051e-06,-0.0005074598000000001,4.799,0,0
0.00011290663200000004,0.0015823356,-0.004869214400000001,-0.00034879820000000006,-0.00022388659999999995,4.8,0,0
-0.000551250368,0.0008828093999999999,-0.005545538000000001,-0.0007700116000000001,5.14974e-05,4.801,0,0
-0.0005752555680000001,0.0003299118,-0.004384037800000001,-0.0009636036,4.0150999999999975e-05,4.802,0,0
-0.0007166495680000001,-0.00018250820000000002,-0.0011374858000000004,-0.0009636158000000002,0.0004972458000000001,4.803,0,0
-0.0007950104,-0.00045625120000000003,0.0016856621999999995,-0.0008755314000000001,0.0012635304000000003,4.804,0,0
0.00011965759999999994,-0.00042764960000000004,0.0024535441999999994,-0.0008265214,0.0013371024,4.805,0,0
0.0006472406000000001,-0.00044056240000000006,0.0019362581999999998,-0.0007324282000000001,0.001305731,4.806,0,0
0.00017434580000000001,-0.0005075268,0.0007690039999999998,-0.0006322586,0.00192478,4.807,0,0
0.0007323718000000001,-0.0006910000000000001,-0.0016969020000000001,-0.0007319082,0.001970604,4.808,0,0
0.001906658,-0.0007175037,-0.005214092,-0.0004800226000000001,0.0012120794000000002,4.809,0,0
0.0020778660000000003,-0.0005079657,-0.0053102919999999994,-8.524600000000057e-06,0.0006089634,4.81,0,0
0.002380042,-0.0005398387,-0.000916516,0.0001697022,-3.6052600000000055e-05,4.811,0,0
0.003675788,-0.0004127701,0.002030488,0.00012056979999999998,-0.0012066186000000002,4.812,0,0
0.0036327959999999998,-0.0002170289,0.003489336,0.0001354208,-0.0021405546,4.813,0,0
0.0023234860000000005,-0.00029817920000000005,0.006661136,5.649999999999998e-05,-0.0025277080000000005,4.814,0,0
0.001984634,-0.0002729984,0.007664824,-0.00015400154000000003,-0.0028748520000000007,4.815,0,0
0.0013605852000000002,-4.653262000000001e-05,0.005213652000000001,-6.0345540000000017e-05,-0.0028530980000000005,4.816,0,0
-0.00027694680000000003,-0.00018542122,0.0034437258000000006,0.00030129525999999997,-0.002608344,4.817,0,0
-0.0006328493999999999,-6.399701999999999e-05,0.0022837778000000006,0.00056124366,-0.00282058,4.818,0,0
-0.00029578179999999995,0.00023254998,0.001184478,0.00056343686,-0.003026296,4.819,0,0
-0.0010092857999999998,5.723738000000002e-05,0.000977596,0.0006857958000000001,-0.0024123228,4.82,0,0
-0.0014514709999999998,-3.069099999999997e-05,0.00083602,0.0008637818,-0.0016308848,4.821,0,0
-0.0009577816000000001,7.092260000000002e-05,0.0011723602,0.0006419758000000001,-0.0011443992000000002,4.822,0,0
-0.0010926338000000002,-0.00013806240000000002,0.0018189902,0.000270713,0.00014780679999999995,4.823,0,0
-0.0013527516,-0.0007142264,0.002100824,0.0002751068,0.0014685808,4.824,0,0
-0.00037752360000000004,-0.0007554978,0.0019353975999999997,0.00046978540000000004,0.0014829478,4.825,0,0
0.00011513639999999998,-0.0006990328000000001,0.0013541826,0.0005515494000000001,0.0013230330000000002,4.826,0,0
-0.000316959,-0.0007623444,0.0007235522,0.0006477186,0.0013513962,4.827,0,0
-0.0001224199048,-0.0004708036000000001,-0.0004454858000000001,0.00079677116,0.0009320260000000001,4.828,0,0
0.0003059842952,6.077580000000003e-05,-0.0020866358,0.0006443005599999999,0.000667366,4.829,0,0
-0.00014491530480000004,0.0005161698000000001,-0.0031623594,9.436559999999967e-06,0.0010415638,4.83,0,0
-0.0002589103048,0.0008337754000000001,-0.0038489624,-0.00031076524000000003,0.0015954986,4.831,0,0
0.0006411356952,0.001246699,-0.004214792,-0.00035630124,0.0018411358,4.832,0,0
0.0008388368000000001,0.001350685,-0.0030127039999999997,-0.00031840540000000004,0.0017315140000000002,4.833,0,0
0.0006726484000000001,0.0011306400000000002,-0.0010676720000000002,4.596899999999998e-05,0.0015654862000000001,4.834,0,0
0.0009288580000000001,0.0007909534,-4.91349999999999e-05,0.0003232436,0.0011422882000000003,4.835,0,0
0.0009697527200000002,0.0006821482000000001,0.0006865170000000001,0.0002567622,0.0004900562,4.836,0,0
0.00033598672000000014,0.0007873026000000001,0.0012958056,0.00018231779999999998,0.00031049020000000003,4.837,0,0
-7.576268000000007e-05,0.0010335286,0.0007727694000000001,0.0002391086,0.0005689802,4.838,0,0
4.8741719999999955e-05,0.0012740772,0.0002386504,-7.687800000000005e-07,0.00045811060000000006,4.839,0,0
-0.00047982228000000005,0.0010546636000000002,0.0004838054,-9.492238000000002e-05,0.00044487060000000003,4.84,0,0
-0.0009517140000000001,0.00088083962,0.0007214096,0.00017224082,0.0005271824,4.841,0,0
-0.0008281918,0.00066589842,0.000998147,0.00039663122000000003,-0.0003366096,4.842,0,0
-0.0008610578,3.3697019999999974e-05,0.0013385972,0.00031380544,-0.0011689916,4.843,0,0
-0.0011520203999999998,-0.00038118198,0.0011782677,0.00021906541999999995,-0.0014675322000000002,4.844,0,0
-0.0008638815999999999,-0.00033653858,0.0004996417,0.00010385041999999998,-0.0018055242000000003,4.845,0,0
-0.00032111,-0.00046314900000000005,-0.00027311450000000004,-0.00027567578,-0.0020684730000000004,4.846,0,0
-0.0002604552,-0.0009341918000000001,-0.0013017945000000002,-0.00045660626,-0.0013059598000000003,4.847,0,0
0.0002895268000000001,-0.0012671024000000001,-0.0021757605000000003,-0.00047862888,-0.0004929718000000001,4.848,0,0
0.0007404814,-0.0013872583999999999,-0.002760558,-0.00033909428,-0.0004695658000000001,4.849,0,0
0.00013483059999999994,-0.0013552964000000001,-0.003143894,-0.00018559628000000002,3.9115399999999995e-05,4.85,0,0
-1.1121599999999978e-05,-0.0011470528000000002,-0.0032690400000000004,-5.184788000000001e-05,0.0005375644000000001,4.851,0,0
0.0007176394000000001,-0.0004446448,-0.003226544,0.000122278,0.0007048452,4.852,0,0
0.0006879894000000001,0.0005394752,-0.00288798,0.000125458,0.0007957912,4.853,0,0
0.0005299634000000002,0.00101902,-0.0024950022,3.5304e-05,0.0011634102000000002,4.854,0,0
0.0017244414000000003,0.0011723894000000004,-0.0020512502,0.00010591000000000002,0.001428075,4.855,0,0
0.0024163240000000005,0.001128527,-0.0011528676,3.2647400000000015e-05,0.0015056870000000001,4.856,0,0
0.0015157560000000005,0.000327763,-0.0001355536000000001,-0.00030871,0.001766095,4.857,0,0
0.0006692660000000001,-0.0006874729999999999,0.00015609339999999994,-0.000418671,0.0018056990000000002,4.858,0,0
8.231800000000028e-05,-0.0010584138,0.0006938076,-0.0004898856,0.0016095842,4.859,0,0
-0.0012047860000000002,-0.0016169944,0.0015439476,-0.0004059716000000001,0.0010506472,4.86,0,0
-0.0026043560000000004,-0.002241676,0.001695895,-0.00013016560000000005,0.0005928682,4.861,0,0
-0.002768402,-0.0019141226000000003,0.001890025,-3.838900000000004e-05,-0.00017525780000000003,4.862,0,0
-0.002663798,-0.0015164698000000002,0.002467262,-4.439800000000003e-05,-0.0010566618,4.863,0,0
-0.00310676,-0.0014901818000000002,0.002567806,4.978939999999994e-05,-0.001367588,4.864,0,0
-0.0026640103999999998,-0.0009015146,0.002286236,0.00019725739999999997,-0.001790137,4.865,0,0
-0.0017028622,-0.0001688484,0.00215561,4.873e-05,-0.0024279740000000003,4.866,0,0
-0.0013038403999999998,-0.0001888996,0.0016154008000000002,-0.00027527580000000007,-0.00271297,4.867,0,0
-0.00018212239999999998,-0.0003753504,0.0008176908000000002,-0.0005073058,-0.002723054,4.868,0,0
0.0015025096000000002,2.919399999999991e-06,5.988799999999959e-06,-0.0011220878000000002,-0.002878102,4.869,0,0
0.0018634194,0.0004252082,-0.0004684442000000001,-0.0017573858,-0.0024007696000000003,4.87,0,0
0.0018564674000000002,0.000511342,-0.0006101774000000001,-0.0014345940000000002,-0.0015210258,4.871,0,0
0.0025237196,0.0008882388,-0.00064676648,-0.0010591204000000001,-0.00095374578,4.872,0,0
0.0020477514,0.0012111338,-0.00017608648000000003,-0.0009447624000000002,-0.00040335991,4.873,0,0
0.0006015454,0.000766608,0.0005320455200000001,-3.29544e-05,-9.402831000000002e-05,4.874,0,0
-3.383999999999988e-05,5.1926000000000045e-05,0.00126382252,0.0007397216,-0.00031346271000000006,4.875,0,0
-0.0006590582,-0.0006415240000000001,0.0015728837200000001,0.00045581740000000004,-0.00044870151000000005,4.876,0,0
-0.0018252142,-0.0013499990000000002,0.0015537520000000003,0.0003211436,-0.0003519047300000001,4.877,0,0
-0.002496676,-0.0017241780000000003,0.0015301140000000002,0.0005961614,-0.00033381350000000003,4.878,0,0
-0.0024433500000000004,-0.00170075,0.0014557460000000002,0.00037145840000000005,-7.394150000000002e-05,4.879,0,0
-0.0025073860000000003,-0.0015994664,0.001140388,-8.420380000000001e-05,0.0003274587,4.88,0,0
-0.00237262,-0.0015177764000000001,0.0008822366000000001,-0.0003173364,0.0007566857,4.881,0,0
-0.001485574,-0.0011907428000000001,0.0008212906,-0.00021618699999999998,0.0009895969,4.882,0,0
-0.0007526199999999999,-0.0007363545999999999,0.0002569726,0.00010847120000000003,0.0010476148000000002,4.883,0,0
-0.00015163280000000002,-0.0004444394,-0.0005200954,0.00038555020000000003,0.0013408332000000001,4.884,0,0
0.0013983812,6.670500000000007e-05,-0.0014350874,0.0006436616,0.0014012859999999999,4.885,0,0
0.0030127632,0.0012419549999999999,-0.002234986,0.0008170755,0.0008498004000000001,4.886,0,0
0.0033301172000000006,0.0022525334000000003,-0.0023312821999999997,0.0012502003,0.0006386512000000001,4.887,0,0
0.0035197932000000003,0.0027423672,-0.0019576256,0.0016390423000000002,0.0006818674,4.888,0,0
0.003952564,0.003198486,-0.0013842004,0.0015958823000000002,0.0004592244,4.889,0,0
0.0030407046000000006,0.002965592,-0.0004897324,0.0015873371000000003,0.0006105214000000001,4.89,0,0
0.0013227266,0.0022263986000000003,0.00043652960000000005,0.0016371828000000003,0.0006320838,4.891,0,0
0.0003772165999999999,0.0017469686,0.0005423756000000001,0.0013950928000000002,0.00033043199999999997,4.892,0,0
-0.0007051474000000001,0.0010318248,0.0004306786,0.00064834956,0.00026699540000000004,4.893,0,0
-0.0022093514,0.00013055279999999993,0.0006930734000000001,0.00022505196,-0.00014290159999999998,4.894,0,0
-0.0025585020000000003,-0.00024058720000000002,0.0002377374,0.00021320236,-0.0009708476,4.895,0,0
-0.0021891232,-0.00036602480000000006,-0.00044474660000000003,7.094359999999995e-06,-0.0011713884,4.896,0,0
-0.0024665952,-0.0006120370000000001,-0.0003464414,-0.00030261264,-0.001064545,4.897,0,0
-0.0023516652,-0.0005160151999999999,-0.0005606610000000001,-0.0005603054,-0.0010771136,4.898,0,0
-0.0018357572000000002,-0.0001554272,-0.0009960982,-0.0006542978,-0.0005766756,4.899,0,0
-0.0022174511999999997,-6.97874e-05,-0.0009124412000000001,-0.0010290502,0.00028008640000000006,4.9,0,0
-0.0023447024000000003,-0.0001661884,-0.0009222032000000001,-0.001333465,0.0007232582,4.901,0,0
-0.0008578484000000002,-0.0001071902,-0.0009727522000000001,-0.0013862079999999999,0.0008778892,4.902,0,0
0.0018272236000000002,7.620980000000002e-05,-0.0008574170000000001,-0.001417636,0.0011315092,4.903,0,0
0.0042292396,0.00021592500000000003,-0.0009359804000000001,-0.0012877222000000001,0.0011113212000000003,4.904,0,0
0.0059156576,0.0005622212000000001,-0.0006140062000000001,-0.0010758408,0.0009501584000000001,4.905,0,0
0.006519074000000001,0.0009216132,0.00043931380000000004,-0.0007513347999999999,0.0010454706000000002,4.906,0,0
0.00462887,0.0006107772,0.0014599298,-0.00034906020000000006,0.0011321788,4.907,0,0
0.0013453760000000003,-0.00010607680000000003,0.0013747205999999998,0.00021892180000000004,0.0009863318,4.908,0,0
-0.0011651979999999999,-0.000546102,0.0006530831999999999,0.0002485330000000001,0.0007531938,4.909,0,0
-0.00346252,-0.0010735420000000002,0.0007153420000000001,3.705960000000003e-05,0.0005075218000000001,4.91,0,0
-0.005264504000000001,-0.001581816,0.00036258799999999995,-9.82919999999995e-06,0.00041902860000000004,4.911,0,0
-0.004786520000000001,-0.0008071180000000001,-0.0007672432,-0.00041299779999999996,0.00028902820000000005,4.912,0,0
-0.0036446784600000005,0.0004279719999999999,-0.0008108791999999999,-0.0007209966,-9.075080000000001e-05,4.913,0,0
-0.0032214102600000003,0.001008228,-0.00044223720000000007,-0.000659524236,-0.0003944708,4.914,0,0
-0.0014132222600000003,0.001734694,-0.0011065192,-0.000277200036,-0.000886474,4.915,0,0
0.00087107974,0.002433866,-0.0016450712000000002,-9.129281600000001e-05,-0.0017738528,4.916,0,0
0.00188194974,0.002208812,-0.0015419904000000002,-2.3188216e-05,-0.002207752,4.917,0,0
0.0034324202000000003,0.001475844,-0.0012093656000000002,-0.000113203216,-0.002234714,4.918,0,0
0.005147636000000001,0.00041558200000000017,-0.000568797,-0.00030515718,-0.002272678,4.919,0,0
0.004816044,-0.001242282,0.0004817750000000001,-0.00022944538000000002,-0.0018762094000000003,4.92,0,0
0.0039695058,-0.002683524,0.0019208010000000002,-6.777799999999995e-06,-0.0011986960000000002,4.921,0,0
0.0038140958000000003,-0.003295346,0.0028710094,0.000221556,-0.0007360058,4.922,0,0
0.0018030658000000005,-0.0030998679999999995,0.0035723626000000006,0.0003846566,-0.00037426219999999995,4.923,0,0
-0.0009915782000000002,-0.0024681184,0.004178964,0.0010510291999999998,0.0001571044,4.924,0,0
-0.0020049722000000003,-0.0013999918,0.003315864000000001,0.0015078772,0.0003639304,4.925,0,0
-0.0026720280000000003,-0.00020403960000000003,0.0009669600000000009,0.0014708746,0.00040118411999999997,4.926,0,0
-0.003873904,-7.791940000000003e-05,-0.001200432,0.0016515222000000002,0.00056186392,4.927,0,0
-0.004059252,-0.0006037954,-0.00306617,0.0019090494,0.00056490332,4.928,0,0
-0.003125742,-0.000628649,-0.00561342,0.0014279213999999999,0.00026533671999999996,4.929,0,0
-0.002801834,-0.00047565760000000003,-0.006370634,0.000678518,0.0004456101200000001,4.93,0,0
-0.00267209,-0.00037783380000000006,-0.003515748,0.0005584674,0.000984649,4.931,0,0
-0.0016969022,9.031999999999991e-05,-0.0008392079999999995,0.00011052840000000006,0.0008434408,4.932,0,0
-0.0007694101999999998,0.0006886300000000001,0.00016100900000000042,-0.0004468736,0.0010008358,4.933,0,0
-0.0003084143999999999,0.001074064,0.002195769,-0.0006567576,0.0014541778,4.934,0,0
0.0008028036000000001,0.001383894,0.0032451120000000005,-0.0011371302000000002,0.0013650042,4.935,0,0
0.0020430076000000005,0.0016598420000000001,0.00125719,-0.0016242750000000001,0.0011845062,4.936,0,0
0.0022809438,0.0015309840000000002,0.000880958,-0.0016588560000000002,0.0013470104,4.937,0,0
0.0022647058,0.001236546,0.002926573,-0.0015570620000000001,0.0011555282,4.938,0,0
0.0022284823999999996,0.0011871306000000002,0.0037139190000000004,-0.0014162144,0.0008768971999999999,4.939,0,0
0.0011436824000000004,0.0009645042,0.004088494000000001,-0.0007446935999999999,0.0009378314000000001,4.94,0,0
-0.00046837160000000013,0.00033956800000000005,0.004695118,8.023840000000008e-05,0.0006821510000000001,4.941,0,0
-0.0014356596000000001,-0.00015808000000000006,0.0036615656,0.0002661814000000001,0.000198473,4.942,0,0
-0.0024172196,-0.000668362,0.0018034932000000003,0.0003098384,1.0878600000000015e-05,4.943,0,0
-0.003249276,-0.0016825186000000002,0.0006580252,0.0004171644,0.00018668360000000003,4.944,0,0
-0.0027291700000000004,-0.0025739002000000006,-0.00020546080000000003,0.0003587318,-0.00010820380000000001,4.945,0,0
-0.0017912990000000003,-0.0029971960000000006,-0.000466495,9.06388e-05,-0.0006613594,4.946,0,0
-0.001428847,-0.003047274000000001,-0.00029775419999999986,0.0002724206,-0.0007858413999999999,4.947,0,0
-0.0003502170000000001,-0.0027263032000000007,-0.0009247058,0.0009178996,-0.0011197428,4.948,0,0
0.001265865,-0.0019696858,-0.0017288038,0.0009694304000000001,-0.0020158568,4.949,0,0
0.001940443,-0.0008929658000000002,-0.0020948038,0.0007998618000000001,-0.002311792,4.95,0,0
0.0027352839999999997,0.00016808819999999995,-0.0028061696000000005,0.0008484330000000001,-0.0018575912799999998,4.951,0,0
0.004474154,0.0012941602,-0.0037300560000000003,0.0008742498000000002,-0.0014893030799999999,4.952,0,0
0.005213752,0.0024472494,-0.0039913380000000005,0.0005363198,-0.0010907578799999999,4.953,0,0
0.004509432,0.0032588879999999997,-0.003760404,0.0005593372,-0.00026040088,4.954,0,0
0.0039324906,0.0036643960000000003,-0.003675664,0.0006765440800000001,0.00032715872,4.955,0,0
0.0030203126,0.0038849720000000004,-0.0035404599999999996,0.00019671588000000004,0.00039196240000000007,4.956,0,0
0.0006311025999999999,0.00345977,-0.0026248894,-0.00042570572,0.0007283002000000002,4.957,0,0
-0.0015018734,0.0025742658000000003,-0.0014633833999999999,-0.0009369617200000001,0.0010810470000000001,4.958,0,0
-0.0023293614000000004,0.0020176774,-0.0008948884000000003,-0.00108630632,0.001252006,4.959,0,0
-0.0035471160000000003,0.0008989333999999999,-0.0003588664000000001,-0.0010094008,0.0015773404000000001,4.96,0,0
-0.004444308,-0.0006783086,0.0002185,-0.0007593570000000001,0.0017845320000000001,4.961,0,0
-0.0037134204000000004,-0.0016594246,-2.7079800000000066e-05,-0.00038125119999999995,0.0015709528,4.962,0,0
-0.0029360904000000003,-0.0023686844,2.57182e-05,-7.2977999999999964e-06,0.0016046888,4.963,0,0
-0.0027622144,-0.002840746,0.0014261852,-5.2531399999999996e-05,0.0017241328,4.964,0,0
-0.0014395024,-0.002398812,0.0026578252,-0.00048622140000000003,0.0012157006799999998,4.965,0,0
0.0004433095999999999,-0.001272166,0.0029707108,-0.0005241196,0.0006743786799999999,4.966,0,0
0.001401248,-0.000636358,0.0029066540000000003,-0.00019544340000000003,0.00042920347999999994,4.967,0,0
0.0026609520000000003,0.00031269000000000007,0.002484714,-0.00033480399999999996,-0.0003016145200000001,4.968,0,0
0.00434201,0.001991278,0.0010862312,-0.00038988120000000003,-0.00130593852,4.969,0,0
0.0048901759999999996,0.0030490280000000005,-0.0002221368,-0.00011959040000000003,-0.0016169144000000002,4.97,0,0
0.004396798,0.003448764000000001,-0.0006207958,-0.0001426118,-0.00155159,4.971,0,0
0.003915942,0.004041320000000001,-0.0010287378000000001,-9.875379999999998e-05,-0.0016569876,4.972,0,0
0.0027046100000000005,0.004243242,-0.0007078698,0.00028283340000000005,-0.0014042183999999997,4.973,0,0
0.000554538,0.0027428232,0.00038718300000000015,0.0006901610000000001,-0.0006413904,4.974,0,0
-0.001216986,0.0009930231999999998,0.0010964350000000002,0.0006697544,-8.57524e-05,4.975,0,0
-0.002689692,-0.0003243028,0.0016284440000000002,0.00043971219999999994,0.0003767172,4.976,0,0
-0.004433904000000001,-0.0018609068000000001,0.00255373,0.00010902440000000002,0.0008638071999999999,4.977,0,0
-0.005465182,-0.0032564048,0.0027328480000000004,-0.00018138572000000005,0.0010837812,4.978,0,0
-0.004946642,-0.003910626,0.0018582462,-0.0003696085200000001,0.0008425682000000001,4.979,0,0
-0.004277796,-0.003906622,0.0014583518000000001,-0.0004476913200000001,0.00037706020000000015,4.98,0,0
-0.003677216,-0.00381791,0.0009774158,-0.00020454892000000002,0.00013090360000000002,4.981,0,0
-0.0015389380000000005,-0.0031904200000000002,9.482380000000001e-05,0.00017592488000000003,-0.00011209800000000001,4.982,0,0
0.00061015,-0.0024760956,-0.0006930622,0.000389163,-0.0003022846,4.983,0,0
0.001569796,-0.0016044642000000002,-0.0009583764000000001,0.00031626476,-0.0002872026,4.984,0,0
0.0032124280000000002,-0.0005704381999999999,-0.0010039860000000001,0.00031340096,-0.00020390880000000002,4.985,0,0
0.00517099,0.00022018980000000009,-0.001382376,0.00015235455999999998,-0.00037674320000000004,4.986,0,0
0.005851324,0.0009361698,-0.001410744,-0.00041898344000000003,-0.0006369856000000001,4.987,0,0
0.006070216,0.0014100794,-0.001458544,-0.0009485614400000001,-0.0008074162000000001,4.988,0,0
0.006246656000000001,0.0014313346,-0.001563634,-0.0012029904,-0.0010209112000000003,4.989,0,0
0.004771014800000001,0.0008525286000000002,-0.0016554424,-0.0008670850000000001,-0.0009667028000000001,4.99,0,0
0.0024540928000000004,0.0005236122,-0.001419944,-0.00023449900000000005,-0.0008319998000000002,4.991,0,0
0.0006352748000000002,0.00032593020000000006,-0.0010327146,2.0559800000000033e-05,-0.0006227530000000001,4.992,0,0
-0.0017667772000000003,-8.140080000000003e-05,-0.0007007906000000001,0.00016688860000000003,-0.00019784880000000004,4.993,0,0
-0.0042352632000000005,-0.00032235300000000005,0.00017981140000000002,0.0007677766000000002,0.0004267492,4.994,0,0
-0.005278792,-0.00019822880000000006,0.0009241018,0.0012291356000000003,0.000927081,4.995,0,0
-0.005551162,-0.0004211284,0.0014390714,0.0009778696000000001,0.001195991,4.996,0,0
-0.00634441,-0.0012363824,0.0018714780000000002,0.0010115702000000001,0.0015650861999999999,4.997,0,0
-0.006145726,-0.0013582374,0.0019016921999999998,0.0012874164000000001,0.0016784719999999999,4.998,0,0
-0.004462586,-0.0008321938,0.0011651271999999998,0.0008878590000000002,0.0010960077999999998,4.999,0,0
-0.0031371118,-0.0002681259999999998,0.00037829819999999996,0.0003169622000000001,0.0001954678,5.0,0,0
-0.0016646057999999998,0.00044983999999999996,-5.907739999999999e-05,0.00023708060000000004,-0.0003311481999999999,5.001,0,0
0.0004128902000000002,0.0016802700000000002,-0.0007424594,8.27262e-05,-0.0007615973999999998,5.002,0,0
0.0021241362,0.002457392,-0.0013253956000000002,-0.00020446220000000002,-0.0010584708,5.003,0,0
0.0031256622,0.002063163,-0.0016246386,-0.0003175612,-0.0006135206,5.004,0,0
0.004112172,0.0015153332000000003,-0.0018209236,-0.00047258200000000004,1.4514999999999992e-05,5.005,0,0
0.004577764,0.0009511780000000001,-0.002161128,-0.0005227050400000001,0.0003663248,5.006,0,0
0.0035361053999999996,-0.00017817599999999994,-0.002018464,-0.00030026884,0.000684336,5.007,0,0
0.0023297094000000003,-0.001158348,-0.001169554,0.00020985656000000003,0.0006005178,5.008,0,0
0.001169878,-0.001508727,-0.00014225999999999996,0.00066281896,0.0003813676,5.009,0,0
-0.0010588400000000001,-0.0021706432,0.000962804,0.0009452397600000001,0.0003462898,5.01,0,0
-0.003280964,-0.002632448,0.0019523480000000002,0.0008012059999999999,-6.027000000000007e-05,5.011,0,0
-0.0041690794,-0.00251584,0.0029287840000000002,0.00021070279999999995,-0.0006390020000000001,5.012,0,0
-0.0049660574,-0.0025680300000000002,0.0027345216000000004,-0.0003705632000000001,-0.0005743018000000001,5.013,0,0
-0.006130012000000001,-0.0023253346,0.0014209396000000002,-0.0008799912,-0.0004359040000000002,5.014,0,0
-0.005658256,-0.0013685990000000003,0.0004287496,-0.0012665804000000001,-0.00046512240000000013,5.015,0,0
-0.004186895600000001,-0.00041468699999999995,-0.00032710400000000004,-0.001415452,0.00011914160000000003,5.016,0,0
-0.0028132076000000005,5.060840000000011e-05,-0.0012397780000000002,-0.0011593,0.0006622082,5.017,0,0
-0.0001350275999999998,0.0004824704,-0.0016211676000000002,-0.0007699394,0.0006452676,5.018,0,0
0.0029775164000000005,0.0010902910000000002,-0.0013497196,-0.000635182,0.0003745084,5.019,0,0
0.0046327004,0.0015555994,-0.0022556276,-0.0006379000000000001,0.00015221300000000006,5.02,0,0
0.005497282,0.0016060734,-0.004120896000000001,-0.00048686240000000004,-0.00015532139999999996,5.021,0,0
0.006333016,0.001916662,-0.005818052000000001,-0.00026106257999999996,-0.0004331198,5.022,0,0
0.005729784000000001,0.002244292,-0.006395996,-0.00044792318000000007,-0.00042932859999999997,5.023,0,0
0.0036119840000000004,0.001523994,-0.00638567,-0.00058256658,-0.0003258852,5.024,0,0
0.0018015560000000002,0.0005498520000000002,-0.0050726638,-0.00034244418000000006,-0.0003750258,5.025,0,0
-4.6193999999999944e-05,-0.00020831200000000005,-0.00032002379999999985,-0.00021726178,-0.0006416594000000001,5.026,0,0
-0.0028233780000000005,-0.001299072,0.0046332022,-6.453079999999998e-05,-0.0008877436000000001,5.027,0,0
-0.005344716000000001,-0.002178382,0.006811912200000001,0.00016844720000000002,-0.0011000448,5.028,0,0
-0.006018426000000001,-0.0019646886000000002,0.0077703702000000005,0.0001949198,-0.0015468646000000002,5.029,0,0
-0.0059051880000000005,-0.0013172746000000002,0.00868991,-7.368859999999999e-05,-0.0017802080000000001,5.03,0,0
-0.005573446000000001,-0.0008792336000000001,0.007314018,-0.00013538500000000002,-0.0014342382,5.031,0,0
-0.003174202,4.0200399999999975e-05,0.004758984000000001,-0.00027774200000000004,-0.0013443662,5.032,0,0
-0.00048563399999999933,0.0012873804,0.003770086,-0.000289739,-0.0011616618,5.033,0,0
0.000349282,0.001737337,0.0030535880000000003,0.0005164844000000001,-0.0004290757999999999,5.034,0,0
0.0013810900000000002,0.001739655,0.001702064,0.0011984724,-0.0002206038,5.035,0,0
0.002929554,0.002108034,0.000624388,0.0013545296000000001,-0.0004914676,5.036,0,0
0.0028609679999999998,0.0022187400000000003,0.00029252620000000005,0.00133949086,-2.1085600000000048e-05,5.037,0,0
0.003394686,0.001914534,0.00016529619999999998,0.0009643326600000002,0.0005587000000000001,5.038,0,0
0.006482236000000001,0.001747276,0.0006884262000000001,9.115666000000008e-05,0.000703442,5.039,0,0
0.007973302000000002,0.001177656,0.0012961242000000001,-0.00042284434,0.00130482,5.04,0,0
0.0071861500000000005,0.00020003800000000004,0.0013095402,-0.00024121914000000002,0.001704363,5.041,0,0
0.0064503650000000004,-0.0005825880000000001,0.0011634918,0.00022415779999999995,0.0012714346,5.042,0,0
0.0040728430000000005,-0.0014005460000000001,0.000799147,0.000819107,0.0007348548,5.043,0,0
-0.0002064310000000004,-0.00211056,0.00016594899999999998,0.001591425,0.00017025420000000007,5.044,0,0
-0.0033231050000000002,-0.002119464,-0.0005785110000000001,0.0021366320000000003,-0.0006343718,5.045,0,0
-0.004508475,-0.0015730342,-0.001162505,0.0017709384,-0.0011745848,5.046,0,0
-0.005151510000000001,-0.0012989522,-0.0018684468,0.0010052684,-0.0012743364,5.047,0,0
-0.004608368000000001,-0.0007695610000000001,-0.00256681,0.0002114483999999999,-0.0012216486,5.048,0,0
-0.002678392000000001,0.000268101,-0.0029684980000000004,-0.0009624256,-0.0011843146,5.049,0,0
-0.001198922,0.001053917,-0.0033005580000000003,-0.0018206916000000001,-0.0008818258,5.05,0,0
-0.0001431174,0.0016947171999999997,-0.0036955320000000005,-0.0018135076000000002,-0.0002519238,5.051,0,0
0.0015371386000000002,0.0024719352,-0.003705122000000001,-0.0016487418000000003,9.79592e-05,5.052,0,0
0.0029619006,0.002883126,-0.003205528,-0.0012450629400000003,0.0003369872,5.053,0,0
0.0028060826000000003,0.0025605000000000003,-0.0025333942000000005,-0.0006457829400000001,0.0008641078,5.054,0,0
0.0024273949999999997,0.0021872870000000004,-0.0017838522000000001,-0.00025930152,0.0011382354,5.055,0,0
0.002145822,0.0015613006,-0.001107221,-8.348120000000017e-06,0.0010301352,5.056,0,0
0.0003431300000000001,0.0004316066000000001,-0.00019612300000000003,-4.341552e-05,0.0014229782000000002,5.057,0,0
-0.001704508,-0.0007155893999999999,0.0002932354,-7.457980000000001e-06,0.0018957142000000002,5.058,0,0
-0.002689188,-0.0016100234,0.0001841356,0.00028048802,0.0015391520000000002,5.059,0,0
-0.0036492224,-0.0026350784000000005,0.0001372188,0.00020769760000000003,0.0012214058,5.06,0,0
-0.00480096,-0.0034278560000000004,-3.0750400000000016e-05,1.8911599999999997e-05,0.0012665062000000002,5.061,0,0
-0.004490508000000001,-0.003309006,-0.0005358564000000001,0.0003327432,0.0009166712,5.062,0,0
-0.0034292578,-0.0028268174000000003,-0.0008843488,0.0003206712,4.9706000000000056e-05,5.063,0,0
-0.0027482543999999996,-0.0020399394000000003,-0.0012404348000000002,-3.4867800000000005e-05,-0.00036938979999999997,5.064,0,0
-0.0007696064000000002,-0.0005284073999999998,-0.00245744,-0.00020644080000000004,-0.000528734,5.065,0,0
0.0017940556000000001,0.0013072546,-0.003611258,-0.0006667306000000001,-0.0011364641999999999,5.066,0,0
0.0031545116000000002,0.0025100226,-0.004089994,-0.0009300318000000002,-0.0017297372,5.067,0,0
0.004514837400000001,0.0034110440000000002,-0.004465762,-0.0003464382000000002,-0.002027768,5.068,0,0
0.006356322000000001,0.004227382,-0.0039029972000000006,0.00012357079999999988,-0.0017654686,5.069,0,0
0.006915128000000001,0.004162178000000001,-0.0006351712,0.0004863441999999999,-0.0012987002,5.07,0,0
0.006247516,0.0031865984000000003,0.0029655448,0.0011624043999999998,-0.0007369471999999999,5.071,0,0
0.005744792,0.0024418844,0.0043435928000000006,0.0011534186,-8.841980000000001e-05,5.072,0,0
0.0044347696,0.0018401615999999999,0.0052132768000000005,0.0005717572000000001,0.0003692055,5.073,0,0
0.0014217636000000001,0.0006098296000000001,0.005524932,0.0003653492,0.0006960121,5.074,0,0
-0.0016031804,-0.00020045639999999998,0.003974706000000001,0.0004419754000000001,0.0007804437,5.075,0,0
-0.0037565584000000003,-0.000339246,0.002251068,0.00027027052000000006,0.0006892317,5.076,0,0
-0.0058538084,-0.000785422,0.002184844,0.00048424652,0.0009177443000000001,5.077,0,0
-0.007496174,-0.0013508152,0.002789558,0.0006703219200000001,0.001508395,5.078,0,0
-0.0072610800000000005,-0.0014532872000000002,0.0028357979999999996,0.00040342792,0.0015258350000000001,5.079,0,0
-0.006021596000000001,-0.0017774152000000001,0.0024228878,0.00014027772,0.0012953503599999999,5.08,0,0
-0.004718828,-0.002476264,0.0019246154,-0.00012593959999999998,0.00128164716,5.081,0,0
-0.002278356,-0.00333394,0.0008152173999999999,-0.0006080266,0.0008833671599999999,5.082,0,0
9.31380000000001e-05,-0.004403326000000001,-0.00022322520000000006,-0.0012611305999999998,0.00038508756000000003,5.083,0,0
0.001256488,-0.00501925,-0.0004244588,-0.0012110769999999999,0.00020237796000000002,5.084,0,0
0.002851634,-0.0045073842,-0.0007927386000000001,-0.0011892246,8.941799999999999e-05,5.085,0,0
0.004385202,-0.0034079362000000004,-0.0007796654,-0.0013677945999999999,-0.00018783580000000002,5.086,0,0
0.004155244000000001,-0.0020421266,-0.0003721938,-0.0011210708,-0.0002854526,5.087,0,0
0.0038132620000000004,-1.8016600000000027e-05,-0.0007146132,-0.0008244584,-0.0002912554,5.088,0,0
0.0038793280000000005,0.0014687754,-0.000855406,-0.001050188,-0.0004977262,5.089,0,0
0.001861572,0.0016928951999999999,-0.0002523739999999999,-0.0012795518000000001,-0.0002344804,5.09,0,0
-0.001039682,0.0011093292,-2.647879999999992e-05,-0.0008284901,0.00046166560000000003,5.091,0,0
-0.0023674660000000004,0.0003408195999999999,-8.458859999999993e-05,-0.0005079565,0.0004738786,5.092,0,0
-0.003697536,-0.0005710264000000001,4.6181399999999984e-05,-8.395689999999998e-05,4.2009000000000024e-05,5.093,0,0
-0.005502460000000001,-0.0014436044000000002,5.163280000000007e-05,0.0008122491000000002,-4.355660000000003e-05,5.094,0,0
-0.005504018,-0.001805277,-0.0001515022,0.0015813951000000002,-0.0006507918,5.095,0,0
-0.003910623,-0.001851149,-0.0003561386,0.0019123534000000005,-0.0014915998,5.096,0,0
-0.0030186332000000002,-0.0017564249999999998,-8.194439999999997e-05,0.0018442264000000002,-0.001388132,5.097,0,0
-0.0021437709000000004,-0.001586175,-2.27704e-05,0.00155478036,-0.0010365461200000001,5.098,0,0
0.00017926310000000007,-0.0007590030000000001,-0.0006452234,0.00109261156,-0.00092251452,5.099,0,0
0.0019265771,0.00021237999999999997,-0.0010130904,0.00069930236,-0.00057042732,5.1,0,0
0.0027156521000000003,0.001364638,-0.001364814,0.00048490216000000007,-0.00015420732,5.101,0,0
0.004241858300000001,0.003393012,-0.001683956,0.00025965956000000007,-0.00014799862,5.102,0,0
0.005417754,0.005205426000000001,-0.0015389248,1.2019600000000064e-05,-0.00019981030000000002,5.103,0,0
0.0048989,0.005816464,-0.0014485868,-0.00027522639999999997,0.00011846610000000001,5.104,0,0
0.004251670000000001,0.00583267,-0.0015384068,-0.00047058000000000007,0.0006609029,5.105,0,0
0.0038441660000000004,0.0057678239999999995,-0.0015753328,-0.000629641,0.0012913909000000002,5.106,0,0
0.0019456580000000003,0.004532206,-0.0014503858,-0.0006815104,0.0020449022,5.107,0,0
-7.398000000000007e-05,0.002557106,-0.0010602110000000001,-0.00017971639999999999,0.0026769820000000005,5.108,0,0
-0.001126176,0.00104572,-0.000581003,0.0004762104,0.0029483860000000003,5.109,0,0
-0.002571608,-0.00036648000000000003,-0.00027366959999999997,0.0006311854,0.0030260040000000005,5.11,0,0
-0.004029838,-0.001854366,-5.301899999999998e-05,0.0006957777999999999,0.0025143824000000005,5.111,0,0
-0.004324184,-0.0025449660000000005,-3.2019399999999994e-05,0.0010597516,0.0017160806,5.112,0,0
-0.003970820000000001,-0.0026968020000000007,-0.00012241080000000004,0.0010513636,0.0011847808000000004,5.113,0,0
-0.003484257,-0.0027380340000000003,2.53408e-05,0.0008982736,0.0006919421,5.114,0,0
-0.0020095789999999996,-0.0020618786000000003,0.00023908660000000002,0.0012486414000000001,8.43595e-05,5.115,0,0
-6.593100000000008e-05,-0.0012573544000000002,0.00039235380000000007,0.001230855,-0.0007425909000000001,5.116,0,0
0.0012374310000000002,-0.0005617464,0.0005644434,0.0005969047999999999,-0.0010255891,5.117,0,0
0.0027303830000000003,0.0003990336000000002,0.000602088,-0.00023034119999999991,-0.0011816525,5.118,0,0
0.004536287999999999,0.0013648036000000001,1.2103999999999978e-06,-0.0009997112,-0.0017159858000000002,5.119,0,0
0.005326582,0.0015144462000000003,-0.0014973308000000001,-0.0017053031999999999,-0.0020580992,5.12,0,0
0.005186472,0.0013468040000000005,-0.0030039886,-0.002409184,-0.0017631472000000001,5.121,0,0
0.005230152,0.0012082778000000003,-0.0037203828,-0.00252482,-0.0013537888000000001,5.122,0,0
0.004599996000000001,0.0003079958,-0.004222952,-0.0021675180000000002,-0.0011005746,5.123,0,0
0.002335388,-0.0008598862000000001,-0.0035340300000000005,-0.00177889,-2.528460000000008e-05,5.124,0,0
0.000397,-0.0015213862,5.913799999999981e-05,-0.0014462918,0.0008368014000000001,5.125,0,0
-0.0008965820000000002,-0.0017000766,0.004009846,-0.0006034976000000001,0.0009971954000000001,5.126,0,0
-0.003076138,-0.0021265464,0.005530122,0.00038150240000000006,0.0011159310000000001,5.127,0,0
-0.004897396,-0.0021922744,0.0059631834000000005,0.0007800394000000001,0.0008551458,5.128,0,0
-0.005293034,-0.0018617783999999998,0.005457801400000001,0.0008242218400000001,-0.00012269419999999997,5.129,0,0
-0.005840126000000001,-0.0018384404,0.0031238871999999997,0.0006944230400000001,-0.0005974048,5.13,0,0
-0.006329144000000001,-0.0018089912,0.0010796392,0.00057713104,-0.0006016287999999999,5.131,0,0
-0.00514864,-0.0013337298000000001,0.0009796512,0.00019245024000000003,-0.0014612828000000002,5.132,0,0
-0.004023114,-0.0006369298000000001,0.0011101458000000002,-8.702476000000001e-05,-0.0020612666,5.133,0,0
-0.0032717300000000005,-0.0001133020000000001,0.00033265180000000005,5.72999999999996e-07,-0.0022751926000000003,5.134,0,0
-0.001149522,0.001050462,-0.00047630799999999994,4.0724200000000006e-05,-0.0028423780000000004,5.135,0,0
0.0011253740000000002,0.0020419492,-0.001486416,-0.000209338,-0.0031941320000000006,5.136,0,0
0.002430638,0.0021312477999999996,-0.0024036922000000003,-0.00035536480000000005,-0.0029048960000000006,5.137,0,0
0.0035616480000000006,0.0022485738000000005,-0.0014980402,-0.00016497,-0.0022429514000000005,5.138,0,0
0.004605848,0.0025369780000000005,0.0013530017999999998,-5.0288200000000045e-05,-0.0013862974,5.139,0,0
0.004323416000000001,0.002095894,0.0036623598000000003,5.374100000000005e-06,-0.00021662139999999999,5.14,0,0
0.0026838060000000004,0.0010393140000000002,0.0047212498000000006,0.0002004881,0.0009441306,5.141,0,0
0.001026068,0.0004557539999999999,0.004879959400000001,0.0006666737,0.0015039338,5.142,0,0
-0.00020008600000000004,-0.00010340599999999995,0.0036064322,0.0010413169,0.0016642042000000004,5.143,0,0
-0.0018281460000000001,-0.001008454,0.0019195842,0.0011046389,0.0016615862000000001,5.144,0,0
-0.0032304200000000003,-0.00190946,0.0007824341999999999,0.001129645,0.0010752144,5.145,0,0
-0.003462726,-0.0023157280000000004,0.0004373634,0.0012517168000000002,0.00017536440000000004,5.146,0,0
-0.0036508400000000002,-0.0024223020000000003,0.0005264862,0.0011540348000000002,-0.00021921220000000006,5.147,0,0
-0.0038437900000000006,-0.00251133,0.0006534173999999999,0.000686549708,-0.00045625840000000005,5.148,0,0
-0.002856145,-0.0021165366,0.0004900175999999999,-3.572029200000007e-05,-0.0009704044,5.149,0,0
-0.001225645,-0.0014008548,0.00016734199999999998,-0.0005192732920000001,-0.0011379220000000002,5.15,0,0
0.0001184389999999998,-0.0006623974,-0.0002519112,-0.0006485650920000001,-0.00105733,5.151,0,0
0.0022211030000000003,0.0002552586000000001,-0.0008565414000000001,-0.001317635092,-0.0011641786,5.152,0,0
0.004785999,0.0011991626000000001,-0.0012376934,-0.001961258,-0.000964572,5.153,0,0
0.006090634,0.0016129072000000003,-0.0017660256,-0.0018986960000000003,-0.00028598199999999995,5.154,0,0
0.006393628,0.0020473514000000003,-0.0025875000000000004,-0.0015835292,7.527500000000014e-05,5.155,0,0
0.00637569,0.002499798,-0.0030885000000000005,-0.0015273182,0.0004567458000000001,5.156,0,0
0.004784738,0.0020676562,-0.003074854,-0.0010316884,0.0012350498,5.157,0,0
0.0020290560000000004,0.0014639812000000001,-0.0031715200000000006,0.0002765476,0.0016920144,5.158,0,0
-0.0002528420000000001,0.0011415698,-0.0034822140000000004,0.0010797196,0.0017000824,5.159,0,0
-0.002717676,0.00040541100000000005,-0.003504746,0.0011927502,0.0017979088000000002,5.16,0,0
-0.00483199,-0.000404133,-0.00310709,0.0009966406000000002,0.0018193058,5.161,0,0
-0.005742062,-0.0005757882,-0.002967756,0.0006853248000000002,0.0011648542,5.162,0,0
-0.0061809560000000005,-0.0005360524,-0.0029195000000000002,0.0001583864,0.00035902420000000006,5.163,0,0
-0.006509860000000001,-0.0005594349999999999,-0.0021332960000000002,-7.29444e-05,-0.00010443540000000001,5.164,0,0
-0.0058190640000000005,-0.00028475960000000003,-0.0013516818,4.5516600000000045e-05,-0.0007230434000000001,5.165,0,0
-0.004205486000000001,3.9639000000000005e-05,-0.0010410252000000002,-4.278799999999977e-06,-0.0013174672000000002,5.166,0,0
-0.0028851624000000003,0.0003514,-0.0005467155999999999,-0.0001795468,-0.0011126801999999999,5.167,0,0
-0.0009232963999999999,0.0009481212000000001,-5.534500000000003e-05,-0.0004585568,-0.0008199946000000001,5.168,0,0
0.0021113396,0.0013981872,0.00017493739999999998,-0.0005350732,-0.0005175010000000001,5.169,0,0
0.0045595356,0.0015229506000000001,0.0004038932,-0.0005742708000000002,0.00042214500000000007,5.17,0,0
0.005887439600000001,0.0014401340000000002,0.00042855560000000005,-0.0003801368000000001,0.0013710470000000002,5.171,0,0
0.0071057640000000005,0.0008962540000000004,0.00039821500000000005,-0.0002912348000000001,0.0019735356000000004,5.172,0,0
0.00732509,-0.00023375799999999998,0.00046490880000000004,-0.0004942344,0.002729874,5.173,0,0
0.005477730746000001,-0.001591772,0.000469557,-0.0006322744000000001,0.0033234220000000004,5.174,0,0
0.003350704746,-0.0027717080000000003,0.0003806176000000001,-0.0008261096000000001,0.0029252876,5.175,0,0
0.0014507027459999997,-0.003418218,0.00040559260000000007,-0.0008361074,0.0023426982,5.176,0,0
-0.0008955352539999999,-0.003663874,0.0005645996,-0.00017680339999999993,0.0019744782,5.177,0,0
-0.002854393254,-0.003870592,0.0006336525999999999,0.0006932766,0.00120607098,5.178,0,0
-0.0033286340000000005,-0.003418618,0.0006317009999999999,0.0010794598000000001,0.00015797098,5.179,0,0
-0.00349602,-0.0024135463999999996,0.0006477828,0.0015062482,-0.00070077462,5.18,0,0
-0.0037925940000000003,-0.0017777621999999999,0.0006481428,0.001818268,-0.00140254522,5.181,0,0
-0.002344164,-0.0009748322000000002,0.0006158288,0.001738834,-0.00229608122,5.182,0,0
-0.0004234900000000001,0.0005326278000000001,0.0009924714000000001,0.0013962820000000002,-0.002801604,5.183,0,0
0.00057527,0.0016973558,0.0017052264,0.0011057268,-0.00289779,5.184,0,0
0.001969688,0.0024385241999999997,0.0023324360000000002,0.0008808005999999999,-0.0028683660000000002,5.185,0,0
0.0038903979999999998,0.0035722079999999995,0.002816962,0.0003295106,-0.002410986,5.186,0,0
0.004739414,0.00417803,0.0029135380000000002,-0.00010416639999999994,-0.002159818,5.187,0,0
0.004708198,0.00374527,0.0025035414000000003,-0.0003554722,-0.00199985,5.188,0,0
0.004974062,0.0033127699999999996,0.0018505898,-0.0005056878,-0.001305856,5.189,0,0
0.004095028,0.0024915837999999997,0.0015044698,-0.0002808156,-0.000448522,5.19,0,0
0.0016165020000000001,0.0005185538,0.0015102698000000001,0.0005506544000000001,0.00016192199999999997,5.191,0,0
-0.0006716760000000002,-0.0010725422000000002,0.0013871138,0.0012254334,0.001001916,5.192,0,0
-0.0027234,-0.0018645702,0.0012803035999999998,0.0014650616,0.0015445240000000002,5.193,0,0
-0.004997070000000001,-0.0031452342000000003,0.0011890596000000001,0.0018802304,0.0012816104,5.194,0,0
-0.006249122,-0.003967902,0.0009365636000000002,0.0020680444,0.0010163368,5.195,0,0
-0.005779608000000001,-0.003453888,0.0006838916,0.0015384458,0.0005159546,5.196,0,0
-0.005226804000000001,-0.002895168,0.0006718876,0.0006316817999999999,0.0002160208,5.197,0,0
-0.004824568,-0.0026321120000000003,0.0005465944,0.00032274720000000003,0.0001360152,5.198,0,0
-0.0030274800000000004,-0.0015820454000000002,9.076599999999994e-05,-7.78319999999975e-07,0.0001790642,5.199,0,0
-0.0009410720000000003,-7.444340000000013e-05,6.1465e-05,-0.00095205832,0.0007091638,5.2,0,0
0.00026489799999999985,0.0010584286000000001,0.00020765100000000002,-0.0014080617199999999,0.001176638,5.201,0,0
0.002063776,0.0022310026000000004,-0.000250479,-0.00128477172,0.0011140580000000002,5.202,0,0
0.004639948,0.0033968026000000006,-0.0006990410000000001,-0.0013994035200000001,0.0010482198000000002,5.203,0,0
0.00577383,0.004170556000000001,-0.0005239196000000001,-0.0013688732000000001,0.0011999604,5.204,0,0
0.00624157,0.004275312000000001,-0.0009934266000000001,-0.0008428612,0.00072708298,5.205,0,0
0.006848204,0.003827034,-0.0018812866,-0.00043304120000000007,0.00028702978,5.206,0,0
0.0053364626,0.0030180472,-0.0018249520000000003,-0.00020178579999999998,0.00035869238,5.207,0,0
0.0025186006000000004,0.0021160764000000003,-0.001961242,6.522467999999999e-05,0.00049619258,5.208,0,0
-0.0001410074,0.0014230730000000002,-0.0032651394000000004,0.00015001008,0.00028706878000000005,5.209,0,0
-0.0037739694,0.0004195549999999999,-0.0042583374,-0.00011676792000000005,0.00026079220000000005,5.21,0,0
-0.0074099474,-0.00024056300000000006,-0.0048637234000000005,-0.00035939992000000006,0.00020140740000000002,5.211,0,0
-0.009142298,-0.0005610684,-0.005607728,-0.0004665421200000001,-0.00045922939999999994,5.212,0,0
-0.009590158,-0.0012005036,-0.004133986,-0.0007329686000000001,-0.0011766758000000001,5.213,0,0
-0.0082272188,-0.0016132581999999999,-0.0016028679999999997,-0.0011726768000000002,-0.0019486800000000002,5.214,0,0
-0.0040422648000000005,-0.0012021262000000003,-0.001206144,-0.0015001548000000001,-0.002237524,5.215,0,0
0.00030919919999999987,-0.0008602945600000002,-0.0015797819999999998,-0.0017378628,-0.0022989259999999997,5.216,0,0
0.0029094692,-0.00079543236,-0.0016806079999999999,-0.0016949080000000002,-0.0022951200000000003,5.217,0,0
0.0051180992,5.364964000000006e-05,-0.003785534,-0.0013996254000000002,-0.0016693818000000002,5.218,0,0
0.0064936559999999996,0.0004076652400000001,-0.0047025074,-0.0013007794,-0.0009016467999999999,5.219,0,0
0.006005174,0.00018214764000000006,-0.0008549633999999995,-0.0010110614,-0.0005077352000000001,5.22,0,0
0.005392738,0.00027422300000000003,0.0029624206000000005,-0.00046736379999999994,0.00021556880000000002,5.221,0,0
0.006212584,0.00018875160000000004,0.004800112600000001,-0.00022523099999999997,0.0009921988,5.222,0,0
0.006546812000000001,-0.00039237440000000005,0.006591056600000001,-0.00011117559999999999,0.0010444380000000002,5.223,0,0
0.004636818,-0.00118914,0.0069370840000000005,0.0005270144,0.0016168710000000002,5.224,0,0
0.002638512,-0.0019058564000000002,0.004221844000000001,0.0012943963999999999,0.0020220734000000002,5.225,0,0
0.0007183520000000002,-0.0025418954,0.0018671602000000002,0.0016796647999999998,0.0012767734,5.226,0,0
-0.0025843920000000005,-0.0032953139999999997,0.0012541792000000003,0.0015289000000000001,0.0010962010000000002,5.227,0,0
-0.00542062,-0.003497188,3.11752e-05,0.001104792,0.0015925656000000002,5.228,0,0
-0.006243234,-0.0027333690000000002,-0.0007503248,0.0007995464000000001,0.0010629592,5.229,0,0
-0.006373506,-0.0022103350000000003,-0.00047567480000000004,0.000345733,0.0003861378000000001,5.23,0,0
-0.006363436,-0.001874943,-0.000518621,0.00019142499999999998,0.0007601400000000002,5.231,0,0
-0.004884312,-0.0009338062200000001,-0.0006731022,0.000464503,0.00010052040000000013,5.232,0,0
-0.002678044,-3.473021999999995e-05,0.0003268158,0.000524811,-0.0011444936,5.233,0,0
-0.0013303994,0.00022571878000000005,0.0009119598000000002,0.00038034980000000004,-0.001368857,5.234,0,0
-9.538340000000002e-05,0.0009642447800000001,0.00027040980000000005,0.00030096640000000003,-0.0016567636,5.235,0,0
0.0018091646,0.00220537678,-0.0004728102,-0.00010519020000000001,-0.0020323578,5.236,0,0
0.0027388726,0.00299825,-0.0013904680000000002,-0.0005623182000000001,-0.0015937160000000002,5.237,0,0
0.0025098746000000003,0.003157228,-0.002106194,-0.0006390362,-0.0008574896000000001,5.238,0,0
0.002955086,0.003464776,-0.002401736,-0.0010791894,-0.0007464358000000001,5.239,0,0
0.0025273803980000002,0.003511714,-0.001795294,-0.0015828826,-0.0006362658000000001,5.24,0,0
0.000577184398,0.0024044384,-0.00019280000000000013,-0.0016833000000000002,-0.000265741,5.241,0,0
-0.000723613602,0.0015316984000000003,0.002175708,-0.0014989100000000002,1.8158200000000012e-05,5.242,0,0
-0.0018980336020000001,0.0011231268000000002,0.004288496,-0.0008413320000000001,-0.0002319572,5.243,0,0
-0.003956293602000001,0.0005959242,0.005322992,0.00017589999999999988,-0.0003940296,5.244,0,0
-0.005061522000000001,0.00018709920000000002,0.005732002000000001,0.001159016,-0.00011405860000000003,5.245,0,0
-0.0043971334,0.00011216259999999998,0.005529922000000001,0.001855942,-0.0003352536,5.246,0,0
-0.0039155074,-0.00027856540000000007,0.00451802,0.002196558,-0.0003598094,5.247,0,0
-0.0029798234000000005,-0.0010441838,0.0029397010000000003,0.0019955822,9.539959999999996e-05,5.248,0,0
-3.576939999999965e-05,-0.0018255672,0.0017596286000000003,0.0014248362000000001,0.0003367986,5.249,0,0
0.0025664926000000003,-0.0028543622,0.0008574982,0.0008604416000000002,0.0005367620000000001,5.25,0,0
0.0037372980000000004,-0.0034857060000000003,5.722219999999996e-05,0.0002570548,0.0009506242,5.251,0,0
0.005659732,-0.0029438568000000006,-0.0007786498,-0.00024942440000000007,0.0010871110000000002,5.252,0,0
0.007523348000000001,-0.0016135368000000003,-0.0013312928,-0.0007531846,0.001074899,5.253,0,0
0.007043212000000001,-0.0004301388000000002,-0.0015456124000000002,-0.0013632886,0.0015614724,5.254,0,0
0.006292606,0.0009174652,-0.001867588,-0.001593202,0.002018756,5.255,0,0
0.005992458000000001,0.0022695252,-0.002042926,-0.0017655212000000002,0.001797957,5.256,0,0
0.004104036200000001,0.0022476252,-0.0022182760000000004,-0.0018793240000000001,0.0016538598000000002,5.257,0,0
0.0015223202000000003,0.0012085192000000002,-0.00238323,-0.0014741902000000003,0.0018614638000000003,5.258,0,0
-0.0003766818000000002,0.00046624320000000015,-0.002853308,-0.000775,0.0013969606000000002,5.259,0,0
-0.0023601598,-0.0003990567999999999,-0.003099356,-0.00010407200000000003,0.0007797760000000001,5.26,0,0
-0.004549373800000001,-0.0015673628000000002,-0.0029533600000000004,0.00044571199999999996,0.0007622660200000002,5.261,0,0
-0.005390078,-0.002118254,-0.002712136,0.000873826,0.0002536712200000001,5.262,0,0
-0.005029680000000001,-0.002112764,-0.0019949212000000003,0.0009402718,-0.00073904078,5.263,0,0
-0.004766318,-0.0020930140000000002,-0.0010768882,0.0007855821999999999,-0.0010316009800000001,5.264,0,0
-0.004066108,-0.0017302894000000002,-0.0008694902000000002,0.0005800438,-0.00104135658,5.265,0,0
-0.0020690400000000003,-0.0003758494000000002,-0.0011450742,0.0006340218,-0.0012399974,5.266,0,0
-0.0005050500000000002,0.0010781326,-0.0011602842,0.0009647678,-0.0007396350000000001,5.267,0,0
0.0005683800000000001,0.0019148546,-0.0014754730000000001,0.0009797138,-0.00011123300000000008,5.268,0,0
0.0026935820000000004,0.0030418626,-0.0020906500000000003,0.0008333812000000001,-0.0005948716000000001,5.269,0,0
0.0041559100000000005,0.003905566,-0.0027916959999999998,0.0007528684000000001,-0.0012252714000000001,5.27,0,0
0.004036596,0.003505438,-0.0032310460000000004,0.0006461082000000001,-0.0010554156,5.271,0,0
0.0038455060000000003,0.003052818,-0.003208054,0.00045496420000000004,-0.0011010976,5.272,0,0
0.0032833064000000003,0.0026298566,-0.0031787226,0.0004552938,-0.0012328740000000001,5.273,0,0
0.0005963643999999998,0.0015405365999999999,-0.0024171506,0.0005209947999999999,-0.00020607200000000007,5.274,0,0
-0.0021288136000000004,0.0006004716000000001,-0.0005677106000000001,0.00047591496,0.00079405,5.275,0,0
-0.0034198116000000002,-0.00032663639999999986,0.0009680674000000001,0.0005550691600000001,0.001040534,5.276,0,0
-0.0054393696,-0.0015431104,0.0018440434000000002,0.00066588916,0.0014159376000000001,5.277,0,0
-0.007417343999999999,-0.0022797850000000003,0.002564296,0.00092199396,0.0015087692000000002,5.278,0,0
-0.006989315999999999,-0.0024767250000000004,0.0023987876,0.0011804653600000002,0.001045229,5.279,0,0
-0.005724378,-0.0024868660000000003,0.0012942196000000003,0.0012205656,0.001014289,5.28,0,0
-0.005412258,-0.0022627140000000003,0.0002172236000000001,0.0009821755999999998,0.001221035,5.281,0,0
-0.0038210218,-0.0016598058000000001,-0.0005379018000000002,0.0006936784,0.00078199906,5.282,0,0
-0.0011331858,-0.0007012378000000002,-0.0009057932000000001,0.00012031579999999999,0.00051259926,5.283,0,0
0.0005781861999999999,-6.700980000000004e-05,-0.0007924872000000001,-0.0003558426,0.0005108062600000001,5.284,0,0
0.0024588002000000006,0.0004904601999999999,-2.914520000000002e-05,-0.0004908768,-0.00029779174000000013,5.285,0,0
0.0049662302,0.0014331582,0.0009885588,-0.0009605128,-0.00139378574,5.286,0,0
0.006331740000000001,0.001819066,0.0014361102,-0.0013634876000000002,-0.0019018378000000002,5.287,0,0
0.006035782000000001,0.0016225534,0.0016758356,-0.0011975651,-0.0022328272000000007,5.288,0,0
0.005647968000000001,0.0016400934000000002,0.0022845900000000004,-0.0007139193,-0.0024645460000000006,5.289,0,0
0.0046878679999999995,0.0014029866,0.00303933,-0.0007124813000000002,-0.0018769958000000003,5.29,0,0
0.00202279,0.00034086660000000004,0.0036111040000000004,-0.0007533153,-0.0009172258000000003,5.291,0,0
-0.00022927799999999997,-0.0007755494000000001,0.004426186,-0.0006792433,-0.00040283480000000014,5.292,0,0
-0.001631892,-0.0016170088000000001,0.005418582,-0.0007445716000000001,-9.037700000000002e-05,5.293,0,0
-0.003604084,-0.0027081228,0.005730674000000001,-0.0008831562000000001,1.0073000000000064e-05,5.294,0,0
-0.004949586000000001,-0.0037988600000000003,0.005376566,-0.0008135612000000001,-0.0002106894,5.295,0,0
-0.0043244762,-0.00388896,0.004649816,-0.0002549574,-0.0006501348,5.296,0,0
-0.003403048,-0.0033045600000000002,0.0038439660000000003,-0.000218996,-0.0010871038000000001,5.297,0,0
-0.0025777034,-0.0027649280000000003,0.0027646140000000003,-0.00047544160000000005,-0.0011157174000000001,5.298,0,0
-0.0003589554,-0.0017560523999999998,0.0016047810000000002,-0.0005425928,-0.0009494988,5.299,0,0
0.0015678666,-0.0006831821999999999,0.0011945670000000001,-0.0008790448,-0.0007161718,5.3,0,0
0.0023910868,-0.0002588122,0.0012245550000000002,-0.0012984766,-0.0005130919999999999,5.301,0,0
0.0037388086,0.00038069780000000005,0.0008501802000000001,-0.0012554548,-0.000594864,5.302,0,0
0.0051963140000000005,0.0014854258000000001,-2.9369799999999957e-05,-0.000870105,-0.0007711822,5.303,0,0
0.0054118560000000005,0.0020798602000000003,-0.0006378048,-0.000960277,-0.0006587766,5.304,0,0
0.005245986000000001,0.002477806,-0.0014446428000000002,-0.0007225764000000001,-0.0005337034000000001,5.305,0,0
0.005294310000000001,0.0031792680000000003,-0.0022725988,-4.1658399999999947e-05,-0.00026752580000000007,5.306,0,0
0.0039444926,0.0032319700000000007,-0.002378565,-3.361859999999992e-05,0.0007325622,5.307,0,0
0.0017042766000000002,0.0025383700000000003,-0.002464355,0.0001934996000000001,0.0014165902000000002,5.308,0,0
-0.00011008540000000003,0.0018149366000000003,-0.002440049,0.0008271916000000001,0.0015677727999999999,5.309,0,0
-0.0023251234000000003,0.0008796066,-0.0023049810000000002,0.000935823,0.0016650748,5.31,0,0
-0.004851273400000001,-0.00015412939999999995,-0.002235997,0.0008442549999999999,0.0015910588,5.311,0,0
-0.005880342000000001,-0.0008419994000000001,-0.0021663888000000003,0.00134302,0.0012450614,5.312,0,0
-0.005625778000000001,-0.0010061012000000002,-0.0017757728,0.0014205440000000001,0.0006524114,5.313,0,0
-0.005420552000000001,-0.0010466138000000003,-0.0013856468,0.0009115055999999999,0.00010300059999999994,5.314,0,0
-0.004100940800000001,-0.0007956826000000001,-0.0016563188000000002,0.0007267570000000001,-0.00043652340000000005,5.315,0,0
-0.0015437848000000001,0.0002462594,-0.0019686308,0.0004388314,-0.0005590124000000001,5.316,0,0
0.0003570311999999998,0.0011440854000000001,-0.0020791539999999997,-0.00019044259999999996,-0.00028481100000000005,5.317,0,0
0.0017076832,0.0016264372000000002,-0.002159222,-0.0008646346,0.00012566100000000008,5.318,0,0
0.0034995212000000003,0.0024148112000000003,-0.002776444,-0.0009824844,0.00043039100000000013,5.319,0,0
0.0047521360000000006,0.002951192,-0.003931994,-0.0008973042000000001,0.0006181194000000001,5.32,0,0
0.004642172000000001,0.0025247392000000003,-0.005346160000000001,-0.0008643967000000002,0.0006417706000000002,5.321,0,0
0.004157550000000001,0.0021133132,-0.007409788000000001,-0.0005791659000000001,0.00033839620000000004,5.322,0,0
0.0034994292,0.0017203734000000002,-0.008644188,-0.00020292590000000002,0.0005107762000000001,5.323,0,0
0.0016913852000000002,0.0007218914,-0.008543666,0.00035526430000000004,0.0011132082000000001,5.324,0,0
-0.0003203167999999999,-0.0004771966,-0.006672556800000001,0.0010869387,0.0013661638000000002,5.325,0,0
-0.0015902147999999998,-0.0017340317999999999,-0.001993036800000001,0.0013940208,0.0015386476000000002,5.326,0,0
-0.0032985968,-0.0029548958,0.0027192232000000003,0.0013105604,0.001921874,5.327,0,0
-0.004934226,-0.003924744,0.0052555272,0.0014473664,0.0018062380000000002,5.328,0,0
-0.005317554,-0.0041951539999999996,0.0062162474,0.0014722123999999998,0.0014275492,5.329,0,0
-0.0052296899999999995,-0.003738962,0.005108230200000001,0.0011300544,0.0011189552,5.33,0,0
-0.005200204,-0.0029474239999999997,0.0008951021999999997,0.0009158944,0.0004461491999999999,5.331,0,0
-0.0037047490000000002,-0.0019171564,-0.0030253938,0.000778492,-0.0002697128000000001,5.332,0,0
-0.0012086949999999999,-0.0007056763999999998,-0.0046001118,0.00019994799999999998,-0.0006258518,5.333,0,0
0.0004236989999999997,0.0002811396000000001,-0.0046217278,-0.00049121,-0.0010594950000000001,5.334,0,0
0.001997587,0.0009241796000000001,-0.0008826497999999995,-0.0008707742,-0.001647623,5.335,0,0
0.003983558999999999,0.001345026,0.0044565382,-0.0011746302000000001,-0.002030369,5.336,0,0
0.005189642,0.0015084064,0.007567114200000001,-0.0011383122000000001,-0.002236117,5.337,0,0
0.004730806000000001,0.0015293504000000002,0.009208578200000001,-0.0007337336000000001,-0.002094932,5.338,0,0
0.003714022,0.0011581162,0.010009820000000001,-0.0005714242,-0.0018999962000000002,5.339,0,0
0.002255548,0.0006191882,0.008197054,-0.0005766744,-0.0011370342,5.34,0,0
-0.0004916120000000001,7.855799999999919e-06,0.0047920919999999995,-0.00044330819999999996,0.00017400979999999998,5.341,0,0
-0.003292176,-0.0011917382,0.0032951722,-0.0003330386,0.0009432558,5.342,0,0
-0.004119032,-0.0023094642,0.0028444082,1.3548000000000162e-06,0.0011222616,5.343,0,0
-0.003201366,-0.002908822,0.0021327881999999997,0.0006470614,0.0012408734000000001,5.344,0,0
-0.0022982060000000006,-0.00335438,0.0014404622,0.0008573868000000001,0.0012114378,5.345,0,0
-0.0010190528000000002,-0.0031856560000000003,0.0012222443999999999,0.0010554558000000001,0.00023204780000000004,5.346,0,0
9.381919999999994e-05,-0.0023592628000000003,0.0012894846,0.0013372542,-0.0008341282,5.347,0,0
-0.00018449880000000006,-0.001796982,0.0009436086000000001,0.0010061512000000001,-0.0013587080000000001,5.348,0,0
-0.0004816868000000001,-0.001165717,0.000831109,0.00038957759999999993,-0.0021079276,5.349,0,0
0.0001065691999999999,0.000281105,0.001014189,-4.619139999999998e-05,-0.0027516540000000005,5.35,0,0
0.000730304,0.0018094350000000003,0.0009960794,-0.00013321919999999997,-0.0022562226,5.351,0,0
0.00217994,0.0033195958,0.0006344298000000002,-0.00036987719999999997,-0.0015468772600000001,5.352,0,0
0.00444059,0.004971445,0.0001764398000000001,-0.0008833602,-0.0013810944600000001,5.353,0,0
0.005223712,0.005984542000000001,-0.00017611659999999997,-0.0011422366,-0.0003082144600000001,5.354,0,0
0.005183736000000001,0.005878856,-0.00055030928,-0.0010204166,0.00069010954,5.355,0,0
0.0060275419999999994,0.0048444583999999995,-0.00072323228,-0.0010092222000000002,0.00068799174,5.356,0,0
0.0056247680000000005,0.0028598444,-0.00063949888,-0.0009488118000000002,0.0014277724,5.357,0,0
0.002975066,-0.00011612760000000014,-0.0009317468800000001,-0.0005543344,0.0024253336,5.358,0,0
0.0010428100000000004,-0.0023680016,-0.00149272088,-0.0003912844,0.0026448936,5.359,0,0
-0.0006501479999999999,-0.0032410935999999998,-0.0018829062000000002,-0.0005162444,0.0026910996,5.36,0,0
-0.0034600380000000003,-0.0038743980000000007,-0.0021310898,-0.0010283922,0.00252817,5.361,0,0
-0.005374384,-0.003742088,-0.002227215,-0.0014408666,0.0016778892000000002,5.362,0,0
-0.005452434,-0.0024290206,-0.0018690917999999999,-0.0012916232,0.0004680391999999999,5.363,0,0
-0.005332698,-0.0014120148000000001,-0.0015479378000000002,-0.0010540600000000001,-0.0007264668,5.364,0,0
-0.004848408,-0.0012387422,-0.0019033038000000001,-0.00043389,-0.0017108748,5.365,0,0
-0.002858816,-0.0008647018,-0.0021366418,0.00049782,-0.0022761428000000004,5.366,0,0
-0.0010938939999999998,-0.00014061180000000001,-0.0022803168000000004,0.001069836,-0.0026581600000000006,5.367,0,0
0.00048479399999999987,0.0003956208,-0.0025265640000000002,0.0012793332000000002,-0.0026887760000000004,5.368,0,0
0.00306169,0.001261897,-0.002776872,0.0014091398,-0.0023582960000000006,5.369,0,0
0.005170118,0.0024127824,-0.002998374,0.0013972518000000002,-0.0018999634000000003,5.37,0,0
0.005600232,0.0031371940000000003,-0.0030199299999999997,0.0011143324000000001,-0.001087908,5.371,0,0
0.005794354,0.003553684,-0.0032008900000000005,0.0007453458000000001,9.898599999999991e-05,5.372,0,0
0.005498316,0.0036238680000000006,-0.003577444,0.0004364682000000001,0.001369838,5.373,0,0
0.00307755,0.0027045456000000002,-0.003583638,0.00035085660000000007,0.002806574,5.374,0,0
0.00010792000000000006,0.0011485956,-0.003123558,0.00033065060000000003,0.0038389094000000003,5.375,0,0
-0.0018053479999999996,0.00020574360000000003,-0.002834804,4.6160200000000046e-05,0.004127722,5.376,0,0
-0.004096468,-0.0009279044,-0.00247221,-0.0001895252,0.004178112,5.377,0,0
-0.006169618,-0.0018142944,-0.0017976475999999999,-0.00015985763999999997,0.0037251200000000006,5.378,0,0
-0.006671984,-0.0019048340000000002,-0.00106747962,3.6666160000000016e-05,0.002785258,5.379,0,0
-0.006248338,-0.001824706,-0.00060370402,-6.684243999999998e-05,0.002370732,5.38,0,0
-0.005938274,-0.0016522538,-0.00051419802,-0.00020114864000000002,0.002329088,5.381,0,0
-0.004761004,-0.0013240584,-0.00029253222,0.00022210876,0.0014035347999999997,5.382,0,0
-0.00215792,-0.0005751004,0.00021855737999999997,5.991379999999998e-05,0.0008304781999999998,5.383,0,0
-0.0005921540000000001,-0.00021132200000000003,0.0007385013999999999,-0.0004143082,0.00041430199999999986,5.384,0,0
0.001597502,0.000542946,0.0013180758,-0.0007720636,-0.0005644560000000001,5.385,0,0
0.003669252,0.0009818157999999999,0.0022680358,-0.0008749256000000001,-0.000660484,5.386,0,0
0.005804798,0.0019007823999999999,0.003320286,0.00021593900000000006,-0.0006715102,5.387,0,0
0.005442034000000001,0.0016737964,0.004311492,0.001428392,-0.0016324776000000002,5.388,0,0
-0.0004903939999999999,-0.001733456,0.0048566600000000005,0.0018800379999999999,-0.0027045174,5.389,0,0
-0.0050614860000000005,-0.003940696,0.004603012,0.0020467111999999997,-0.0037329214000000003,5.39,0,0
-0.005338956000000001,-0.004020457999999999,0.0039076688,0.0014811432,-0.0055892774,5.391,0,0
-0.003562592000000001,-0.0036431519999999993,0.0029198748000000005,-0.0007352128000000001,-0.006670798,5.392,0,0
0.0016935119999999994,-0.0011305519999999995,0.001661418,-0.0027052128,-0.006387772000000001,5.393,0,0
0.013258292000000001,0.005127568000000001,0.0007156748,-0.0036304468,-0.00596329,5.394,0,0
0.023271712,0.010152416000000001,0.0008520628000000001,-0.004118460000000001,-0.0047096740000000005,5.395,0,0
0.027112660000000004,0.01223012,0.0012733880000000003,-0.003475242,-0.0025395640000000002,5.396,0,0
0.025535964000000005,0.0121604,0.00173093,-0.002400674,0.0001954839999999999,5.397,0,0
0.018553226000000003,0.009208444,0.0027911268,-0.0013979936000000001,0.003161858,5.398,0,0
0.008393126,0.00432029,0.0032921940000000005,-0.0003195696,0.0059888400000000005,5.399,0,0
-0.004989714,-0.0018375499999999999,0.0026793260000000005,0.0009859344,0.00837646,5.4,0,0
-0.017866394,-0.00773187,0.0017604,0.0021114624000000003,0.009344492,5.401,0,0
-0.028062798000000003,-0.013081349999999999,0.0006556759999999999,0.0029747464,0.00844914,5.402,0,0
-0.035672300000000004,-0.016843614,-0.0011398,0.004018694,0.006482484399999999,5.403,0,0
-0.03882212,-0.01808048,-0.0019500498,0.004602266,0.0041043144,5.404,0,0
-0.036240600000000005,-0.016925474,0.0005376462,0.004078232,0.0008697624000000004,5.405,0,0
-0.029762612000000004,-0.013833712,0.0041001802,0.0031589416,-0.0025842296,5.406,0,0
-0.020055224,-0.008912956000000001,0.0054127702,0.0022236051999999997,-0.0051176496,5.407,0,0
-0.006849024000000001,-0.0028603660000000005,0.005357596200000001,0.0006647832,-0.00702874,5.408,0,0
0.006155316000000001,0.002994974,0.004307368,-0.0009023328,-0.008175546,5.409,0,0
0.017014576,0.008180828000000001,0.0005887600000000002,-0.0017796628000000003,-0.00809292,5.41,0,0
0.026092928,0.012325806000000002,-0.0035706920000000003,-0.0023299344000000002,-0.006890846,5.411,0,0
0.031847520000000004,0.01513705,-0.005349104,-0.0025886140000000004,-0.00502085,5.412,0,0
0.0325039,0.0153626,-0.005270754000000001,-0.0022860840000000003,-0.002687906,5.413,0,0
0.028664643999999996,0.013459328,-0.004141212200000001,-0.0016909156800000004,-0.0003354960000000001,5.414,0,0
0.021223114,0.010410108000000001,-0.0027093752400000003,-0.0008909516800000002,0.00130898,5.415,0,0
0.010421994,0.005711136,-0.0015326152400000003,-7.099167999999995e-05,0.0032066440000000002,5.416,0,0
-0.001962086,0.00012475600000000017,-0.00027918324,0.0006859903200000001,0.004918794000000001,5.417,0,0
-0.012725226000000001,-0.004514304,0.00053338476,0.00154644232,0.004991712000000001,5.418,0,0
-0.020625630000000002,-0.007968772,0.00020101096000000001,0.002077868,0.004651442,5.419,0,0
-0.02597716,-0.010591292000000002,0.000221898,0.002240492,0.004134216,5.42,0,0
-0.02751656,-0.011440224,8.725599999999956e-06,0.0023333480000000003,0.00223322,5.421,0,0
-0.0244463,-0.01054789,-0.0023660423999999998,0.0018374688000000001,-5.2508000000000264e-05,5.422,0,0
-0.018740360400000003,-0.008093881800000001,-0.0049709244,0.0006914288000000001,-0.001297008,5.423,0,0
-0.010889714399999997,-0.0045550718,-0.006528514400000001,-0.00024065720000000004,-0.002522278,5.424,0,0
-0.0005635144000000003,-0.0006004837999999998,-0.0087922104,-0.0011675132,-0.003444728,5.425,0,0
0.0093597856,0.0037192402000000005,-0.010580242,-0.0021586532,-0.0029901129999999995,5.426,0,0
0.017651945600000003,0.0076268662000000004,-0.009874894,-0.00273273,-0.002175912,5.427,0,0
0.024316746,0.010503878000000001,-0.00863061,-0.003016736,-0.0013709678000000001,5.428,0,0
0.02755572,0.011887948000000002,-0.0065272408,-0.003039864,-0.00018758779999999997,5.429,0,0
0.02632414,0.011392606000000001,-0.0029284408000000003,-0.002700666,0.0014106422000000002,5.43,0,0
0.021658950000000003,0.009232182,0.00044911319999999997,-0.0019244104000000002,0.0025827612000000003,5.431,0,0
0.014168478,0.006231229999999999,0.0033218772,-0.0007154383999999999,0.0032868242000000003,5.432,0,0
0.004222598000000001,0.00243075,0.005796361200000001,0.0005140536000000001,0.004206996,5.433,0,0
-0.005431821999999999,-0.001612054,0.006955940000000001,0.0016113576,0.00485697,5.434,0,0
-0.013447562000000001,-0.00494512,0.006500484000000001,0.0024304796,0.004747904,5.435,0,0
-0.019762472,-0.007477116000000001,0.005915154000000001,0.002554934,0.004227192,5.436,0,0
-0.023438960000000002,-0.009361384,0.005374598,0.0023678559999999998,0.0032068007999999995,5.437,0,0
-0.0229595,-0.010475404,0.004719170000000001,0.00226789,0.0010735367999999998,5.438,0,0
-0.019294682000000004,-0.009759034,0.0039549780000000005,0.0018869919999999999,-0.0012223052,5.439,0,0
-0.014275919200000002,-0.007658888000000002,0.003332984,0.0013158739999999999,-0.0030476452,5.44,0,0
-0.006202339200000003,-0.004663882,0.0026395140000000004,0.000820568,-0.0050402132,5.441,0,0
0.003238340800000001,-0.0008856440000000001,0.0013838400000000001,-9.947600000000009e-05,-0.006442046,5.442,0,0
0.0106669608,0.002674084,0.00017966200000000014,-0.001345048,-0.006277012,5.443,0,0
0.0166094428,0.005493174000000001,-0.000747656,-0.002567564,-0.00554065,5.444,0,0
0.021482320000000003,0.007734468,-0.0010806802,-0.0034546179999999996,-0.004785968000000001,5.445,0,0
0.02264694,0.008903724,-0.0009662282,-0.0037249300000000004,-0.00303546,5.446,0,0
0.019660612,0.008654338000000001,-3.5576200000000014e-05,-0.003519896,-0.0006731739999999997,5.447,0,0
0.015255605799999999,0.007968424000000002,0.0014143958,-0.0029424919999999997,0.00128578,5.448,0,0
0.0088992098,0.0059707544,0.0026183098,-0.001997876,0.0028192580000000003,5.449,0,0
0.0008891897999999997,0.0026129384000000005,0.003605786,-0.0007019039999999999,0.0041263,5.45,0,0
-0.0061714102,-0.0006746516000000003,0.004247532,0.00032298000000000006,0.004901682000000001,5.451,0,0
-0.0115625822,-0.0039120856,0.004473734,0.000886526,0.004759008,5.452,0,0
-0.015906775999999997,-0.006839359600000001,0.004230246,0.0014468220000000002,0.003869628,5.453,0,0
-0.01807568,-0.008494520000000002,0.0040916,0.0017967160000000003,0.002591206,5.454,0,0
-0.016707800000000002,-0.008747162000000001,0.0037271179999999998,0.0015154400000000003,0.001089848,5.455,0,0
-0.013683752,-0.008168384,0.0028074836,0.0010032018,-0.00042283200000000005,5.456,0,0
-0.009269112000000001,-0.006229092,0.0017188855999999998,0.00070706,-0.00160212,5.457,0,0
-0.002435932000000001,-0.003276574,0.0007018096000000003,0.0004032428000000001,-0.002626322,5.458,0,0
0.004334128,-8.133800000000003e-05,-0.0004427604,5.2150400000000015e-05,-0.003185912,5.459,0,0
0.008921828,0.00309776,-0.0013820424,-7.072405999999997e-05,-0.003001302,5.46,0,0
0.01268652,0.005611100000000001,-0.001631676,-0.00026802386,-0.0025445447999999996,5.461,0,0
0.0154173,0.007239374000000001,-0.001957868,-0.00059454406,-0.0018156815999999995,5.462,0,0
0.014624338,0.0076780580000000015,-0.0017850914000000003,-0.00075935586,-0.0008559050000000001,5.463,0,0
0.012338688,0.007203106,-0.0013747914000000001,-0.00066970746,-0.00019435840000000005,5.464,0,0
0.011111348,0.0060356720000000015,-0.0015469794,-0.00029477899999999995,0.00017946325999999995,5.465,0,0
0.008035970000000002,0.003751472,-0.0016494314,0.00012738480000000005,0.0005217720600000001,5.466,0,0
0.00255173,0.0006231499999999998,-0.0018454034,0.0006532654,0.0006193568600000001,5.467,0,0
-0.0021372480000000004,-0.0019753740000000002,-0.0031207680000000003,0.0013852704000000002,0.0005985028600000001,5.468,0,0
-0.006671458,-0.0042596479999999996,-0.004646854000000001,0.0020307604,0.0007299218400000001,5.469,0,0
-0.012434078000000001,-0.006406,-0.0055982160000000005,0.0021399984000000003,0.0008273133800000002,5.47,0,0
-0.01595218,-0.0069771600000000005,-0.006564404000000001,0.0022594286,0.00069870458,5.471,0,0
-0.015258094,-0.0065537600000000005,-0.005501858000000001,0.0021074174,0.00045581618,5.472,0,0
-0.012505058999999999,-0.005568564000000001,-0.002824714,0.0013938658,0.00022105257999999997,5.473,0,0
-0.008355542999999998,-0.0037472520000000004,-0.0012350058,0.0009353517999999999,-5.484899999999999e-05,5.474,0,0
-0.0025603830000000003,-0.001196548,-0.0003644278,0.00010077780000000003,-0.0004311042,5.475,0,0
0.0032541770000000005,0.0014522820000000003,0.0002789922,-0.0006885342,-0.0006734136000000001,5.476,0,0
0.007413891000000001,0.0038925060000000004,-0.0007118238000000002,-0.0006193488,-0.0007240315160000001,5.477,0,0
0.010693396,0.006218892,-0.0028396458000000003,-0.0008157652,-0.000827320516,5.478,0,0
0.013066980000000002,0.007659792,-0.0033509100000000003,-0.0014846112000000001,-0.000337284516,5.479,0,0
0.012889046000000001,0.007627046000000001,-0.0029000028,-0.001223037,0.0010334754839999999,5.48,0,0
0.010773696000000001,0.0059452712,-0.0024806708,-0.0007084264000000001,0.001914489684,5.481,0,0
0.007611162,0.0031770571999999997,-0.0016089172000000001,-0.0008587938000000001,0.002527504,5.482,0,0
0.002491,-0.0002073807999999999,-0.0002351492000000001,-0.00045877919999999994,0.0038400160000000003,5.483,0,0
-0.0034726600000000007,-0.0033132908000000003,0.0008550948,0.0001660308,0.004394442,5.484,0,0
-0.007832026,-0.0053260848,0.0015762636,0.0001450736,0.0035024060000000004,5.485,0,0
-0.011355916000000002,-0.006271528,0.0026292776,3.159440000000005e-05,0.0028829220000000004,5.486,0,0
-0.014245382000000001,-0.006417024,0.0024917086000000002,0.0002928824,0.0024214786000000006,5.487,0,0
-0.014751440000000001,-0.0060300760000000005,0.0009522446000000003,0.0006815278,0.0007174506,5.488,0,0
-0.013169534000000002,-0.005153746,-0.0008354554000000003,0.0008491098000000001,-0.0009234014,5.489,0,0
-0.010840352000000001,-0.0041752258,-0.0022409314,0.0011754148,-0.0018228054,5.49,0,0
-0.007161944000000002,-0.0024975018000000003,-0.0035744214,0.0016721614000000003,-0.0029045454000000003,5.491,0,0
-0.0019631360000000007,0.00012039819999999982,-0.00385093,0.0013950062000000004,-0.003797554,5.492,0,0
0.002418692,0.0021805662,-0.000748238,0.0004089342000000001,-0.0037542600000000006,5.493,0,0
0.005904726,0.0034883242,0.0034408300000000006,-0.0001233606,-0.003357794,5.494,0,0
0.009488724,0.00460169,0.005671688000000001,-0.0003843768,-0.003053188,5.495,0,0
0.011339836000000002,0.004900878,0.006939688000000001,-0.0009983014,-0.0025293679999999997,5.496,0,0
0.010522466000000001,0.00426506,0.007952391999999999,-0.0010963276,-0.001838822,5.497,0,0
0.00899397,0.00324676264,0.006827426000000001,-0.0009568316,-0.001013674,5.498,0,0
0.006315606000000001,0.0023002408400000004,0.004769584,-0.0011415408,-0.000357895,5.499,0,0
0.0015833880000000007,0.00104006884,0.004170132,-0.0012204732,0.00019775460000000003,5.5,0,0
-0.0024947399999999996,-0.00055804716,0.004237368,-0.0013320506,0.0006944008,5.501,0,0
-0.005278336,-0.00183485716,0.004217578,-0.0012280816,0.0009996648000000002,5.502,0,0
-0.008032448,-0.0028885178000000004,0.003756878,-0.0009719302,0.0012950168,5.503,0,0
-0.009718244000000001,-0.003607726,0.0031796540000000005,-0.0008892782,0.0015791258,5.504,0,0
-0.009256624000000001,-0.003684124,0.0024833046,-0.0009478132000000001,0.0015564113999999999,5.505,0,0
-0.008032626000000001,-0.0031542140000000002,0.0014621767999999998,-0.0009788272,0.0011055292,5.506,0,0
-0.006311372600000001,-0.0024559558,0.00046567079999999995,-0.000699409,0.0004046871999999998,5.507,0,0
-0.0029307046000000003,-0.0011016438,-0.0005498952,-0.0005420224,-0.0005026168000000001,5.508,0,0
0.0009416234000000001,0.00040984819999999994,-0.0014801672,-0.00047285139999999996,-0.0012662507999999999,5.509,0,0
0.0040327494000000005,0.0015601862,-0.0019568018,0.00012415620000000006,-0.0017304180000000003,5.51,0,0
0.0070151394,0.0030966882000000003,-0.001992254,0.000520128,-0.0018970940000000002,5.511,0,0
0.009779944,0.004460026,-0.002264546,1.2022800000000044e-05,-0.001851054,5.512,0,0
0.010643812,0.004940682,-0.00199363,6.749360000000007e-05,-0.0014263318000000001,5.513,0,0
0.009899418,0.0043431896,-0.001450981,0.0007740906,-0.0004803998,5.514,0,0
0.008707274000000001,0.0035255314000000003,-0.002167733,0.0008375626000000001,0.00048024419999999996,5.515,0,0
0.006092065600000001,0.002289331,-0.0027745630000000003,0.0016322348,0.0014682982000000001,5.516,0,0
0.0020988936000000003,0.0004248310000000001,-0.0021695708000000003,0.0031693608,0.0024330022,5.517,0,0
-0.0011254464,-0.001124995,-0.00188722562,0.0035932019999999998,0.0025431432000000004,5.518,0,0
-0.0034128644,-0.0019137986000000002,-0.00215478462,0.003226298,0.0017122454,5.519,0,0
-0.0059999424,-0.0024612324,-0.00173011062,0.0028660094,0.0009912738000000003,5.52,0,0
-0.007664078,-0.003131378,-0.0021667466200000003,0.0019092774,9.706980000000003e-05,5.521,0,0
-0.007526066000000001,-0.0028090420000000003,-0.0035923668200000007,0.00032859539999999997,-0.0013539262000000002,5.522,0,0
-0.0070195940000000005,-0.0022083522,-0.004370202000000001,-0.0007021846,-0.0019415614,5.523,0,0
-0.005769977200000001,-0.0019059462000000002,-0.0047454360000000004,-0.0013020266000000002,-0.0018761842,5.524,0,0
-0.0031218951999999996,-0.0011321382,-0.00432468,-0.001995946,-0.0020141866,5.525,0,0
-0.0006656432000000001,-0.0001741082000000001,-0.002742324,-0.00268261,-0.0014570083999999998,5.526,0,0
0.0016228488000000004,0.0004202018,-0.0015659034,-0.003051756,-0.00039609240000000004,5.527,0,0
0.0045290608,0.001307978,-0.0014486974000000002,-0.0029588960000000004,0.00010220600000000003,5.528,0,0
0.006748768000000001,0.002571308,-0.0013259534,-0.002824558,0.00043237260000000003,5.529,0,0
0.007173942000000001,0.00286234,-0.0015166754,-0.002256404,0.0010160446,5.53,0,0
0.007149834000000001,0.002908242,-0.0017946341999999999,-0.0013079478000000001,0.0013106203999999999,5.531,0,0
0.006651810000000001,0.002999612,-0.0014844132,-0.00046928220000000013,0.0014879564000000003,5.532,0,0
0.004166540000000001,0.001853646,-0.0005783391999999998,0.0002299038,0.001833224,5.533,0,0
0.0010239940000000005,0.0002848499999999998,0.0006171008000000003,0.0008342658,0.001955776,5.534,0,0
-0.0013466419999999999,-0.0006624240000000001,0.0016874928000000003,0.0013443258000000002,0.001834774,5.535,0,0
-0.003470374,-0.001635376,0.0021749676,0.0015466016,0.0015036364,5.536,0,0
-0.005640234,-0.0026076000000000003,0.0022791160000000003,0.0017402280000000001,0.0008376464,5.537,0,0
-0.00644018,-0.0027215700000000004,0.0024943100000000005,0.0017679700000000002,8.382400000000057e-06,5.538,0,0
-0.005999784,-0.002419996,0.0022764440000000003,0.0013564502000000002,-0.0004940470000000001,5.539,0,0
-0.005428106,-0.0021242492,0.0018029368,0.0004915222,-0.0007109958,5.54,0,0
-0.0039795563,-0.0015699531999999999,0.0014822068,-9.560379999999999e-05,-0.0008892008000000002,5.541,0,0
-0.0019104703000000002,-0.00047578720000000004,0.0012649592000000002,-0.00021488900000000004,-0.0007188538000000001,5.542,0,0
-0.00030839630000000016,0.0007733168000000002,0.0005314852000000001,-0.000541826,-0.00017823159999999996,5.543,0,0
0.0009257137,0.0013769388000000003,-0.00012526479999999993,-0.0005401735999999999,0.0001833158,5.544,0,0
0.0024092037,0.0018667540000000004,-0.00016116139999999997,-0.00010069560000000001,0.00036725859999999996,5.545,0,0
0.0035667980000000004,0.002206238,8.277060000000001e-05,-9.143759999999997e-05,0.0008154352000000001,5.546,0,0
0.003442958,0.0016004906,0.0006681082,-0.0005859124,0.0012144482,5.547,0,0
0.0031500495999999996,0.0006419606,0.0012899422,-0.0007339144,0.0011360446,5.548,0,0
0.0027984016,7.668860000000004e-05,0.0019750942000000002,-0.0007495156,0.0008870652,5.549,0,0
0.0009968636,-0.0007906094000000001,0.002461786,-0.0009753066000000001,0.000848579,5.55,0,0
-0.0013162284,-0.0019177334000000002,0.00248923,-0.0006066210000000001,0.0005354142,5.551,0,0
-0.0027545484,-0.0026230380000000003,0.0022290339999999995,0.00013377099999999998,-4.0933799999999943e-05,5.552,0,0
-0.0038538640000000002,-0.003304182,0.002232492,0.0002351776,-0.00018881779999999998,5.553,0,0
-0.004837544,-0.003912446,0.002292244,0.00035647359999999993,-0.00010528459999999998,5.554,0,0
-0.004250352000000001,-0.003969,0.00202454,0.0006015948,-0.00029381839999999997,5.555,0,0
-0.0029179898000000004,-0.0036551280000000005,0.001845876,0.00043966719999999994,-0.000464784,5.556,0,0
-0.0020046664,-0.00321071,0.001985412,0.0005455052,-9.8219e-05,5.557,0,0
-0.0006631243999999999,-0.0021664296,0.0018338020000000003,0.0008753836000000001,5.68452e-05,5.558,0,0
0.0008012176000000001,-0.0007504256000000001,0.001333572,0.0009400502000000001,-0.00021563059999999998,5.559,0,0
0.0014600256000000002,0.00046302440000000006,0.0012512040000000001,0.0009306970000000001,-0.00016387539999999999,5.56,0,0
0.0019175714000000002,0.0016257184,0.00095811178,0.0009057456,-4.9735379999999956e-05,5.561,0,0
0.0031717360000000005,0.0027293864,0.00031193617999999995,0.00037578039999999996,-0.00050038438,5.562,0,0
0.003901214,0.0032420540000000003,2.6969179999999964e-05,-7.845260000000003e-05,-0.00090654118,5.563,0,0
0.003631532,0.003189432,-2.7853420000000035e-05,-0.00019405460000000002,-0.00102644718,5.564,0,0
0.003612692,0.0030656060000000002,-0.00017772262000000002,-0.000383433,-0.00177645038,5.565,0,0
0.00321875,0.0028978260000000005,-0.0006041244000000001,-0.00035898160000000007,-0.0020668120000000003,5.566,0,0
0.001718356,0.0026155660000000006,-0.0018689148,-8.698440000000005e-05,-0.00181111,5.567,0,0
0.000470986,0.0024404180000000006,-0.0038036438,0.0001672944,-0.0020612240000000004,5.568,0,0
-0.00011947059999999993,0.0022892719999999997,-0.0055765712,0.0002673882,-0.0018197300000000003,5.569,0,0
-0.0010447726,0.0019571740000000003,-0.006519540000000001,0.0003505996,-0.0009873786000000001,5.57,0,0
-0.0017482066000000002,0.00189604,-0.0065074339999999994,3.834759999999998e-05,-0.0005367534,5.571,0,0
-0.00133434674,0.001728162,-0.004426975999999999,-0.0006720904,-0.00039905340000000004,5.572,0,0
-0.00100577994,0.0010123040000000001,0.00026348400000000003,-0.0010190482000000001,0.0003244794,5.573,0,0
-0.0007666543400000002,0.000340458,0.0039206860000000005,-0.0010766364,0.0007377174000000001,5.574,0,0
0.00031519766000000004,-0.000136,0.0048097856,-0.0011133218000000003,0.0004247776,5.575,0,0
0.00093541526,-0.000821286,0.004823781599999999,-0.0010169758,0.0005045963999999999,5.576,0,0
0.0008448980000000001,-0.0013171020000000001,0.0034603556,-0.0006942392,0.0008493584000000001,5.577,0,0
0.0013583732,-0.0010086519999999999,-2.187640000000002e-05,-0.0003943780799999999,0.0010208276,5.578,0,0
0.0017971082,-3.893399999999991e-05,-0.0025822764,-0.00054526708,0.0012118136,5.579,0,0
0.0005617421999999998,0.0006942300000000001,-0.0028149924,-0.00062509728,0.0017398460000000002,5.58,0,0
-0.0005591134000000003,0.0009709988000000002,-0.0024519425999999997,-0.00042044608,0.0018523300000000001,5.581,0,0
-0.0010211480000000002,0.0010895289999999999,-0.0021318286,-0.00042053808000000004,0.001848892,5.582,0,0
-0.0022921940000000004,0.000395575,-0.0012350032,-0.0003108124,0.001995402,5.583,0,0
-0.0019064380000000003,-0.000714831,-0.00023768919999999998,8.0427e-05,0.001804848,5.584,0,0
0.001003402,-0.001491189,-0.00020143460000000002,0.00021508724000000003,0.00147983496,5.585,0,0
0.0028873500000000003,-0.0021427397999999997,-0.0001182712,0.00029894504,0.00088688296,5.586,0,0
0.0031893700000000004,-0.0027624419999999995,0.00047717880000000003,0.0005997310400000001,0.00045109896,5.587,0,0
0.0036652938000000003,-0.002634688,0.0002449472,0.0005689280400000001,-0.00013812483999999994,5.588,0,0
0.0027918358,-0.0021771714,-0.0008361448000000001,0.00042801864000000005,-0.0009090368400000001,5.589,0,0
0.00011178380000000012,-0.0022527594,-0.0018338650000000003,0.0005449902,-0.0010068674,5.59,0,0
-0.0014758962,-0.0020836234000000003,-0.0031181922000000006,0.0005931830000000001,-0.0007262596000000001,5.591,0,0
-0.0012354135800000002,-0.0012119952,-0.0044251022,0.0006594624,-0.0008023134000000001,5.592,0,0
-0.0012270561800000002,-0.00035768520000000007,-0.00551553,0.0008417466,-0.0009546056000000001,5.593,0,0
-0.00145939478,-0.00019455320000000002,-0.005293422000000001,0.000648213,-0.0007799496,5.594,0,0
-0.0007462707800000002,9.975059999999993e-05,-0.0023540080000000003,0.00023804280000000005,-0.001122398,5.595,0,0
0.00020284322,0.0007136452,0.0008821699999999998,-0.00010274899999999996,-0.0014125578,5.596,0,0
0.00015553479999999998,0.001017993,0.0029599300000000004,-0.000169939,-0.000825152,5.597,0,0
0.0001956792,0.001183375,0.004875078000000001,-0.00017536900000000003,-0.00015622000000000005,5.598,0,0
0.0007966997999999999,0.0015531764,0.006019396000000001,-0.00014729640000000002,0.00046243000000000006,5.599,0,0
0.000432661,0.0017276006000000001,0.005055802000000001,0.00045197559999999996,0.001291888,5.6,0,0
2.2411199999999973e-05,0.001421724,0.003771738,0.0009767036,0.0015047862,5.601,0,0
0.0002188192,0.001203352,0.003459624,0.0008815510000000001,0.0008908222000000001,5.602,0,0
0.0001939874,0.0007788803999999999,0.00339921,0.000612451,0.0007883962000000001,5.603,0,0
-0.00013261319999999997,0.0001490524,0.0032913340000000004,0.0006406054000000001,0.0006706902,5.604,0,0
0.00013586740000000002,-2.760639999999998e-05,0.002269141,0.0005759314,-0.00015821179999999995,5.605,0,0
0.0001170768,-7.44436e-05,0.001185887,0.0004437260000000001,-0.0005478939999999999,5.606,0,0
-0.0007883174000000001,-0.0005368936,0.0003836732000000001,0.0004393968000000001,-0.000685094,5.607,0,0
-0.0010469452000000001,-0.000946352,-0.0003175758,0.0005705334,-0.0015201379999999999,5.608,0,0
-0.0010875282000000002,-0.00109142,-0.0001149578,0.0003965226000000001,-0.0023713420000000002,5.609,0,0
-0.0014366740000000002,-0.0010070985599999998,0.0013429132000000003,-0.00014358539999999998,-0.002539022,5.61,0,0
-0.0012672092000000001,-0.00066585436,0.0029187472000000002,-0.000307892,-0.0026445960000000004,5.611,0,0
-2.1920000000004696e-07,-0.00029086976,0.003302287,-0.0005295348,-0.0028506900000000003,5.612,0,0
0.0007575108,0.00012624784000000002,0.0034441276000000006,-0.0009129654000000001,-0.0027920640000000004,5.613,0,0
0.0007388668,0.00040362068,0.0031809396000000005,-0.0009530065999999999,-0.0023800620000000005,5.614,0,0
0.0014174888,0.00054598284,0.0019892160000000002,-0.0007128106,-0.0021605520000000005,5.615,0,0
0.0016633724,0.00056190404,0.0005252820000000001,-0.0005954292,-0.0019221440000000002,5.616,0,0
0.0008227964000000001,0.00048370844,-0.00025234,-0.00028983300000000003,-0.0012426586000000002,5.617,0,0
0.0007025624,0.00041772684000000005,-0.0006798076000000001,4.3913999999999864e-06,-0.0006769194,5.618,0,0
0.0009750760000000001,0.00042101426000000004,-0.0013231016000000001,-1.3326000000000353e-06,-0.00033338860000000004,5.619,0,0
0.00012210400000000005,0.00036677066,-0.0016744600000000002,-0.00015152460000000004,0.00019214820000000002,5.62,0,0
-0.00022502099999999997,0.00027099606,-0.0022118520000000003,-0.00044607820000000005,0.0008065622,5.621,0,0
0.00036119100000000007,0.00031226906000000003,-0.0023846540000000004,-0.0004541454000000001,0.0009529008000000001,5.622,0,0
-0.00022103900000000005,0.00016804806000000002,-0.0021628692,-9.230380000000002e-05,0.0011258516,5.623,0,0
-0.0012696390000000001,-0.0002495682,-0.0019834366,0.0006751022,0.0015121088000000001,5.624,0,0
-0.0011208630000000002,-0.0006045074000000001,-0.0018543976000000002,0.0014966262,0.001609198,5.625,0,0
-0.001373606,-0.000984445,-0.0015407416000000002,0.0022014924,0.001664272,5.626,0,0
-0.0022484740000000003,-0.001650535,-0.0013928416,0.0024957,0.002145058,5.627,0,0
-0.00212486,-0.0016524964000000002,-0.0029283844,0.0020305343999999998,0.00257611,5.628,0,0
-0.0016742979999999998,-0.0007793064000000001,-0.004722553,0.0010222744000000002,0.002483522,5.629,0,0
-0.0018536059999999998,-0.00035582760000000006,-0.00531069,-0.00013550360000000002,0.00271791,5.63,0,0
-0.0015561867999999998,-0.00013380320000000003,-0.0055305860000000005,-0.0007223743999999999,0.0029928280000000003,5.631,0,0
-0.00043283480000000005,0.0006197548,-0.005585564,-0.0012182264,0.0025811220000000004,5.632,0,0
-5.85118e-05,0.0009855312,-0.003978664200000001,-0.0016496208000000001,0.0023321780000000003,5.633,0,0
0.00021219519999999994,0.000613206,-0.0019339604,-0.0014380908,0.0021335440000000002,5.634,0,0
0.0013297192,0.0007613512,-0.0011069022,-0.0011329928,0.0015381824000000003,5.635,0,0
0.001913334,0.0015427028,2.951179999999997e-05,-0.0012480476000000002,0.0010189776,5.636,0,0
0.0014900730000000002,0.0019816048,0.0009948258,-0.0013446334000000002,0.0002513236000000001,5.637,0,0
0.0011769716,0.0022862128,0.0011578482,-0.0008958337999999999,-0.0007403004,5.638,0,0
0.001123428,0.0026413319999999997,0.0013131844,-0.0008775258,-0.0012418144,5.639,0,0
1.3970000000000139e-05,0.0024301291999999997,0.0014980022,-0.0011874937999999998,-0.0012485034,5.64,0,0
-0.00140912,0.0017887405999999998,0.0011611984000000001,-0.001033714,-0.0013225084,5.641,0,0
-0.001860267,0.0010244815999999998,0.000905278,-0.0010985122,-0.0011387244,5.642,0,0
-0.0023228466,-0.00018523439999999997,0.0010073118000000002,-0.0013429078,-0.0008450824000000001,5.643,0,0
-0.0030203779999999998,-0.0014089564,0.0006541256000000001,-0.0007643377999999999,-0.0007735004,5.644,0,0
-0.002871774,-0.0019920416,0.00025054579999999997,-6.395620000000001e-05,-0.0006685394,5.645,0,0
-0.0021661434000000003,-0.0022925610000000003,0.0003294984,-0.0002765023999999999,-0.0007933284000000001,5.646,0,0
-0.0021431434,-0.002454684,0.0005129488000000001,-0.0002387744,-0.00035138040000000007,5.647,0,0
-0.0013494286,-0.0019310608000000003,0.0009592848000000002,0.00016670559999999994,9.803980000000002e-05,5.648,0,0
0.00026168739999999995,-0.0008632268,0.001714189,-0.0001455014,0.0001678126,5.649,0,0
0.0006896426000000002,0.00011328120000000003,0.0023132668000000003,-0.000546787,0.0005845902,5.65,0,0
0.0009000042000000001,0.0007438372000000001,0.0027821060000000003,-0.0003471982000000001,0.0007416930000000001,5.651,0,0
0.0018499602,0.0013174432000000002,0.0028674600000000005,-0.00017024920000000002,0.0005679260000000001,5.652,0,0
0.0021912754,0.0018441280000000002,0.002792372,-0.0003497476,0.0007308138,5.653,0,0
0.0014888964,0.0017308802000000002,0.0020569278,-0.0005089928,0.001332687,5.654,0,0
0.0016689772000000002,0.0012881262000000002,0.00042067379999999994,-0.00020886900000000004,0.0015384090000000001,5.655,0,0
0.0016798502,0.0010029024,-0.0013586981999999998,0.00030400020000000003,0.0015090934000000001,5.656,0,0
9.498819999999991e-05,0.0005304912000000002,-0.0024222382000000002,0.0010562892000000003,0.0013448502,5.657,0,0
-0.0007591458,-0.00010921480000000003,-0.0033722742,0.0016836116000000002,0.0007082822,5.658,0,0
-0.0008380338,-0.000661231,-0.003347276,0.0016943178000000001,-0.00024859179999999994,5.659,0,0
-0.0019091758,-0.001517125,0.00013429400000000008,0.001531739,-0.0012750638000000002,5.66,0,0
-0.0022269169999999997,-0.0024668552,0.004314054,0.0010378590000000001,-0.0018315362,5.661,0,0
-0.000939851,-0.0026074080000000003,0.006415304,0.0005965090000000001,-0.002311304,5.662,0,0
-0.0007496983999999998,-0.0024324814000000004,0.007179738000000001,0.000263669,-0.002801762,5.663,0,0
-0.0009842694,-0.0025380834,0.006979368,0.00023386179999999998,-0.0030249940000000005,5.664,0,0
0.0003731886000000002,-0.0017429314000000002,0.004370895999999999,0.00038860420000000004,-0.003631276,5.665,0,0
0.0014316986000000001,-0.00035621139999999997,0.0007809440000000003,-1.1989800000000066e-05,-0.004136546,5.666,0,0
0.0013755806000000001,0.00011183680000000006,-0.0013844920000000002,-0.0007681118000000001,-0.004194808,5.667,0,0
0.0024007380000000004,0.0005089402000000001,-0.002097142,-0.0013578678,-0.004459358,5.668,0,0
0.00367606,0.0016096942000000001,-0.0009267160000000003,-0.0014989586000000003,-0.004417482,5.669,0,0
0.0032930920000000005,0.0021408142,0.0006777079999999996,-0.0014196536,-0.003527521,5.67,0,0
0.0026489846000000007,0.0017196364000000004,0.0015721779999999996,-0.0007541595999999999,-0.002297993,5.671,0,0
0.0021959838000000006,0.0012638482,0.001898586,0.0002619824,-0.0011968050000000002,5.672,0,0
0.0004781138000000001,0.0004098702000000002,0.0013481279999999997,0.0017085984000000001,0.000700881,5.673,0,0
-0.0017560222,-0.0009732618000000001,-0.00043572800000000035,0.0034330224,0.002511749,5.674,0,0
-0.0029622462,-0.0023737158,-0.0028854460000000003,0.004782382,0.003323664,5.675,0,0
-0.0041060428,-0.0034043640000000004,-0.005244824,0.00584168,0.0042512620000000004,5.676,0,0
-0.005222114,-0.003653756,-0.006784450000000001,0.00626717,0.005232148000000001,5.677,0,0
-0.005399244,-0.003567742,-0.007729364000000001,0.005958764,0.0058076280000000004,5.678,0,0
-0.00503494,-0.003214844,-0.008999159999999999,0.00508548,0.006269932000000001,5.679,0,0
-0.005099376,-0.002545976,-0.008357997999999998,0.0036219634200000002,0.0069268340000000015,5.68,0,0
-0.005147822,-0.0019434640000000002,-0.005639388,0.00191352942,0.006767282,5.681,0,0
-0.0037941421999999995,-0.0011651139999999999,-0.0033216700000000005,0.0006049574200000004,0.006311814000000001,5.682,0,0
-0.0024643562,3.4609999999999914e-05,-0.0011565900000000007,-0.0007723505800000001,0.005633014,5.683,0,0
-0.0012601741999999998,0.0012990179999999999,0.001736638,-0.0025736605800000005,0.0038619742000000007,5.684,0,0
0.0015842398000000001,0.002416872,0.00383213,-0.004601508000000001,0.0011718882000000001,5.685,0,0
0.0051940358,0.0034758440000000005,0.004292722,-0.006616512,-0.0019501858000000002,5.686,0,0
0.008582220000000002,0.004140938,0.0046712080000000005,-0.008334528,-0.0044796518000000006,5.687,0,0
0.012090860000000002,0.004445418,0.004780014000000001,-0.0096161,-0.006681093800000001,5.688,0,0
0.014576374000000001,0.004854644,0.004386244000000001,-0.009943420000000001,-0.00823884,5.689,0,0
0.014274080000000001,0.00492737,0.0034065040000000003,-0.009017796,-0.007983744000000001,5.69,0,0
0.012393028000000002,0.004464134000000001,0.002196815,-0.007259306000000001,-0.006538240000000001,5.691,0,0
0.009480964,0.0038591600000000004,0.0015948654000000001,-0.005652722,-0.005548504000000001,5.692,0,0
0.005100398000000001,0.0029310500000000006,0.0011706352,-0.00439829,-0.00450982,5.693,0,0
0.0013324,0.001461592,0.0008027091999999999,-0.003032334,-0.0033277280000000003,5.694,0,0
-0.0005570899999999999,0.00029941820000000004,0.0003733698000000001,-0.0016626539999999997,-0.002863696,5.695,0,0
-0.001608308,-0.00041597180000000006,0.0002586508,-0.0005942259999999998,-0.0027216900000000006,5.696,0,0
-0.003145334,-0.0016055678,-0.00021211760000000002,0.0007415940000000002,-0.0023660200000000004,5.697,0,0
-0.004188306000000001,-0.0026678478000000004,-0.0008336754,0.0026271560000000003,-0.0018178764000000003,5.698,0,0
-0.004563416000000001,-0.0034240778000000005,-0.0009215892000000001,0.004079316,-0.0012757884000000003,5.699,0,0
-0.005848402000000001,-0.004720042,-0.00110802772,0.005493662,5.041599999999996e-06,5.7,0,0
-0.007080624000000001,-0.0055363700000000005,-0.00143658572,0.007272124,0.0019354456,5.701,0,0
-0.007396576000000001,-0.005406698,-0.00178099372,0.00845466,0.0040629536,5.702,0,0
-0.008311798,-0.005349726,-0.0015883797200000002,0.00950237,0.0066981140000000015,5.703,0,0
-0.010744110000000001,-0.005218666,-0.0015559979200000002,0.01062385,0.010034974000000002,5.704,0,0
-0.013068414,-0.004629846,-0.0015849092,0.010859434000000001,0.012776824,5.705,0,0
-0.015319122000000001,-0.003817338,-0.0007936712000000002,0.010272422,0.014656210000000001,5.706,0,0
-0.01759034,-0.0030145131,0.0003578128,0.009051104,0.01602542,5.707,0,0
-0.01713826,-0.0015944410999999999,0.0008810418000000001,0.006441078000000001,0.014549412000000001,5.708,0,0
-0.013219068,0.0006002948999999999,0.00015197380000000007,0.0023537560000000007,0.009766352,5.709,0,0
-0.006459807999999999,0.0033125989,-0.0014817989999999998,-0.002274318,0.003742352,5.71,0,0
0.0027799719999999995,0.0062271429000000005,-0.0037457870000000004,-0.006621666,-0.0021344479999999997,5.711,0,0
0.012834972,0.008378768,-0.0061298970000000005,-0.009745988,-0.006724208000000001,5.712,0,0
0.020102452,0.008975136,-0.007574344,-0.010943092,-0.008378482000000001,5.713,0,0
0.0227329,0.007540438600000001,-0.005586250000000001,-0.010041504,-0.007676276000000001,5.714,0,0
0.021968460000000002,0.0050972566,-0.0009869560000000006,-0.007911654,-0.007855996,5.715,0,0
0.018150426000000004,0.0029178685999999994,0.0026628859999999997,-0.005931107999999999,-0.009752256,5.716,0,0
0.012424422000000001,0.0014381125999999998,0.006185815999999999,-0.0041109860000000005,-0.012105735999999999,5.717,0,0
0.008370062000000001,0.0005470946000000001,0.009615788,-0.002869196,-0.014277033999999997,5.718,0,0
0.006799492000000001,0.0006318657400000001,0.009829186,-0.002384806,-0.014472948,5.719,0,0
0.0051782600000000005,0.00100897774,0.008130296,-0.001411134,-0.010185323999999999,5.72,0,0
0.003238782,-4.860826000000005e-05,0.007214510000000001,0.0004135600000000001,-0.002871504,5.721,0,0
0.0020188159999999997,-0.00146317626,0.0057274296,0.0023845820000000005,0.0037390760000000005,5.722,0,0
0.00021414199999999974,-0.00236200226,0.0033570576000000007,0.004002898000000001,0.009113696000000001,5.723,0,0
-0.002754574,-0.0031749380000000004,0.0012198616000000002,0.005172220000000001,0.012550664000000001,5.724,0,0
-0.005316082000000001,-0.003341372,-0.0007656344000000001,0.005601898000000001,0.012750878000000002,5.725,0,0
-0.00776003,-0.0027863868000000003,-0.0023152584,0.0045032358,0.009270960000000002,5.726,0,0
-0.010893280000000002,-0.0025353028,-0.002077834,0.0012883498000000003,0.001812760000000001,5.727,0,0
-0.012950786000000002,-0.0026750328,-0.001288576,-0.0026915662000000003,-0.0073057400000000015,5.728,0,0
-0.012558876,-0.0022684508000000003,-0.0016935579999999997,-0.0061935442000000005,-0.015143,5.729,0,0
-0.0103526134,-0.0015768987999999996,-0.002043792,-0.008956386200000001,-0.019656898,5.73,0,0
-0.005586473400000001,-0.0010852659999999999,-0.002132204,-0.009559026,-0.019157184799999998,5.731,0,0
0.0015622066000000002,-3.6808000000000045e-05,-0.002933926,-0.007835133800000001,-0.013268712800000002,5.732,0,0
0.0065496866,0.001158274,-0.0030636339999999995,-0.005176145400000001,-0.0049612128,5.733,0,0
0.0078704028,0.0015522574419999998,-0.0010687699999999997,-0.0021633994,0.0021038012000000003,5.734,0,0
0.007777418800000001,0.0015698674420000001,0.0018913180000000003,0.0002972866000000001,0.0061917912,5.735,0,0
0.006374692800000001,0.0015763374419999999,0.004011998,0.0013771746,0.0074095340000000015,5.736,0,0
0.0035234088,0.0015455874420000001,0.004799388000000001,0.0018558144,0.007582896,5.737,0,0
0.0019079288000000002,0.0018782854420000001,0.004019840000000001,0.0022890280000000002,0.0074342720000000004,5.738,0,0
0.0028813186,0.00227896,0.00024189000000000025,0.0019613716,0.007446330000000001,5.739,0,0
0.003394544,0.0020800426000000005,-0.005974458,0.0013931746,0.007892904000000003,5.74,0,0
0.0026518956,0.0020621986,-0.012688644,0.0012852686,0.008342212000000002,5.741,0,0
0.0023386316,0.0019186166000000004,-0.01836351,0.0011344566,0.007903706,5.742,0,0
0.0017652092000000003,0.001134899,-0.02056074,0.0010201986,0.005895711800000001,5.743,0,0
0.0004096532,0.0005326330000000001,-0.015293100000000002,0.0017286010000000002,0.0024830138000000003,5.744,0,0
7.400420000000003e-05,0.00016521640000000012,-0.0020367600000000003,0.004445534000000001,-0.0012575702,5.745,0,0
0.0005057426,-0.0006646216000000001,0.01365098,0.009573554,-0.004083988199999999,5.746,0,0
-1.1392000000000016e-05,-0.0016866436000000005,0.024834720000000005,0.016941336,-0.0060928342,5.747,0,0
-0.00017738160000000004,-0.001904246,0.029343466000000002,0.025797572000000005,-0.0060227324,5.748,0,0
0.0004318204,-0.001985852,0.024275086000000005,0.03340318,-0.0036673804000000006,5.749,0,0
0.0003982598,-0.0025846660000000002,0.006613426,0.03668128,-0.0007913003999999999,5.75,0,0
0.0004777598,-0.0029066640000000006,-0.013227174,0.03443554,0.0019934836,5.751,0,0
0.0013492084000000003,-0.0027087140000000005,-0.025415834,0.025590972000000003,0.0045028356,5.752,0,0
0.0006231404000000001,-0.0026357352000000002,-0.03000496,0.010358632,0.007015272000000001,5.753,0,0
-0.0023607956,-0.0023441956200000004,-0.026709986,-0.0077980079999999995,0.009225166,5.754,0,0
-0.005668670000000001,-0.00144317262,-0.015593746000000002,-0.025757828000000003,0.010515906000000002,5.755,0,0
-0.009720194000000001,-0.00068646162,-0.002524266000000001,-0.04114680800000001,0.010145771999999999,5.756,0,0
-0.0149573,-0.00045399762000000005,0.009581234000000001,-0.05026458,0.007478524,5.757,0,0
-0.018464160000000004,-0.00028241442,0.021490474000000002,-0.05152884,0.0028900240000000006,5.758,0,0
-0.018706940000000002,6.589600000000002e-05,0.027319420000000004,-0.0462868,-0.001739572,5.759,0,0
-0.017039322000000003,0.0005687590000000001,0.023645248000000004,-0.035980612,-0.004431190000000001,5.76,0,0
-0.011728122,0.001618402,0.014474428000000001,-0.023285378,-0.005246606000000001,5.761,0,0
-0.0015688819999999997,0.00300077,0.0019169480000000017,-0.011176554000000002,-0.0032356300000000006,5.762,0,0
0.008490418,0.003315446,-0.011675631999999998,-0.0006428139999999998,0.0012903900000000002,5.763,0,0
0.014685958000000002,0.00173343,-0.0180988486,0.008026306,0.0052215460000000005,5.764,0,0
0.017660196000000003,-0.0007389100000000002,-0.0144430766,0.013482698000000001,0.007107350000000001,5.765,0,0
0.015427816000000002,-0.0037925780000000004,-0.005333816599999998,0.016435904,0.007523456000000001,5.766,0,0
0.007134296000000002,-0.0069347700000000016,0.0048761234,0.0177842,0.006200532,5.767,0,0
-0.0015689839999999998,-0.007971496000000002,0.0119724034,0.01685762,0.0011030519999999998,5.768,0,0
-0.008302104000000001,-0.0066869138,0.01192554,0.01492914,-0.006297528000000001,5.769,0,0
-0.01417848,-0.0047816732,0.007183480000000001,0.014084979999999999,-0.012014034000000002,5.77,0,0
-0.01831778,-0.0027517054000000007,0.0027145399999999997,0.015240440000000001,-0.014112358000000002,5.771,0,0
-0.020813500000000002,-0.0010429414,-0.00164465,0.017470680000000002,-0.012376706000000001,5.772,0,0
-0.02179828,-0.0003732166,-0.006159148000000001,0.019058600000000002,-0.007760550000000001,5.773,0,0
-0.019426878,-4.789480000000004e-05,-0.008700788000000001,0.017723344000000002,-0.0025003212,5.774,0,0
-0.012952538,0.0004302926000000001,-0.007775894000000001,0.012866036,-0.00043746119999999995,5.775,0,0
-0.003991237999999999,0.0012782768000000001,-0.006913356000000002,0.005062396,-0.0035427451999999996,5.776,0,0
0.0067186220000000005,0.0028827388000000004,-0.006309116000000002,-0.005185204000000001,-0.010100175199999999,5.777,0,0
0.017918742,0.005594964000000001,-0.00013225800000000055,-0.015098044000000001,-0.015422191200000001,5.778,0,0
0.026589300000000003,0.009693216000000001,0.009905322000000001,-0.021338888,-0.015919015999999998,5.779,0,0
0.029728340000000002,0.014058272,0.015428548,-0.02341214,-0.012115649999999999,5.78,0,0
0.02756898,0.01705106,0.017264432,-0.021385904,-0.005793456,5.781,0,0
0.02265522,0.01843556,0.019979642000000002,-0.014691816,0.0006386279999999998,5.782,0,0
0.015122556,0.01783738,0.018338002000000003,-0.005338415999999999,0.005371012,5.783,0,0
0.00725381,0.015277532,0.011492598,0.0049046440000000005,0.008000408,5.784,0,0
0.002994276,0.012372405999999999,0.006158190000000001,0.013788624,0.008957242,5.785,0,0
0.001659982,0.009690404000000001,0.002628684,0.018406788,0.008924692,5.786,0,0
0.001314578,0.003327824000000001,-0.0032718160000000003,0.01885788,0.008006332000000001,5.787,0,0
0.0015933603000000001,-0.009210116,-0.010196196000000001,0.015284908,0.005378946,5.788,0,0
0.0009519523000000002,-0.020069908,-0.014184631999999999,0.0067938880000000005,-7.7274e-05,5.789,0,0
-0.0011599897,-0.024054642,-0.016248144,-0.0043264720000000005,-0.007148194,5.79,0,0
-0.00183779836,-0.024507924000000004,-0.0177963,-0.014911172000000002,-0.011986418,5.791,0,0
-0.0005282083599999999,-0.019709610000000006,-0.01795762,-0.023211272000000005,-0.012128799400000003,5.792,0,0
0.0010102633400000001,-0.008243062,-0.01742818,-0.025948360000000004,-0.008348497400000002,5.793,0,0
0.0029600093400000004,0.0008806966000000001,-0.01710126,-0.022364828000000003,-0.0011313774000000004,5.794,0,0
0.00593166734,0.0025877506,-0.014600364000000001,-0.015329778000000002,0.007862522600000001,5.795,0,0
0.00807791,0.0010585366000000005,-0.010651434000000001,-0.007656480000000001,0.0149651226,5.796,0,0
0.007062508000000001,-0.0013691394,-0.009080374000000002,-0.0008013579999999997,0.01962256,5.797,0,0
0.004607012000000001,-0.0030124694000000004,-0.006772554,0.0033115520000000006,0.02248338,5.798,0,0
0.00192005,-0.0030180834,-0.0035554992000000007,0.0035661852000000004,0.022986680000000002,5.799,0,0
-0.002296052,-0.0026775184000000004,-0.0038297952000000005,0.0024699572,0.0216081,5.8,0,0
-0.005719856000000001,-0.0016471234000000005,-0.0031714971999999998,0.0016179092000000003,0.019515666,5.801,0,0
-0.004899994,0.0010254106,0.0017258828000000003,0.0008606516,0.016422074000000002,5.802,0,0
-0.0019525280000000002,0.0037399326000000003,0.006743762800000001,0.0007753495999999998,0.012007237999999998,5.803,0,0
0.0011314659999999998,0.005670968,0.014146168,0.0016365643999999998,0.0077105548,5.804,0,0
0.005821626,0.007896929,0.024878688000000003,0.0027137104,0.0018685948000000002,5.805,0,0
0.01072839,0.009059216,0.0306994,0.0035813083999999998,-0.0088393712,5.806,0,0
0.012299544,0.008096896,0.0309445,0.005833644000000001,-0.0218417192,5.807,0,0
0.011470404,0.005672785999999999,0.028159272,0.012310896,-0.032074623200000006,5.808,0,0
0.008663452,0.0013266660000000007,0.0207024968,0.022766636,-0.03781242,5.809,0,0
-0.0011246879999999996,-0.004363434,0.01110339468,0.034487748000000006,-0.036707118000000004,5.81,0,0
-0.017702828000000004,-0.009912598,0.00374574868,0.04527438,-0.026650798000000003,5.811,0,0
-0.035622468000000004,-0.01584503,-0.0003603053199999999,0.05091942000000001,-0.011958098,5.812,0,0
-0.05272088800000001,-0.02152902,-0.00251970732,0.04740452,0.002014402000000001,5.813,0,0
-0.06692796000000001,-0.02594252,-0.00404175012,0.03593159274,0.013266662000000002,5.814,0,0
-0.07134086,-0.0282633,-0.005182014,0.019287392740000003,0.02114202,5.815,0,0
-0.06479522,-0.025739502,-0.00627833,-0.0009458872599999984,0.024546380000000003,5.816,0,0
-0.052753839999999996,-0.018436578,-0.006804626,-0.02144078726,0.022384612000000005,5.817,0,0
-0.035679728,-0.008529157999999998,-0.007876756,-0.038914147260000004,0.015997782000000002,5.818,0,0
-0.014167968000000005,0.0030464220000000013,-0.012968658000000001,-0.05212174000000001,0.007148082000000001,5.819,0,0
0.008512832000000001,0.014240362000000003,-0.021147512,-0.060669560000000004,-0.003859237999999999,5.82,0,0
0.031165332,0.022243244000000002,-0.028155970000000002,-0.06303534000000001,-0.016171438000000003,5.821,0,0
0.05298283200000001,0.02654772,-0.03209498,-0.057424420000000004,-0.025113530000000002,5.822,0,0
0.07001608000000001,0.027680780000000002,-0.030772274000000002,-0.045484396,-0.0275454,5.823,0,0
0.07982136,0.026030820000000003,-0.021471154000000003,-0.030505872,-0.025905864,5.824,0,0
0.08378746000000001,0.022898360000000003,-0.008747434000000002,-0.014562312,-0.020128098,5.825,0,0
0.08050404000000001,0.018128578000000003,0.006997866,0.0009459480000000003,-0.008698698000000001,5.826,0,0
0.06881662,0.011641614,0.026827206,0.013321948,0.004299062000000001,5.827,0,0
0.052345260000000005,0.005260444000000001,0.03832092,0.020965924000000004,0.014717962000000001,5.828,0,0
0.03380172000000001,0.0008604700000000001,0.03580527,0.02536904,0.022598626000000004,5.829,0,0
0.011855560000000001,-0.0010321100000000001,0.025551009999999996,0.027941740000000003,0.027554260000000004,5.83,0,0
-0.00938458,-0.0005960719999999996,0.007540549999999995,0.02885682,0.02917592,5.831,0,0
-0.024481379999999997,0.0023374520000000003,-0.017328930000000003,0.0274837,0.02741842,5.832,0,0
-0.03694062,0.006700322,-0.035352350000000005,0.023884419999999996,0.02240547,5.833,0,0
-0.044991180000000006,0.010796656000000002,-0.03739734,0.018742632000000002,0.0162343766,5.834,0,0
-0.0444511,0.013212256,-0.029680676,0.013002924400000003,0.0096695886,5.835,0,0
-0.039447720000000006,0.01373092,-0.018475196,0.0073648784,0.0020670686000000007,5.836,0,0
-0.031330024,0.012569692,-0.0047346160000000005,0.0024844264,-0.0045312714,5.837,0,0
-0.016943964000000002,0.008290404000000001,0.005917744000000001,-0.0005656636000000001,-0.0083069614,5.838,0,0
-0.0007505439999999997,-0.0026825960000000006,0.0073660900000000005,-0.0015982638200000001,-0.010497448000000001,5.839,0,0
