bandpass 1,bandpass 2,bandpass 3,bandpass 4,bandpass 5,time,onset,mark
-0.0057753760000000005,-0.001863124,-0.0005868038000000001,0.00033600679999999997,-0.0008082412,4.146,1,1
-0.006714096000000001,-0.0014988,-0.0011877758000000001,0.0005124974,-0.0025876092000000003,4.147,0,0
-0.007610154000000001,-0.001132028,-0.0016399778000000002,0.0008411473999999999,-0.0041814491999999995,4.148,0,0
-0.006407686,-0.00024858799999999984,-0.0019684952,0.0012961322,-0.0062308032,4.149,0,0
-0.0033020700000000007,0.0011863260000000001,-0.0019357340000000002,0.0013861462,-0.008543321999999999,4.15,0,0
0.00023272600000000016,0.001996304,-0.0012474848000000001,0.001110623,-0.008694192,4.151,0,0
0.002539664,0.0017286578,-0.0005544716,0.0011939044000000001,-0.0070788846,4.152,0,0
0.005523962,0.0018528758000000002,-0.0001118496,0.0012765264000000002,-0.005565102,4.153,0,0
0.00833829,0.0023907898,0.00037449360000000004,0.0007615422000000001,-0.0029644140000000003,4.154,0,0
0.008618928,0.0020238698000000005,0.0010122324000000002,0.00018065060000000012,0.00132462,4.155,0,0
0.007845598,0.0014966638000000001,0.0016328852,8.371400000000009e-05,0.00439593,4.156,0,0
0.007163755999999999,0.001202685,0.00206066,-0.0005906819999999999,0.006351704600000001,4.157,0,0
0.00413438,-0.000524593,0.0021450438,-0.00161169,0.008658862,4.158,0,0
-0.0007306399999999998,-0.002833327,0.0015777158000000004,-0.0016945878,0.009710336000000002,4.159,0,0
-0.0036955440000000003,-0.0038435170000000003,0.0005622198000000004,-0.0013529054,0.00872727,4.16,0,0
-0.006291312,-0.004683157,-0.0006942662,-0.0019388496,0.007326810000000001,4.161,0,0
-0.009623568,-0.005659924000000001,-0.0018927362,-0.0023435536,0.005278826,4.162,0,0
-0.010346254000000001,-0.005108200000000001,-0.0026606159999999998,-0.0020320496000000004,0.0013061160000000004,4.163,0,0
-0.008600546000000002,-0.0037125578000000003,-0.002951272,-0.0021122476,-0.0027058539999999997,4.164,0,0
-0.007619668,-0.0030967266000000004,-0.0030460240000000005,-0.0020563763200000004,-0.005493954,4.165,0,0
-0.0056574342,-0.0019204666000000004,-0.002986194,-0.0013353765200000002,-0.007958383999999999,4.166,0,0
-0.0015377262000000002,-1.9600599999999814e-05,-0.0025193280000000004,-0.0004955431200000002,-0.009823354,4.167,0,0
0.0013345537999999997,0.0014086654,-0.0014856320000000002,-3.459311999999998e-05,-0.009563552,4.168,0,0
0.0032546097999999997,0.0026997012,-0.0003609300000000002,0.0005773508800000001,-0.007878208,4.169,0,0
0.0063226818,0.004115524000000001,0.00037490800000000013,0.0011248092000000001,-0.0059230698,4.17,0,0
0.00883965,0.0045819020000000005,0.001387474,0.0013524094,-0.0030415818,4.171,0,0
0.008871661999999999,0.004093592000000001,0.002019686,0.001520808,0.0011741182000000003,4.172,0,0
0.008688828,0.0038755359999999997,0.0017458355999999998,0.0015395586,0.0053546662,4.173,0,0
0.008335228,0.00310333,0.0017701256,0.0012660518,0.0082552022,4.174,0,0
0.005168876,0.001632104,0.0017876816,0.0006750876000000001,0.010879556,4.175,0,0
0.0012264839999999997,0.000571288,0.0010210076,0.00032454300000000005,0.01205,4.176,0,0
-0.0011966980000000004,-0.00014224599999999995,0.000448629,1.8447000000000035e-05,0.010572330000000001,4.177,0,0
-0.004297202,-0.001587902,4.766340000000001e-05,-6.140399999999993e-06,0.008247786,4.178,0,0
-0.007901526,-0.003015598,-0.0010095706,0.00042215639999999995,0.005017628,4.179,0,0
-0.008584598000000002,-0.003136412,-0.0018409966000000003,0.00047192839999999996,-0.00023979199999999996,4.18,0,0
-0.008033172,-0.002772583,-0.0019539846,0.00025362900000000006,-0.005215252,4.181,0,0
-0.008082654,-0.0024087202,-0.0018679586,0.0004233232000000001,-0.008574342,4.182,0,0
-0.005768092,-0.0010232982,-0.0014179426,0.000753642,-0.011971218,4.183,0,0
-0.0015099879999999997,0.0009234558000000002,-0.0008033710000000001,0.00030233094,-0.01352158,4.184,0,0
0.0012399639999999999,0.0020270478,-0.000218861,-0.00019201486000000004,-0.011736776,4.185,0,0
0.003581936,0.0033417988000000003,0.00039132100000000003,-2.116786000000019e-05,-0.009184106,4.186,0,0
0.0071933,0.004949638,0.0006562732,-1.4400460000000104e-05,-0.0062553196,4.187,0,0
0.009129958,0.005284082,0.0009943792000000002,-0.00018477246000000004,-0.0015966576,4.188,0,0
0.008626044000000001,0.00466831,0.0014895716,0.0001882585999999999,0.0033078824,4.189,0,0
0.00851433,0.004205126,0.0019983416,0.0008205826,0.0066691984,4.19,0,0
0.0071676334000000015,0.0027406522,0.0023239476,0.0006570496,0.0099591484,4.191,0,0
0.0029162814000000007,0.00045760820000000004,0.002429324,0.000249868,0.012758102,4.192,0,0
-0.0005959746000000002,-0.0008877798,0.0023332239999999996,0.00010280939999999999,0.012771896000000001,4.193,0,0
-0.0028916346000000008,-0.0018932037999999998,0.0017789882000000003,-0.00021601579999999999,0.011373306,4.194,0,0
-0.006427288600000001,-0.0032769738,0.0010938958000000002,-0.00029859460000000005,0.009610954,4.195,0,0
-0.009028778000000001,-0.004031216,0.00029980780000000014,0.0003497834,0.005590198000000001,4.196,0,0
-0.008750028000000002,-0.003662732,-0.0004991242,0.000869231,-0.00042540200000000007,4.197,0,0
-0.008278088000000001,-0.0035465380000000006,-0.0010999122,0.00034836159999999993,-0.005280638000000001,4.198,0,0
-0.007767174000000001,-0.0033282240000000003,-0.0012461074000000001,-2.797919999999993e-05,-0.009481328,4.199,0,0
-0.004876322,-0.0019670720000000003,-0.0011261282000000002,2.6376399999999994e-05,-0.013621496000000002,4.2,0,0
-0.0012116580000000002,-0.0005362739999999999,-0.0009220648000000001,-0.00045719759999999994,-0.014538488000000002,4.201,0,0
0.0013497399999999999,0.00035045800000000005,-0.0002642182,-0.0009190831999999999,-0.012265210000000002,4.202,0,0
0.004546336,0.0013046800000000003,0.00024340580000000003,-0.0008360632,-0.009325360000000001,4.203,0,0
0.008272392,0.00215793,0.00024306280000000005,-0.0010006932,-0.005473416000000001,4.204,0,0
0.009788940000000001,0.002230632,0.00039411720000000005,-0.001457658,-6.476000000000051e-06,4.205,0,0
0.010014120000000001,0.00191387,0.0006902418000000001,-0.0012611054,0.0048621720000000005,4.206,0,0
0.010160444,0.0016389868,0.0007032252,-0.0009470469999999998,0.008427614,4.207,0,0
0.007656517800000001,0.0007370728000000001,0.0005856672000000001,-0.0009406469999999998,0.011646144,4.208,0,0
0.003230759800000001,-0.0005206852000000001,0.0005194188000000001,-0.0005289228,0.013113060000000003,4.209,0,0
3.8241799999999895e-05,-0.0014362452000000001,7.16696e-05,-0.00010641419999999997,0.01164166,4.21,0,0
-0.0032778162000000003,-0.0022438692,-0.0009083904000000002,-0.0002980516,0.0087921178,4.211,0,0
-0.0073521561999999995,-0.0031997580000000005,-0.0018470744,-0.00024682940000000003,0.0054235918000000004,4.212,0,0
-0.009143116000000001,-0.003417724,-0.0023946864,0.0004357806,0.0005661758000000004,4.213,0,0
-0.008822008000000001,-0.0025527996000000003,-0.0023163218,0.0005061019360000001,-0.0045336042,4.214,0,0
-0.008885682000000002,-0.0022081956000000002,-0.0019788576000000003,0.00018432533600000003,-0.008265784200000001,4.215,0,0
-0.007577094,-0.0014381484000000001,-0.0013079614000000002,0.0004650973360000001,-0.011716482,4.216,0,0
-0.0037878979999999996,0.00038845159999999993,-0.0003476284,0.00040041701600000007,-0.014532936000000002,4.217,0,0
-0.0009337439999999999,0.0015204376000000001,0.0002768196,-0.00032913498400000005,-0.01455632,4.218,0,0
0.0010390260000000002,0.0019824312000000003,0.0008127614000000001,-0.00043692492,-0.012556276,4.219,0,0
0.004619998,0.0029032032000000005,0.0013755792,-0.00014744872000000005,-0.009568599,4.22,0,0
0.007738564,0.0032650380000000005,0.002125813,-0.00043555652,-0.004550159,4.221,0,0
0.00837216,0.0023208143999999997,0.002653978,-0.0006806948,0.0019142210000000002,4.222,0,0
0.009084150000000001,0.0017421808000000001,0.002752856,-0.0005150905999999999,0.007308481000000001,4.223,0,0
0.009289624,0.0011901514,0.002387878,-0.0004932482,0.011663777000000002,4.224,0,0
0.0059153719999999995,-0.00014130260000000015,0.001735074,-0.0007347774,0.015573120000000003,4.225,0,0
0.0016250759999999996,-0.0018091526,0.0011174256000000002,-0.0005626952,0.01662612,4.226,0,0
-0.0015773080000000004,-0.002788903,0.00043210360000000013,5.972680000000002e-05,0.014551646000000001,4.227,0,0
-0.005877186000000001,-0.0036050014,8.248740000000003e-05,0.0001310856,0.011605486,4.228,0,0
-0.010101220000000001,-0.004777976,-0.0003641846,0.00025476540000000003,0.007507592000000001,4.229,0,0
-0.01089852,-0.00450702,-0.0008677906000000001,0.0009877964000000001,0.0011723320000000003,4.23,0,0
-0.010173870000000002,-0.003266108,-0.0014300562000000001,0.0011328568,-0.0050004279999999995,4.231,0,0
-0.009978374000000002,-0.002559207,-0.0020956842,0.0008819502,-0.009468394000000002,4.232,0,0
-0.007681797999999999,-0.001273841,-0.0023869240000000003,0.0012043112,-0.013615334,4.233,0,0
-0.0037178839999999994,0.0009190970000000001,-0.0023147780000000004,0.0014105014,-0.01631394,4.234,0,0
-0.00119316,0.001869945,-0.0017145414000000001,0.0010295472,-0.015458038,4.235,0,0
0.0010641280000000001,0.0024855270000000004,-0.0009420754,0.0010159692,-0.012618827999999999,4.236,0,0
0.005047684,0.003989498,-0.0001593802,0.0011717238,-0.009283844,4.237,0,0
0.008383288000000001,0.004872162000000001,0.0007954458000000001,0.0006983698,-0.003976138000000001,4.238,0,0
0.009622634000000001,0.004701792,0.0016957898000000001,0.0001751398,0.0022667219999999997,4.239,0,0
0.010854422,0.004490642,0.0021889232000000002,1.998860000000016e-06,0.0070972,4.24,0,0
0.010752358,0.003960784,0.0023604552,-0.00033776374,0.01129083,4.241,0,0
0.007287046,0.002098022,0.0022509008,-0.00062421172,0.014773906000000002,4.242,0,0
0.003206456,0.0003112379999999999,0.0015967328,-0.00023762132000000006,0.015401999999999999,4.243,0,0
-3.1149999999999754e-05,-0.0007781380000000002,0.0008309288,1.371679999999991e-06,0.013557732,4.244,0,0
-0.00410113,-0.002146274,-0.0002565232000000001,-4.240838000000002e-05,0.010738556,4.245,0,0
-0.007729148,-0.0033923160000000003,-0.0015150972,0.00026367922,0.0062509160000000005,4.246,0,0
-0.00827797,-0.003388976,-0.00224013,0.0004068592,0.0001595559999999995,4.247,0,0
-0.008043100000000001,-0.003219182,-0.0031846979999999997,0.0003625082,-0.005261524,4.248,0,0
-0.008010582,-0.0031971559999999996,-0.003776792,0.0006567872000000001,-0.009251296,4.249,0,0
-0.005086012000000001,-0.0019449699999999999,-0.0032351286,0.0009302044,-0.012783100000000002,4.25,0,0
-0.0012799960000000003,-0.0005961740000000002,-0.00241180608,0.0006356006,-0.014176620000000003,4.251,0,0
0.0006847439999999997,0.0001402519999999999,-0.0015621958800000001,8.075260000000006e-05,-0.012342926,4.252,0,0
0.003639244,0.0014148280000000001,-0.00012335588000000008,-8.390960000000003e-05,-0.009779202,4.253,0,0
0.007802452,0.002783554,0.0013770401200000003,-0.00030284880000000004,-0.006398282000000001,4.254,0,0
0.009648602,0.002961648,0.0018958867200000002,-0.0011024908,-0.0006954420000000001,4.255,0,0
0.00989365,0.0031495560000000004,0.0021892522,-0.001319742,0.004904538,4.256,0,0
0.010332883999999999,0.0033902640000000005,0.002548774,-0.0011094962,0.008878164000000001,4.257,0,0
0.008142607999999999,0.001826316,0.0024775080000000002,-0.0018017234,0.012660120000000002,4.258,0,0
0.0032621559999999996,-0.000298544,0.001966658,-0.0020457701999999998,0.01513156,4.259,0,0
-0.0011037700000000002,-0.001402706,0.0013499478,-0.0011915142,0.014457726,4.26,0,0
-0.004891034000000001,-0.002768836,0.0009908410000000001,-0.0007939514,0.012154930000000001,4.261,0,0
-0.009010354,-0.004490926000000001,0.0002745704,-0.00020615519999999998,0.009115689599999999,4.262,0,0
-0.011291938000000001,-0.00473054,-0.0009731236000000001,0.0013036508,0.004067685600000001,4.263,0,0
-0.010556778,-0.0038751480000000006,-0.0018663616000000002,0.0019968548,-0.0021296144,4.264,0,0
-0.009895038,-0.0030110490000000005,-0.0020883094,0.0016845358000000003,-0.0073329604,4.265,0,0
-0.008445003999999999,-0.0016041190000000002,-0.0023932826000000003,0.0016928454,-0.0116377644,4.266,0,0
-0.004464004,0.0003711149999999999,-0.0024963380000000003,0.0011928244,-0.015155064000000001,4.267,0,0
-0.0009764300000000001,0.0019214570000000001,-0.00191328,2.718639999999998e-05,-0.015918540000000002,4.268,0,0
0.0010003599999999998,0.0027059170000000004,-0.0012336278000000002,-0.00039130140000000007,-0.014040678000000001,4.269,0,0
0.0039924,0.003311766,-0.0003081638,-1.5980400000000048e-05,-0.011223308000000001,4.27,0,0
0.007152726,0.0037170320000000003,0.0006121022000000001,7.578460000000003e-05,-0.006571920000000002,4.271,0,0
0.007554524000000001,0.0036273440000000007,0.0013981062000000002,-0.00010659840000000007,3.6259999999999765e-05,4.272,0,0
0.007540496000000001,0.0034968980000000005,0.0020280602,0.00014054100000000002,0.006129860000000001,4.273,0,0
0.0077274760000000005,0.003253872,0.0021322406,-0.000117401,0.011124138000000002,4.274,0,0
0.004954498000000001,0.00205081,0.0016407222,-0.000871647,0.015827748000000003,4.275,0,0
0.0008372760000000001,0.00032833800000000007,0.0008527342,-0.0011597494000000002,0.017593020000000004,4.276,0,0
-0.0016175000000000002,-0.000918658,0.0001611998,-0.0009866628,0.015759668,4.277,0,0
-0.00447382,-0.002126452,-0.0007041782000000001,-0.0011979342,0.013153310000000001,4.278,0,0
-0.008161778,-0.0031476180000000005,-0.0014928608000000002,-0.0012550944000000001,0.00879487,4.279,0,0
-0.008818504000000001,-0.0030098020000000002,-0.0019080704000000003,-0.0006153164,0.001649610000000001,4.28,0,0
-0.007468978000000001,-0.00223513704,-0.0019187044000000002,-0.0004346994000000001,-0.00546837,4.281,0,0
-0.006916202000000001,-0.0014614352400000002,-0.00223536,-5.252000000000002e-05,-0.011267598,4.282,0,0
-0.00475864,-0.00023117523999999993,-0.0024903860000000002,0.0007123520000000001,-0.01707208,4.283,0,0
-0.0004971739999999997,0.00123814476,-0.0019557126,0.0008050212,-0.020683020000000003,4.284,0,0
0.0023926600000000004,0.00202118676,-0.0011712766000000002,0.00057311696,-0.01999338,4.285,0,0
0.004323548,0.0025065278,-0.00027813260000000015,0.00086749496,-0.016933936,4.286,0,0
0.00728027,0.003298994,0.0009741374000000001,0.0008730849600000002,-0.012510260600000002,4.287,0,0
0.008945562,0.003336908,0.0025025694,0.00031034056,-0.0057389345999999996,4.288,0,0
0.008412908,0.0027810658,0.003520034,0.00044473016000000007,0.0023181853999999997,4.289,0,0
0.008307714,0.0024546532000000003,0.004009472,0.0005877095999999999,0.0088837254,4.29,0,0
0.007157156,0.0011755132,0.004030090000000001,2.8349600000000038e-05,0.0148241814,4.291,0,0
0.0032224159999999996,-0.0011581528000000002,0.0036951240000000006,-0.000299029,0.019667966000000002,4.292,0,0
-0.00020200600000000002,-0.0029540688,0.0030853432000000004,-0.0002462066,0.020478040000000003,4.293,0,0
-0.002441436,-0.0040046346,0.0022192350000000004,-0.0004045884,0.018142788000000003,4.294,0,0
-0.0059319460000000004,-0.005002228000000001,0.0012665016,-0.0003441096000000001,0.014259555999999998,4.295,0,0
-0.00875948,-0.005145348,0.00016160160000000003,0.00016139439999999995,0.007557962,4.296,0,0
-0.008141372000000001,-0.003990078,-0.0008939084,0.0003249046,-0.0012790780000000003,4.297,0,0
-0.006878433200000001,-0.00285711,-0.0013791136000000002,0.0002998689999999999,-0.008483818,4.298,0,0
-0.0060800672,-0.0020846123999999997,-0.001581841,0.0005811184,-0.014684706000000002,4.299,0,0
-0.0030240732,-0.0006493204,-0.0016773200000000002,0.0004981263999999999,-0.020527194,4.3,0,0
0.0006359088000000001,0.0011480656000000002,-0.001473996,-0.00022847960000000003,-0.02253648,4.301,0,0
0.0022632728,0.0018999596,-0.001349432,-0.0005688492,-0.020456226,4.302,0,0
0.00407814,0.0027127336000000004,-0.001048078,-0.00031563299999999995,-0.016801780000000002,4.303,0,0
0.006777312000000001,0.004095002,-0.0005062544,-0.0006223714,-0.011302248,4.304,0,0
0.007358390000000001,0.004037062000000001,-0.00015349199999999997,-0.0011475534,-0.002685448,4.305,0,0
0.006693298,0.0033610220000000004,-5.025999999999994e-05,-0.0007138314,0.006226392000000001,4.306,0,0
0.006628626,0.0031578420000000005,0.0005943360000000001,-0.0003763028,0.013758058,4.307,0,0
0.004636178,0.0018885040000000003,0.0006939848000000001,-0.0008627834,0.021319272,4.308,0,0
0.0005498640000000002,-0.00021128400000000006,4.6320800000000006e-05,-0.0008435464000000001,0.02696366,4.309,0,0
-0.0025059600000000002,-0.001367212,-2.0593400000000012e-05,-0.000415146,0.027629420000000002,4.31,0,0
-0.004550782000000001,-0.0023719300000000004,2.3532199999999978e-05,-0.0005536416,0.02451588,4.311,0,0
-0.007559462000000001,-0.0037787000000000003,-0.0005186058000000001,-0.0006089416,0.01895576,4.312,0,0
-0.009347218000000001,-0.004072574000000001,-0.0012294026,-0.00021504760000000002,0.00909158,4.313,0,0
-0.008046532,-0.0037338420000000002,-0.0013106146000000003,-7.62796e-05,-0.0030967199999999994,4.314,0,0
-0.00694258,-0.0036916180000000002,-0.0015901684000000002,2.5080199999999997e-05,-0.013451560000000001,4.315,0,0
-0.005607689000000001,-0.0030498028,-0.0015618042000000003,0.0004897478000000001,-0.02209846,4.316,0,0
-0.001703011,-0.0013922568000000004,-0.0007557082000000002,0.0006247922000000001,-0.0287744,4.317,0,0
0.001758341,0.0002527352,-0.00016577980000000007,0.000700331,-0.03050742,4.318,0,0
0.0035420950000000003,0.0013923472,-0.00012115780000000005,0.001271402,-0.0273872,4.319,0,0
0.006370395000000001,0.0029017851999999997,4.160200000000032e-06,0.0015586458,-0.021960858000000003,4.32,0,0
0.008866076,0.004192818,0.00018426260000000002,0.0012246038,-0.013755122000000002,4.321,0,0
0.008932220000000001,0.0040727720000000005,2.4458600000000003e-05,0.0007866508000000001,-0.0021909220000000005,4.322,0,0
0.0089771,0.0033860924,0.00036076420000000003,0.0005885266000000001,0.009374438000000002,4.323,0,0
0.008983916,0.0026508872,0.0010581142,9.142440000000005e-05,0.019370258,4.324,0,0
0.006437084,0.0012383052,0.0012294234,-0.0007296175999999999,0.028161016000000004,4.325,0,0
0.0027250879999999996,-0.0003621608,0.0007026572000000002,-0.0010564196,0.032872160000000004,4.326,0,0
-8.83399999999999e-05,-0.0011701488,0.0003552876,-0.0008668502,0.03182158,4.327,0,0
-0.00338997,-0.0020832072,-7.794000000000027e-06,-0.0008519602000000001,0.026849782000000003,4.328,0,0
-0.007256892,-0.002985626,-0.000878786,-0.0008799200000000001,0.018614940000000003,4.329,0,0
-0.008698386,-0.0026837676000000003,-0.0012937712,-8.925799999999999e-05,0.00642186,4.33,0,0
-0.008244296,-0.0021597503999999995,-0.0011892072000000001,0.000582344,-0.006339880000000002,4.331,0,0
-0.008340584000000002,-0.0021401904000000003,-0.0014202496,0.0008373090000000001,-0.01668636,4.332,0,0
-0.006618234200000001,-0.0011063164000000003,-0.0016496000000000002,0.0014488184000000003,-0.025557722,4.333,0,0
-0.0027344122000000004,0.0009035775999999998,-0.001243424,0.0013484204000000003,-0.03123012,4.334,0,0
-7.212199999999782e-06,0.0013848331999999999,-0.0006363879999999999,0.0006505004000000002,-0.03095716,4.335,0,0
0.0020927658,0.001485728,4.678000000000012e-05,0.0006265944000000002,-0.0266605,4.336,0,0
0.0052154838,0.002620356,0.0007694820000000002,0.000669456,-0.020692036,4.337,0,0
0.007321996,0.0029947399999999996,0.0016894720000000002,4.280179999999993e-05,-0.011284156,4.338,0,0
0.00739951,0.002256008,0.002752556,4.522419999999992e-05,0.00032368400000000117,4.339,0,0
0.007350728,0.0018428186000000002,0.0031891320000000003,0.000358847422,0.010496384000000001,4.34,0,0
0.006414214,0.0014610806,0.003456574,-0.00043938257800000006,0.019334724,4.341,0,0
0.0031825099999999995,-0.00020099540000000006,0.0035503180000000002,-0.0010505305780000001,0.02671712,4.342,0,0
-0.0005692320000000002,-0.0017603274,0.0027988016,-0.0009198563779999999,0.029576760000000004,4.343,0,0
-0.0032973700000000004,-0.0024357394,0.0016228724000000002,-0.000978430578,0.027292000000000004,4.344,0,0
-0.006532042000000001,-0.002939938,0.0004940343999999999,-0.0010776404,0.022526780000000003,4.345,0,0
-0.009278419999999999,-0.003096434,-0.0007678476000000001,-0.0005177176000000001,0.014514578,4.346,0,0
-0.008729558,-0.0021404970000000003,-0.0019725416,0.0002803304,0.0030358780000000005,4.347,0,0
-0.0074400360000000006,-0.0009579070000000002,-0.0025371252,0.00040620740000000004,-0.007758762,4.348,0,0
-0.00675317,-0.00037712900000000014,-0.002894344,0.0002863392,-0.016314842,4.349,0,0
-0.003706978,0.000838543,-0.0027520800000000005,0.00043075780000000004,-0.023896342,4.35,0,0
0.00016140999999999985,0.002031751,-0.0019476480000000002,0.00036472586,-0.0277726,4.351,0,0
0.001993328,0.002547774,-0.0010280672,-0.00026127013999999995,-0.026103600000000005,4.352,0,0
0.004238552,0.0033398639999999997,-0.0002120170000000002,-0.0006335091400000001,-0.022165070000000002,4.353,0,0
0.007403788,0.0044551339999999995,0.0004884285999999999,-0.00054468474,-0.016261614400000002,4.354,0,0
0.008467042000000001,0.0045888560000000005,0.0010318206000000001,-0.0008946347400000001,-0.006986214400000002,4.355,0,0
0.008412626,0.00379369999,0.0014121726,-0.0010885486000000002,0.003275305600000001,4.356,0,0
0.008411774,0.00281087999,0.0018878758,-0.0010320486,0.0119763256,4.357,0,0
0.0067335215999999995,0.00104324399,0.0017757984200000004,-0.0011211046000000001,0.020182075600000002,4.358,0,0
0.0029571575999999995,-0.00150239801,0.0014243904200000003,-0.0007580996000000001,0.026142880000000004,4.359,0,0
-2.124039999999998e-05,-0.00323199401,0.0010289962200000003,-0.00014080960000000003,0.027167520000000004,4.36,0,0
-0.0026648424,-0.00397371,0.00012483822000000004,3.958939999999994e-05,0.024173100000000003,4.361,0,0
-0.005711490400000001,-0.0046679040000000005,-0.0008490357800000001,0.00015577320000000001,0.018626611400000003,4.362,0,0
-0.007320796000000001,-0.004716388,-0.0014074706,0.0008594592000000001,0.0100553514,4.363,0,0
-0.006760836000000001,-0.0035843868000000004,-0.0016123802000000003,0.0008335096000000001,-0.0009371886000000005,4.364,0,0
-0.005281372000000001,-0.0026511152000000004,-0.0019302840000000002,3.519559999999995e-05,-0.0101083886,4.365,0,0
-0.004503634,-0.0024532112000000003,-0.0020442240000000003,0.000205857,-0.0182871686,4.366,0,0
-0.0004477560000000001,-0.0005679792,-0.001957778,0.0007208291999999999,-0.02412982,4.367,0,0
0.001687486,0.0004715728,-0.0016602160000000002,0.00041215120000000005,-0.02677624,4.368,0,0
0.004299384000000001,0.0014785535999999998,-0.0013783499999999998,0.00024649340000000005,-0.023695072,4.369,0,0
0.005094854,0.001865338,-0.001978952,0.00046701540000000007,-0.011379711999999998,4.37,0,0
-0.007713074,-0.0029704720000000005,-0.00341658,0.0005264340000000001,0.003025168,4.371,0,0
-0.021957092000000004,-0.007636696,-0.004982462,0.001172728,0.014267508,4.372,0,0
-0.028075304000000002,-0.008817698,-0.006497349999999999,0.002209186,0.022493328,4.373,0,0
-0.032763718000000004,-0.009434682,-0.007540143999999999,0.00291427,0.025564062000000002,4.374,0,0
-0.0309981,-0.007295943999999999,-0.006746720800000001,0.0036844220000000006,0.018353520800000002,4.375,0,0
-0.010466540000000003,0.001679996,-0.0041073208000000005,0.003769512,0.007005340799999999,4.376,0,0
0.012709300000000001,0.010348676,-0.0005037587999999998,0.002113124,-0.002484799200000001,4.377,0,0
0.03027586,0.015835544,0.0037414652000000003,0.00024222800000000004,-0.0107668592,4.378,0,0
0.046469300000000005,0.02016096,0.0078913932,-0.000999396,-0.0176761812,4.379,0,0
0.05534324000000001,0.020916539999999997,0.011380922000000002,-0.0026573380000000004,-0.022360579999999998,4.38,0,0
0.05520296000000001,0.018047544,0.013710194,-0.0044748060000000004,-0.02152204,4.381,0,0
0.04673806,0.012282902,0.01430958,-0.005082784,-0.0177142758,4.382,0,0
0.033203282,0.0052585420000000015,0.013160396000000001,-0.004831950000000001,-0.0116626018,4.383,0,0
0.013582901999999997,-0.0033740779999999995,0.010393334,-0.004575998,-0.0024219817999999995,4.384,0,0
-0.008064098000000002,-0.011614698000000001,0.006426480000000001,-0.0033585432,0.007148138200000001,4.385,0,0
-0.026495018,-0.017503962,0.0017037780000000004,-0.0013441771999999999,0.0142982382,4.386,0,0
-0.041596418,-0.02156582,-0.002916862,0.00014750479999999996,0.019538794,4.387,0,0
-0.05209876,-0.023110400000000003,-0.007016638,0.0014597868,0.023435280000000003,4.388,0,0
-0.05469116,-0.021030096,-0.010341636,0.0028680008,0.022947120000000005,4.389,0,0
-0.049071180000000006,-0.0159323036,-0.012069762000000001,0.003511768,0.018878874,4.39,0,0
-0.038304458000000007,-0.0097661256,-0.012139940000000002,0.003529254,0.0138688378,4.391,0,0
-0.022321498000000006,-0.002075605600000001,-0.010729250000000001,0.0034076640000000004,0.006665737799999999,4.392,0,0
-0.003302058,0.0062050344,-0.007831643600000002,0.0025405104000000003,-0.002298082200000001,4.393,0,0
0.014339942000000001,0.012500350399999999,-0.0037510036000000004,0.0010032104000000002,-0.009435522200000001,4.394,0,0
0.029008462000000002,0.017117597999999998,0.0005288403999999997,-0.00021809960000000001,-0.014942116200000001,4.395,0,0
0.041018940000000004,0.020627,0.0042833804,-0.0011987476000000002,-0.020055,4.396,0,0
0.04698264,0.02081398,0.0075000504,-0.0023821796,-0.02181144,4.397,0,0
0.04431802,0.017453290000000003,0.009660044,-0.0033761140000000004,-0.019755610000000003,4.398,0,0
0.03631624,0.01280692,0.009978188,-0.003415728,-0.016297498000000004,4.399,0,0
0.02366044,0.006449976,0.008829898,-0.0033968459999999994,-0.01053364,4.4,0,0
0.00596102,-0.0015627639999999993,0.0068441146,-0.0034487819999999996,-0.0023669399999999992,4.401,0,0
-0.011810600000000001,-0.008529324,0.003794962600000001,-0.002297594,0.005047599999999999,4.402,0,0
-0.025480580000000003,-0.013368174,5.051060000000034e-05,-0.0009984120000000002,0.01080635,4.403,0,0
-0.03592696,-0.016736164,-0.0032150394,3.5724e-05,0.016062138,4.404,0,0
-0.042070500000000004,-0.017892360000000003,-0.0059705734,0.001453724,0.01913016,4.405,0,0
-0.0406627,-0.015435772,-0.00811447,0.002857436,0.018134436,4.406,0,0
-0.033683508,-0.010721616,-0.009033791999999999,0.0034164700000000004,0.01545768,4.407,0,0
-0.023520362000000006,-0.00542118,-0.008566234,0.003568078,0.011891546000000001,4.408,0,0
-0.009401322,0.0008076599999999998,-0.006757213600000001,0.0037211880000000003,0.005444424,4.409,0,0
0.006491458000000001,0.0069013600000000005,-0.0040905656,0.0031864040000000003,-0.0017224359999999997,4.41,0,0
0.019777838,0.011015672,-0.0010577216,0.0023743782000000004,-0.007005632,4.411,0,0
0.030401766000000004,0.013420956,0.0019029163999999999,0.0017139526,-0.012005936000000002,4.412,0,0
0.03857300000000001,0.01434146,0.0049285104,0.0006596306,-0.016744622,4.413,0,0
0.04004846000000001,0.012502514,0.007225376,-0.0010928054,-0.017687380000000003,4.414,0,0
0.034853560000000006,0.008447032,0.008223876,-0.0022405054,-0.015647936,4.415,0,0
0.026516119200000004,0.003946434,0.008504264000000001,-0.0027891536,-0.012902042000000002,4.416,0,0
0.0143180992,-0.0011623060000000003,0.007565438,-0.003379832,-0.007630814000000001,4.417,0,0
-0.0008356207999999999,-0.006571006000000001,0.00506063,-0.0029660940000000003,-0.0007148740000000008,4.418,0,0
-0.014051340800000001,-0.0104192,0.0019888139999999998,-0.0016260399999999998,0.004525806,4.419,0,0
-0.023870180799999998,-0.012565678,-0.0010779360000000003,-0.0005273559999999999,0.008553462000000001,4.42,0,0
-0.031868,-0.013930680000000003,-0.004452968,0.00013645220000000014,0.012855448000000002,4.421,0,0
-0.03555746,-0.013436776000000001,-0.007075906,0.0014518042000000002,0.014811180000000002,4.422,0,0
-0.03259686,-0.010227352799999999,-0.008133854000000001,0.0028052882,0.013781446000000001,4.423,0,0
-0.026254635999999998,-0.0060624548,-0.008383372,0.0030880882,0.012256324,4.424,0,0
-0.017473678000000003,-0.0014034888000000003,-0.007690902,0.0031798321999999997,0.00934600056,4.425,0,0
-0.005224018,0.0042824312,-0.0054817558,0.0032131919999999997,0.003675958560000001,4.426,0,0
0.007126882,0.0089882072,-0.0025699418000000003,0.0022411786,-0.0021353414400000006,4.427,0,0
0.016744582,0.011698344000000001,2.9736199999999893e-05,0.0010733792,-0.006294307440000001,4.428,0,0
0.024858498000000003,0.013465426,0.0026713542,0.0006192500000000001,-0.01095198544,4.429,0,0
0.0304835,0.013817020000000001,0.0054596461999999995,-0.00010496399999999995,-0.014790722000000001,4.43,0,0
0.030337740000000002,0.011553394000000002,0.007316532000000001,-0.00086583,-0.014524142000000002,4.431,0,0
0.026033438000000002,0.007822502,0.008314954,-0.0012415866,-0.012285004000000002,4.432,0,0
0.019403734000000002,0.003975904,0.008241402000000002,-0.0019419892000000004,-0.009605159200000001,4.433,0,0
0.009042653999999999,-0.000457058,0.0064722420000000004,-0.0026516580000000003,-0.004312511200000001,4.434,0,0
-0.0033203259999999993,-0.004939138000000001,0.0038874580000000008,-0.002427507,0.0018971888000000002,4.435,0,0
-0.013366206000000002,-0.008035492,0.0010922659999999997,-0.0015687450000000003,0.0060283708,4.436,0,0
-0.020999064,-0.009966780000000001,-0.001926454,-0.000890764,0.0093710928,4.437,0,0
-0.027214580000000002,-0.011375762000000001,-0.004845854,-3.561539999999998e-05,0.012599388000000001,4.438,0,0
-0.02835256,-0.01088364,-0.0066225780000000005,0.0011300766,0.01334104,4.439,0,0
-0.024777686000000004,-0.008111914,-0.0070825540000000005,0.0015933956000000003,0.012064818,4.44,0,0
-0.01983777,-0.004937852000000001,-0.006966988,0.0011764930000000002,0.010641122,4.441,0,0
-0.012234186000000003,-0.0011564140000000001,-0.00645362,0.0011877842000000002,0.007324664000000001,4.442,0,0
-0.001956485999999999,0.003463086,-0.004830154,0.0012512148000000001,0.0022314120000000003,4.443,0,0
0.007245214000000001,0.006647106,-0.002497888,0.00032251480000000004,-0.0017874980000000002,4.444,0,0
0.014608920000000001,0.00808764,-0.0006021980000000001,-0.0003746032,-0.005135656000000001,4.445,0,0
0.021975284000000005,0.009263142000000002,0.001245258,-0.0004502146,-0.00918008,4.446,0,0
0.025888120000000004,0.009081114000000001,0.003098592,-0.0014377947999999999,-0.011319501999999999,4.447,0,0
0.02430856,0.0067303838000000015,0.004573746,-0.002597884,-0.010704394000000002,4.448,0,0
0.020369048,0.0039698497999999995,0.0051399900000000005,-0.00261942,-0.009759248000000002,4.449,0,0
0.014149262000000001,0.0009923978000000002,0.004513742,-0.0026457440000000002,-0.007641888800000001,4.45,0,0
0.004585281999999999,-0.0029795062,0.0034172800799999997,-0.0024184558,-0.0032507468000000004,4.451,0,0
-0.005029118000000001,-0.006363436199999999,0.00204126008,-0.0013100698,0.0008846371999999998,4.452,0,0
-0.011721338000000001,-0.007771693999999999,0.0002256500800000001,-0.00036309140000000004,0.0037095692000000003,4.453,0,0
-0.017302386,-0.008415136,-0.0014227039200000002,1.349459999999995e-06,0.006535153200000001,4.454,0,0
-0.02066272,-0.008353047999999998,-0.0027221259200000004,0.00065905946,0.00818042,4.455,0,0
-0.01903043,-0.006211515000000001,-0.0037332780000000005,0.00149432726,0.007535262000000001,4.456,0,0
-0.014604590000000002,-0.0030086690000000003,-0.004100732,0.00167129526,0.006525540000000001,4.457,0,0
-0.009515736,-0.0002554809999999999,-0.0036373938000000003,0.0018540604600000002,0.005201598,4.458,0,0
-0.0022808559999999995,0.002779403,-0.0024232838,0.0021776116,0.002178754,4.459,0,0
0.0060156440000000005,0.005803457,-0.0008803398000000002,0.0016500404,-0.00066462,4.46,0,0
0.011369414000000001,0.0072447480000000005,0.0006699721999999999,0.00023181039999999997,-0.0024338500000000004,4.461,0,0
0.015235814,0.007838924,0.0021714322,-0.0005703036000000001,-0.004779254,4.462,0,0
0.01878028,0.00833744,0.0035697080000000004,-0.0009404252000000001,-0.00717398,4.463,0,0
0.01831168,0.00738853,0.00431178,-0.0016193472000000002,-0.007165380000000001,4.464,0,0
0.014048416000000003,0.004868226000000001,0.004501924,-0.0016014789999999998,-0.0057541576,4.465,0,0
0.009271126000000003,0.002491682,0.004411346,-0.0009839266000000002,-0.0048651782000000005,4.466,0,0
0.003088566000000001,-0.0005091920000000003,0.003598512400000001,-0.0005830563999999999,-0.0024714681999999993,4.467,0,0
-0.004877833999999999,-0.004428548,0.0021699771999999997,-0.00040355720000000004,0.0011348558,4.468,0,0
-0.010872734,-0.006735118,0.0005670772000000001,-5.61092e-05,0.0030459618,4.469,0,0
-0.014513110000000001,-0.0075288279999999996,-0.0012169768,0.000260741,0.0038195374,4.47,0,0
-0.017526860000000002,-0.008012618,-0.0029541068,-2.1697999999999737e-06,0.005246624,4.471,0,0
-0.017909519999999998,-0.007205016,-0.003971697200000001,-0.000305542,0.005317272,4.472,0,0
-0.014398136,-0.004945871,-0.004595314,-6.839719999999998e-05,0.003587682,4.473,0,0
-0.009724784,-0.0028503810000000004,-0.004667288,3.90606e-05,0.0028128959999999996,4.474,0,0
-0.004451490000000001,-0.0008232110000000002,-0.0037423276000000004,6.234360000000002e-05,0.00194719284,4.475,0,0
0.002353890000000001,0.0017642530000000001,-0.002354346,0.00045603200000000004,-0.0003579651599999999,4.476,0,0
0.00813405,0.003990425,-0.000978986,0.0004171100000000001,-0.00219359516,4.477,0,0
0.011265026000000001,0.0049559040000000006,0.00010416,-7.345799999999993e-05,-0.00256113516,4.478,0,0
0.013508494,0.005405088000000001,0.00099737,1.1445000000000064e-05,-0.0034044671600000002,4.479,0,0
0.014783580000000001,0.0058787660000000005,0.0020110476,-9.865919999999995e-05,-0.00465827,4.48,0,0
0.012850746000000001,0.005098428,0.003018918,-0.00041213400000000004,-0.004006324,4.481,0,0
0.009219454,0.0035338550000000007,0.0035498440000000003,-0.00014148799999999997,-0.002713318,4.482,0,0
0.005226658,0.0019580030000000003,0.0037366200000000004,-0.00012811399999999995,-0.0020398528000000003,4.483,0,0
-0.0004810420000000001,-0.00019120100000000022,0.003433166,-0.0003402786,-0.0005724648,4.484,0,0
-0.0065433620000000005,-0.0026675730000000003,0.0024173562000000003,-0.0002088268,0.0015827652,4.485,0,0
-0.010124408000000001,-0.004328815000000001,0.0008809341999999998,6.665340000000001e-05,0.0025345832,4.486,0,0
-0.012116636000000002,-0.00485218,-0.0008123058,0.00020671900000000004,0.0028645171999999997,4.487,0,0
-0.013650460000000001,-0.004586528,-0.0018600218000000002,0.000669895,0.0035634,4.488,0,0
-0.012139132,-0.003281953,-0.0024702098000000004,0.0010622368,0.0029726320000000002,4.489,0,0
-0.00840855,-0.0012790190000000002,-0.002783148,0.0010262024,0.0018201660000000004,4.49,0,0
-0.005365984000000001,0.0005000569999999999,-0.0024880098,0.0008960643999999999,0.0017589940000000003,4.491,0,0
-0.001681726,0.001944359,-0.0017954952000000003,0.0008010694,0.0011128150000000005,4.492,0,0
0.0035353540000000005,0.0033407289999999997,-0.0009300412000000002,0.0008315674,-0.0005186090000000001,4.493,0,0
0.006858406000000001,0.003970380000000001,0.00010395880000000003,0.0004188024,-0.0006764928000000001,4.494,0,0
0.00805909,0.004061891999999999,0.0010411028,1.9678999999999986e-05,-0.0006942968000000001,4.495,0,0
0.010273764000000001,0.00441613,0.0016243546000000002,6.630599999999997e-05,-0.0025850268,4.496,0,0
0.011040792,0.004020278,0.002266404,-0.00014602380000000004,-0.0033385838000000007,4.497,0,0
0.0083007488,0.002305436,0.002581222,-0.0006921918,-0.0025464044000000005,4.498,0,0
0.0055739848,0.0005735960000000002,0.002538898,-0.0005175414000000001,-0.0029461186000000004,4.499,0,0
0.0030566587999999997,-0.001170974,0.00228228,-0.0001588584,-0.0027606790000000007,4.5,0,0
-0.0017202811999999998,-0.003730184,0.0015469620000000003,-0.00028060680000000003,-0.0002635650000000001,4.501,0,0
-0.0061463272,-0.005650622,0.000700354,0.00015517039999999997,0.001597111,4.502,0,0
-0.007971852,-0.0058568280000000006,-0.00017533799999999998,0.0007199204,0.0020936476,4.503,0,0
-0.009326088,-0.005655998000000001,-0.001034962,0.000922931,0.0034517316,4.504,0,0
-0.010230350000000001,-0.005301910000000001,-0.0020265500000000002,0.0012542780000000002,0.0046855280000000004,4.505,0,0
-0.008332634,-0.003723934,-0.0026469320000000003,0.001665496,0.0036486269999999998,4.506,0,0
-0.005217414,-0.002052806,-0.0026178700000000004,0.0016956319999999999,0.002737182,4.507,0,0
-0.0030010240000000006,-0.000839898,-0.0024418510000000005,0.0017765160000000001,0.003063692,4.508,0,0
2.1577999999999962e-05,0.0009808199999999999,-0.0019299096000000003,0.0019263540000000001,0.0015125019999999998,4.509,0,0
0.0040312,0.0029488680000000003,-0.0008606255999999998,0.001636513,-0.0008596080000000001,4.51,0,0
0.006434204000000001,0.00392688,0.00021615400000000006,0.0010620204,-0.001331373,4.511,0,0
0.007645692000000001,0.004327796,0.0007603260000000001,0.000585716,-0.001924452,4.512,0,0
0.00978257,0.004701446,0.001429747,0.00022821839999999998,-0.003881242,4.513,0,0
0.010168486,0.0035272304000000003,0.0018679896000000002,-0.0006414556000000001,-0.003855134,4.514,0,0
0.0075140400000000005,0.0014223484,0.0016959575999999999,-0.0013210446000000002,-0.002274466,4.515,0,0
0.0050651440000000015,0.0005128616000000002,0.001918036,-0.00140264,-0.002119516,4.516,0,0
0.0023734019999999997,-0.0004974283999999999,0.0018068486,-0.0014986456,-0.0014766148000000003,4.517,0,0
-0.0023910180000000004,-0.0021213924000000003,0.0009197426000000002,-0.0016359002,0.00018983520000000003,4.518,0,0
-0.0059713760000000005,-0.0024788768000000004,0.00015045459999999994,-0.0014294584000000001,0.0005301446000000001,4.519,0,0
-0.006804178,-0.0021954768000000003,-0.0003056634,-0.0012904764,0.00030340680000000004,4.52,0,0
-0.00787913,-0.002756964,-0.0009734794,-0.0016545544000000003,0.0012905008000000003,4.521,0,0
-0.008124794000000001,-0.0028513979999999998,-0.001626548,-0.0016348404000000002,0.0019015916000000002,4.522,0,0
-0.0055632038,-0.001666298,-0.0015778940000000003,-0.0013516774,0.0014315590000000002,4.523,0,0
-0.0031627198000000003,-0.000653672,-0.0015384028000000004,-0.0013178614000000002,0.0013968036000000003,4.524,0,0
-0.00195848996,-2.3572800000000107e-05,-0.0014914368000000001,-0.0008869274000000002,0.0014005834,4.525,0,0
0.0008262860399999998,0.0011519512,-0.0011612254000000002,0.00010268059999999995,0.0004079274,4.526,0,0
0.00390409204,0.0020797372,-0.0003865094000000002,0.00041535140000000003,-0.0006687646000000001,4.527,0,0
0.00479586984,0.0018315346000000003,0.00048382659999999996,0.00042035380000000005,-0.0006937440000000002,4.528,0,0
0.00595983784,0.0017958765999999998,0.0012759834,0.0009604,-0.0010139740000000002,4.529,0,0
0.007929034,0.0023042633999999997,0.0020244373999999997,0.000747176,-0.002098342,4.53,0,0
0.007272766000000001,0.0017565523999999997,0.0017182379999999998,0.0001373600000000001,-0.002208406,4.531,0,0
0.004727144000000001,0.0007918744000000001,0.0009068640000000001,0.00041713920000000003,-0.001885636,4.532,0,0
0.0030810979999999996,0.0005716775999999999,0.0001900322,0.0005914700000000001,-0.0021516879999999997,4.533,0,0
0.0003052020000000001,-0.00013625900000000007,-0.00042965520000000005,7.242220000000002e-05,-0.001302078,4.534,0,0
-0.0036965360000000003,-0.001721079,-0.0012217012,-5.31978e-05,0.0005646780000000001,4.535,0,0
-0.005552532000000001,-0.002456202,-0.0014944572000000003,0.0001074658,0.0012316840000000003,4.536,0,0
-0.0057926520000000006,-0.002389244,-0.0012752672,-0.00026635460000000005,0.0013886964000000002,4.537,0,0
-0.00631992,-0.0026705386000000003,-0.0014522754000000002,-0.0004503654,0.0024729144000000002,4.538,0,0
-0.005698578,-0.0023462136000000004,-0.0015527386000000001,-0.00020165859999999997,0.0027335544,4.539,0,0
-0.0032198440000000004,-0.0011208896000000001,-0.0015051606000000002,-0.0001768626,0.0019337450000000004,4.54,0,0
-0.0017421539999999999,-0.0004262439999999999,-0.0014062746,-3.6074e-05,0.002366449,4.541,0,0
-0.0006958683999999998,0.0001470342000000001,-0.0013816306,0.00022084840000000002,0.0028011166,4.542,0,0
0.0017025396,0.0011633582000000003,-0.0011633146000000001,0.00029220700000000006,0.0017704726000000001,4.543,0,0
0.0029765716,0.0012822538,-0.0008438666000000001,0.00039831200000000006,0.0011877106,4.544,0,0
0.0026990424,0.001034654,-0.0003684446,0.0006612580000000001,0.0008402120000000001,4.545,0,0
0.0035460384000000006,0.0017752264000000001,0.00018020180000000003,0.00039611780000000014,-0.0009906000000000001,4.546,0,0
0.0045825568,0.0024209322000000003,0.0006229884,-0.0005101902000000001,-0.00243581,4.547,0,0
0.0031579396000000004,0.0020373522,0.0009186144,-0.0011389220000000001,-0.002299052,4.548,0,0
0.0021901216000000004,0.0016845326,0.000481737,-0.0012265846000000002,-0.0028770920000000004,4.549,0,0
0.0021455814000000007,0.0015031216000000003,5.157499999999999e-05,-0.0015029946,-0.0036087820000000005,4.55,0,0
-0.0002919285999999999,0.0003118716,7.735120000000001e-05,-0.0016283206000000001,-0.0024431906,4.551,0,0
-0.0030197706,-0.0010892864,-0.00015909420000000002,-0.0007597513999999999,-0.0017001878,4.552,0,0
-0.0034205874000000002,-0.0014177408,-0.00020006660000000006,-0.0006172394,-0.0021161038,4.553,0,0
-0.0033762854000000003,-0.0013275852,0.00040295140000000005,-0.0012005768000000001,-0.0010171958,4.554,0,0
-0.004408700000000001,-0.0012972538,0.0007074690000000001,-0.0006378488,0.0010145262,4.555,0,0
-0.003724106,-0.0006102818,0.0005250022,9.20332e-05,0.0015212588,4.556,0,0
-0.0019100819999999998,0.0003590402,0.0004900582,-0.0001141256,0.001901484,4.557,0,0
-0.0014581279999999997,0.0005641076,0.00022594960000000007,0.00014674380000000002,0.0035437580000000006,4.558,0,0
-0.000791738,0.0006963758,-0.00021710780000000002,0.0011095378000000001,0.003787238,4.559,0,0
0.0010597600000000003,0.0011361971999999999,-5.651399999999991e-06,0.0011591318000000001,0.0024781560000000005,4.56,0,0
0.002157216,0.0011172992,0.0004921628,0.0007733634200000001,0.002193936,4.561,0,0
0.002159732,0.0008384966,0.0007348071999999999,0.00117301302,0.001988066,4.562,0,0
0.0033567200000000005,0.0010120215999999999,0.0009174532,0.0014480536200000003,-0.0002965740000000002,4.563,0,0
0.0037218940000000003,0.0010763194,0.0014042986,0.0009071416200000001,-0.002093974,4.564,0,0
0.0024162800000000003,0.00023783339999999993,0.0014674346,0.00046675042000000004,-0.002407862,4.565,0,0
0.0021347040000000003,-0.00033279060000000006,0.001107738,0.00023020480000000008,-0.003766038,4.566,0,0
0.0019093006,-0.0006585860000000001,0.0011021872000000002,-0.00030224120000000004,-0.004574122000000001,4.567,0,0
-0.00015919740000000016,-0.0015605220000000002,0.0009672634000000001,-0.0005464122000000001,-0.0035295542000000004,4.568,0,0
-0.0016636134000000001,-0.0018062854000000003,0.0005194856,-0.000348246,-0.0028407022,4.569,0,0
-0.0014134090000000002,-0.0010586414,0.00014468960000000002,-0.00019155740000000002,-0.0026369502000000004,4.57,0,0
-0.002002531,-0.0004887994000000002,3.964354000000002e-05,-8.723900000000002e-05,-0.0010027922000000002,4.571,0,0
-0.0023140576,-3.051860000000009e-05,4.5137400000000135e-06,0.00016351579999999998,0.0007970118,4.572,0,0
-0.0008513936000000003,0.0007596356,0.00026210054000000004,0.000231115,0.0012205979999999998,4.573,0,0
-0.00018310740000000004,0.0008555064,0.00018010774000000007,-0.0002023352,0.00234663,4.574,0,0
-0.0009967698,0.00033123240000000007,-0.00029577226000000007,-0.0001844626,0.0038930479999999996,4.575,0,0
-0.0006128454,-7.979799999999974e-06,-0.00026157600000000007,0.000139299,0.003681178,4.576,0,0
0.0001018266,-0.000127797,-0.0004463578000000001,-3.952319999999998e-05,0.0030697420000000003,4.577,0,0
-0.0008182654,-0.0005685712,-0.0008128456000000001,-0.0001265064,0.00301067,4.578,0,0
-0.0008364854,-0.0008484206000000001,-0.000410591,0.0002446562,0.001567162,4.579,0,0
0.0006757466000000001,-0.00027425260000000004,5.039520000000004e-05,0.0003031488,-0.0007905960000000001,4.58,0,0
0.00060905446,-0.0001065118000000001,-0.00015844059999999997,7.51984e-05,-0.0014144140000000001,4.581,0,0
-0.00013426554,-0.0005149154,-1.3727799999999947e-05,0.00038832980000000003,-0.0016126924000000001,4.582,0,0
0.00094226246,-0.00047249940000000006,0.0004582640000000001,0.0007593068,-0.0027176564,4.583,0,0
0.00129857826,-0.00017452640000000004,0.00046265000000000005,0.0005725502000000001,-0.0022070732,4.584,0,0
-2.962774000000003e-05,-0.0005146727999999999,0.0005276508000000001,0.00036166659999999995,-0.00044894520000000003,4.585,0,0
-0.00013682820000000004,-0.0004946442,0.0006501916,0.00030840779999999996,-0.0005620792000000001,4.586,0,0
0.0005783438000000001,0.0002409418,0.00046487740000000007,-0.00016972219999999996,-0.0011066248,4.587,0,0
1.2097199999999936e-05,0.0005240498,8.069879999999997e-05,-0.0007712681999999999,0.00014381920000000001,4.588,0,0
-0.0001515814,0.0008789948,-0.0001975279,-0.0009846261999999998,0.000751432,4.589,0,0
0.0008332866000000001,0.0015808151999999998,-9.754189999999996e-05,-0.0010596925999999999,0.0007124380000000001,4.59,0,0
0.0002168608000000002,0.0015250586,-0.0003310125,-0.0011033508,0.00218849,4.591,0,0
-0.0010160752,0.0011104592,-0.0006432823000000001,-0.0005999727999999999,0.0032516280000000003,4.592,0,0
-0.0006016986000000001,0.0011956744,-0.0003921525,0.00024093919999999998,0.0027634078,4.593,0,0
-0.0006985154000000001,0.0005360244000000001,-0.0002702490000000001,0.0005963063999999999,0.0028189738,4.594,0,0
-0.0015816194,-0.0005358095999999999,-0.0005654033999999999,0.0007162665999999999,0.0028248738,4.595,0,0
-0.0006067114,-0.0006216806,-0.0004973714000000001,0.0008963924,0.0010742038000000002,4.596,0,0
0.0009076166,-0.0005279721999999999,-6.601836000000004e-05,0.0003937943999999999,-0.00041501219999999983,4.597,0,0
0.00040085459999999996,-0.0008537344,-0.00023633000000000006,1.2753400000000033e-05,-0.0007545259999999999,4.598,0,0
0.00022466339999999995,-0.00057819914,-0.0005871808,0.0006896522000000001,-0.00223009,4.599,0,0
0.0013584794,-4.723814000000001e-05,-0.0005095964,0.0008270658,-0.003866838,4.6,0,0
0.0010491938,-0.00019790574000000003,-0.0004751436,0.0007261264,-0.0035369380000000003,4.601,0,0
0.0001819454,-0.00048240874000000006,-0.00062152664,0.0012346604,-0.003051402,4.602,0,0
0.0009617774000000002,-0.00048769294000000006,-0.0005645184,0.0013172174,-0.003347656,4.603,0,0
0.0018108800000000002,-0.00049045444,-0.0002536248,0.0009493914000000001,-0.0025212442,4.604,0,0
0.0013476374000000002,-0.0005811344,-6.14828e-05,0.0009560332000000001,-0.0007992482,4.605,0,0
0.001801625,-0.00016990440000000002,0.00021611120000000002,0.0010524044,-0.0001378341999999999,4.606,0,0
0.0022053054,0.0001170622,0.0006046872,0.0006333020000000002,0.0007257978000000001,4.607,0,0
0.0003931274000000002,-0.00020599860000000003,0.00037517520000000007,0.00020742140000000003,0.0027922898,4.608,0,0
-0.0011602286,-0.00026380396,0.0002211886,-6.670680000000001e-05,0.0036897400000000004,4.609,0,0
-0.0013227198,0.00011095900000000005,0.00036001159999999997,-0.00028831540000000006,0.0034250300000000003,4.61,0,0
-0.0024980938,-0.00027912039999999997,7.071379999999997e-05,-0.0006633256000000001,0.004224576000000001,4.611,0,0
-0.0040320218000000005,-0.0007222870000000001,-0.00031549000000000003,-0.0007542592,0.004330556,4.612,0,0
-0.0029793909400000003,0.00011399700000000007,-0.0001241968,-0.00059378736,0.0022888220000000003,4.613,0,0
-0.0021741319400000003,0.00011619880000000006,0.00024720020000000006,-0.0009027345600000001,0.0009898020000000001,4.614,0,0
-0.0027048541400000003,-0.000426865,-2.542299999999997e-05,-0.00101639016,1.4791999999999909e-05,4.615,0,0
-0.0014037641400000004,0.0005843784,-0.00026535999999999997,-0.0008362639599999999,-0.0026812580000000006,4.616,0,0
0.00049751386,0.0013571384,-0.0002966486,-0.0009643859600000002,-0.004401470000000001,4.617,0,0
0.0007682990000000001,0.0006879964,-0.0004765374,-0.0011568820000000001,-0.003943958000000001,4.618,0,0
0.0014915280000000002,0.0007317101999999999,-0.0006396582,-0.0009624106,-0.004003126000000001,4.619,0,0
0.003324884,0.00140077,-0.00014195500000000003,-0.0009148734,-0.004218296000000001,4.62,0,0
0.0033886820000000005,0.0008421139999999999,0.000591975,-0.0009468580000000002,-0.0027426376000000002,4.621,0,0
0.002858169,0.00021401199999999992,0.0009366570000000001,-0.0005299378,-0.0015423974,4.622,0,0
0.0033011689999999996,0.0003804626,0.0013731848,-0.00027880399999999996,-0.0015601833999999998,4.623,0,0
0.002414773,3.43245999999999e-05,0.0014814916000000001,-0.00042386879999999994,-0.0002350554000000001,4.624,0,0
0.00021626899999999962,-0.0008673754,0.0010989024,-0.00012321160000000004,0.0021046086,4.625,0,0
-0.0005786230000000001,-0.00112625468,0.0007710606,0.0003552368,0.0032529602,4.626,0,0
-0.0008771904000000002,-0.00111399468,0.0007260039999999999,0.00044816919999999996,0.004044708,4.627,0,0
-0.0027333464000000003,-0.0013044672799999999,0.000350954,0.0004160732,0.005528618,4.628,0,0
-0.0037083084000000006,-0.00092447228,-0.00029032600000000004,0.0004294256,0.005391682,4.629,0,0
-0.0029336204,-0.00035733928000000005,-0.000499428,0.0005231412,0.003225748,4.63,0,0
-0.0032419344000000003,-0.0004906446,-0.0006159282,0.00024558120000000005,0.001700044,4.631,0,0
-0.0037568460000000003,-0.0006163525999999999,-0.0009139096000000001,2.6791600000000023e-05,0.0002309819999999998,4.632,0,0
-0.0022743499999999996,-0.00022573344000000002,-0.0007255740000000001,0.0002451586,-0.002199874,4.633,0,0
-0.0008016719999999999,-0.00012521183999999997,-0.00018404380000000003,0.0002833178,-0.0035245800000000002,4.634,0,0
-0.0005795579999999999,-0.00011562944000000002,-1.3605600000000058e-05,9.116933999999996e-05,-0.0034053420000000004,4.635,0,0
0.0007625440000000001,0.00066889716,0.0001110684,0.00046207733999999997,-0.003997546,4.636,0,0
0.002787266,0.0017533871600000001,0.00030481280000000006,0.0006296021399999999,-0.004165946,4.637,0,0
0.0030433039999999997,0.0018540844000000001,0.0002894818,-1.702386000000005e-05,-0.0029399616,4.638,0,0
0.003555804,0.0014262038,6.057600000000001e-06,1.0688739999999974e-05,-0.0023440366,4.639,0,0
0.004730188,0.0011120417999999999,-9.876959999999999e-05,-0.00010480500000000005,-0.0019247049999999999,4.64,0,0
0.003606084,6.251180000000007e-05,0.00020184840000000005,-0.0009105850000000001,0.00013128100000000002,4.641,0,0
0.0012756920000000001,-0.0011589322000000002,0.00040499040000000007,-0.0011571034000000002,0.0019539089999999998,4.642,0,0
0.00043771999999999973,-0.0014822046,0.0003704116,-0.0008676118,0.0021827086,4.643,0,0
-0.0008008140000000002,-0.0016039886,0.0003410376000000001,-0.0007939119000000001,0.0029331955999999998,4.644,0,0
-0.00337103,-0.0019961880000000003,-7.740619999999993e-05,-0.0005239399,0.0035942079999999998,4.645,0,0
-0.0034841360000000005,-0.0015858434,-0.0007814462,0.0006128841,0.0023043380000000004,4.646,0,0
-0.002105252,-0.000939627,-0.001155679,0.0011086247000000001,0.0007185059999999999,4.647,0,0
-0.002593778,-0.0010013230000000001,-0.0015670528,0.0009774531000000001,0.0003265503999999998,4.648,0,0
-0.002649752,-0.0006217648000000001,-0.0019892208,0.0012501318,-0.0007666896000000001,4.649,0,0
-0.0006995000000000001,0.0003174432,-0.0015561136,0.001229129,-0.0020720216,4.65,0,0
0.000255998,0.000398561,-0.0007882056000000001,0.0003294992,-0.0018640178,4.651,0,0
0.0003017699999999999,0.0003233334,-0.000517068,-0.0002584948,-0.0019090878000000001,4.652,0,0
0.002296708,0.0013786094,0.00018490399999999998,0.0002121372,-0.0030761222000000006,4.653,0,0
0.004526638,0.0021253412000000003,0.0009516896000000001,0.00032398919999999996,-0.0032994582000000004,4.654,0,0
0.0049236160000000005,0.0019979472,0.0008617324000000001,0.0001572822,-0.0023807356000000003,4.655,0,0
0.005371384000000001,0.0021147608,0.0004375908,0.0005723379999999999,-0.0020996234000000003,4.656,0,0
0.005916934,0.0019903254,5.263000000000007e-05,0.0008671456,-0.0009835774000000002,4.657,0,0
0.004191618000000001,0.0006801113999999999,-0.00043173600000000006,0.0002749896000000001,0.0019064946,4.658,0,0
0.001719986,-0.00036324460000000013,-0.0008520556,-0.00021278840000000002,0.0039870106,4.659,0,0
0.00032510600000000014,-0.0005804066000000001,-0.0007904372000000001,-0.00032495580000000004,0.004365614,4.66,0,0
-0.002125782,-0.0012884266,-0.0006025810000000001,-0.0005853818,0.0050755520000000005,4.661,0,0
-0.005072274,-0.0019620920000000003,-0.0005877250000000001,-0.00036971740000000007,0.005384238,4.662,0,0
-0.005578942,-0.0018113500000000002,-0.0005808506,-0.00023181940000000005,0.003511652,4.663,0,0
-0.005514572000000001,-0.0015801204,-0.00029661560000000006,-0.0005743714000000001,0.001631384,4.664,0,0
-0.006332038,-0.0014729106000000002,-0.00021622342000000004,-0.0005005872000000001,0.0009187474000000003,4.665,0,0
-0.005146846,-0.00027618460000000016,-0.00042011002000000004,-0.0004022370000000001,-0.0008390686,4.666,0,0
-0.0026345260000000003,0.0013527034,-6.923622e-05,-0.0006071872,-0.0029239266,4.667,0,0
-0.0015801800000000003,0.0019996274,0.00035213138,-0.00024133560000000006,-0.0031392066,4.668,0,0
-0.00027793200000000016,0.0024548238,0.0005136163799999999,0.0005661004000000001,-0.0036749046,4.669,0,0
0.002678576,0.002945404,0.0009093618,0.0008963555999999999,-0.0049527040000000005,4.67,0,0
0.004412042,0.0024073482,0.0013250698,0.00048410139999999994,-0.004499744,4.671,0,0
0.004687002,0.00159076,0.0013000402,0.00010296559999999993,-0.003266577,4.672,0,0
0.005820336000000001,0.001700076,0.0011766048,-1.4755800000000022e-05,-0.0028061380000000006,4.673,0,0
0.005900972000000001,0.0011381300000000002,0.00098122724,-0.00033152760000000007,-0.0009584220000000002,4.674,0,0
0.003393668000000001,-0.00027893600000000003,0.0005547838400000001,-0.0006485667999999999,0.0021595760000000003,4.675,0,0
0.001094134,-0.0009782582000000001,0.00045612984,-0.0008690288,0.0036962040000000007,4.676,0,0
-0.000262712,-0.0017678820000000001,0.0005265428400000001,-0.0013258248,0.004646885000000001,4.677,0,0
-0.00316562,-0.003158156,0.00024349144000000003,-0.0015614729999999999,0.00583011,4.678,0,0
-0.005690219999999999,-0.003768448,-2.545699999999997e-05,-0.0012075932000000001,0.0050030840000000005,4.679,0,0
-0.0055359580000000005,-0.003177285,4.3393600000000024e-05,-0.0009520560000000002,0.0027288320000000005,4.68,0,0
-0.0057810480000000004,-0.0027573314,-0.000235846,-0.0005491052000000001,0.0018897480000000001,4.681,0,0
-0.006432878,-0.0024726494,-0.0006700532000000001,0.0003057972000000001,0.0012332139999999998,4.682,0,0
-0.0046057856000000005,-0.0008882354,-0.0006131342,0.0006517596,-0.00024345600000000002,4.683,0,0
-0.0022811235999999997,0.0006729706,-0.0006760942,0.0001350454,-0.00046393000000000004,4.684,0,0
-0.0015639894000000001,0.0009771326000000001,-0.0010695814000000001,-0.0003040846,-7.432220000000003e-05,4.685,0,0
0.0004316246,0.0017299150000000003,-0.0012949838,-6.43584e-05,-0.0014796742000000001,4.686,0,0
0.0033370386000000003,0.0030112029999999996,-0.0011923092000000002,-2.2919000000000016e-05,-0.0031341302000000002,4.687,0,0
0.0042733142,0.0029316669999999998,-0.0006595054,-0.00021881600000000004,-0.0029613284,4.688,0,0
0.0048159822,0.0024644070000000005,0.00032798660000000004,1.7966200000000025e-05,-0.00271039456,4.689,0,0
0.006077398,0.002777108,0.0012543706,0.00015553559999999998,-0.0026988579599999995,4.69,0,0
0.005413102,0.0020494448000000004,0.0019533846,5.4784600000000004e-05,-0.0009327439600000002,4.691,0,0
0.0028645000000000003,0.0007430627999999999,0.0021479966000000003,0.0004332908,0.0013772500400000003,4.692,0,0
0.001165728,9.765979999999997e-05,0.0016020994,0.0010582734000000001,0.00198560424,4.693,0,0
-0.0008531979999999999,-0.0008905362000000001,0.0010651057999999998,0.0011455654,0.0027276724000000006,4.694,0,0
-0.003790684,-0.0023876182000000003,0.0005891988,0.00125371676,0.0038399240000000006,4.695,0,0
-0.005310316000000001,-0.0032245190000000003,0.00020302600000000003,0.0014391821600000002,0.0030969866000000006,4.696,0,0
-0.005076168000000001,-0.003350287,3.3424000000000024e-05,0.0008695361600000001,0.0014547786000000005,4.697,0,0
-0.005367572000000001,-0.003307375,-0.00044588280000000004,-1.6477839999999935e-05,0.0008277728000000001,4.698,0,0
-0.0051342160000000005,-0.002611157,-0.0010501352,-0.00021675753999999997,-0.0002576891999999999,4.699,0,0
-0.002840594,-0.001347091,-0.0013302428000000002,-0.0002522469,-0.0021929552,4.7,0,0
-0.0010216699999999997,-0.00033383820000000005,-0.0012887471999999999,-0.0005086361,-0.0026248698,4.701,0,0
0.0001579880000000003,0.00022352365999999999,-0.0008568978000000001,-0.00027517129999999994,-0.0024388678000000002,4.702,0,0
0.0029450880000000002,0.00102733866,0.0001533902,-0.0001314745,-0.0035004040000000004,4.703,0,0
0.005991632,0.0017188606600000002,0.0011374242,-0.0007118668000000001,-0.004326630000000001,4.704,0,0
0.006913588,0.0018729406600000002,0.0017066428,-0.0013172302,-0.0034974150000000002,4.705,0,0
0.008058962000000001,0.0022798478600000002,0.001965442,-0.0014242354000000002,-0.0031149204,4.706,0,0
0.009070194,0.002578594,0.001919872,-0.0014962382000000003,-0.0028528914,4.707,0,0
0.006876083999999999,0.001531746,0.0016155676,-0.0014696510000000004,-0.0006703193999999999,4.708,0,0
0.0037118819999999997,0.00039799999999999997,0.0012691396,-0.0008387207999999999,0.0013910166000000003,4.709,0,0
0.0016845539999999998,-0.00016700800000000012,0.00088291318,3.08672e-05,0.0017657316000000004,4.71,0,0
-0.0015940820000000004,-0.0016339100000000001,0.00015962317999999994,0.00036493180000000004,0.0029055610000000005,4.711,0,0
-0.005314204000000001,-0.0028666560000000004,-0.0005279228200000001,0.0007421978,0.0043105899999999996,4.712,0,0
-0.006067654000000001,-0.0025881344,-0.00127870242,0.0017706778000000003,0.003185776,4.713,0,0
-0.006213252000000002,-0.002069672,-0.00227080442,0.0022133516,0.0022298276,4.714,0,0
-0.007225746000000001,-0.0019642364000000004,-0.002769436,0.0021158602000000007,0.0020551508,4.715,0,0
-0.006092546000000001,-0.0007272243999999999,-0.00268825,0.0024193646000000004,-0.00017067120000000035,4.716,0,0
-0.003580564,0.0009363516000000001,-0.002852332,0.0020528454,-0.0024009812,4.717,0,0
-0.0024986897000000004,0.0013854660000000001,-0.002628714,0.0009028514000000001,-0.0023610566000000005,4.718,0,0
-0.0009235757000000001,0.0016183356000000002,-0.0015762800000000002,0.0006071794,-0.0029053042,4.719,0,0
0.0023817303,0.002468052,-0.0007378200000000003,0.0008226527999999999,-0.004169121400000001,4.72,0,0
0.0048030943,0.0029202300000000002,-4.131200000000022e-05,0.0005210532,-0.0034933374,4.721,0,0
0.0058765603,0.00247363,0.000942532,0.0003760716,-0.0026181532000000003,4.722,0,0
0.0070608120000000005,0.0023566159999999997,0.001738766,0.0003700656,-0.0027390698,4.723,0,0
0.00691807,0.0021061424,0.001859846,-0.0002488364,-0.0014687538000000002,4.724,0,0
0.004136455999999999,0.0007737924000000001,0.0017032158,-0.0009478884000000001,0.0012225482,4.725,0,0
0.0014463999999999998,-0.0005819676000000001,0.0015370018,-0.0012218336,0.0027543282,4.726,0,0
-0.000781642,-0.0014952056,0.0011658558,-0.0014442248,0.003692156,4.727,0,0
-0.004206716,-0.0029689236000000003,0.00044868779999999997,-0.0014924248000000003,0.005304412,4.728,0,0
-0.006971368,-0.0040204740000000004,-0.00026098019999999997,-0.0010311264000000002,0.0058348739999999994,4.729,0,0
-0.007383804,-0.0033282428000000006,-0.000998036,-0.0008120258,0.0044971392,4.73,0,0
-0.007738902,-0.002572011,-0.001732082,-0.0007128830000000001,0.0034361946000000003,4.731,0,0
-0.008015267999999999,-0.0020819842,-0.0018396856000000002,0.00012986700000000004,0.0026818492,4.732,0,0
-0.005185993999999999,-0.0001759522,-0.0017632436000000003,0.0007938330000000001,0.0006927892000000001,4.733,0,0
-0.001794378,0.0016226378,-0.0017696476,0.00045898060000000004,-0.0009361548000000001,4.734,0,0
4.1604000000000315e-05,0.0020031266000000002,-0.0014885876000000002,0.0004371971999999999,-0.0011866900000000002,4.735,0,0
0.002749466,0.0028576928,-0.0007226316000000002,0.0006399164,-0.0019213894,4.736,0,0
0.005988926,0.003956912,0.00015582599999999997,-6.319439999999998e-05,-0.003011346,4.737,0,0
0.006988602,0.003704998,0.0009424880000000001,-0.0004898764,-0.0026781239999999996,4.738,0,0
0.007289308,0.0034226540000000002,0.001903086,-0.00010680560000000002,-0.0024209394,4.739,0,0
0.008232022,0.003656096,0.0026243940000000004,-7.66546e-05,-0.0026942613999999996,4.74,0,0
0.006873730000000001,0.0025453834,0.0024318968,-0.0006434538,-0.0011254314000000002,4.741,0,0
0.004134436000000001,0.0008922994,0.0017623520000000002,-0.0007839170000000001,0.0008559326,4.742,0,0
0.0022749280000000003,-3.4252600000000174e-05,0.001405112,-0.000587736,0.0011037262,4.743,0,0
-8.268199999999994e-05,-0.0012969806,0.0009102022000000002,-0.0006865228,0.0016730996000000001,4.744,0,0
-0.003662632,-0.0031029226000000003,0.0004010898,-0.000857035,0.0030152116,4.745,0,0
-0.005774476000000001,-0.003772776,0.0003870432,-0.0006295008,0.0024355296,4.746,0,0
-0.006137128,-0.003523224,0.0002205166,-0.0004410786,0.0010552096,4.747,0,0
-0.006869625999999999,-0.003723,-0.0004226754,-0.0008117556,0.0010934220000000001,4.748,0,0
-0.006255513999999999,-0.0034836500000000005,-0.0008699576000000001,-0.0008784598000000001,0.00021369200000000003,4.749,0,0
-0.003408324,-0.0022750020000000004,-0.0008179892,-0.0005654564,-0.0021193699999999998,4.75,0,0
-0.0009896059999999999,-0.001065772,-0.0009531676,-0.00023980380000000002,-0.0029991639999999995,4.751,0,0
0.0006852300000000002,-0.0004310806,-0.0011424162,0.00016017400000000002,-0.0028677520000000003,4.752,0,0
0.003622528,0.0008019194,-0.0005706336000000002,0.0005884088000000001,-0.003949574,4.753,0,0
0.006366664,0.0022184114,0.00018751840000000002,0.000879839,-0.004211684,4.754,0,0
0.007184152,0.0022622554,0.0005097084,0.00086237532,-0.0026781172000000003,4.755,0,0
0.007861104,0.0021049674,0.0009011566,0.00069682912,-0.0020366902,4.756,0,0
0.00830196,0.002215682,0.0014271746000000002,0.00061378112,-0.0011788882000000002,4.757,0,0
0.005970416000000001,0.001162428,0.001519588,0.00055440072,0.0016585217999999999,4.758,0,0
0.002275816000000001,-0.000249092,0.0013462,0.00056387672,0.0037890458000000003,4.759,0,0
-0.00013897199999999969,-0.0006349512000000001,0.0013354220000000002,0.000762047,0.004115131,4.76,0,0
-0.0032077299999999998,-0.0015531132000000001,0.0008446304000000001,0.000624701,0.005220664,4.761,0,0
-0.0069056759999999995,-0.0027326472,-0.00022403960000000008,0.00044469559999999993,0.006011456,4.762,0,0
-0.007865956,-0.0024847132,-0.0011280316,0.0005859852,0.0044314188,4.763,0,0
-0.007445284000000001,-0.002085834,-0.0019026656000000002,9.054319999999996e-05,0.0028461088000000007,4.764,0,0
-0.007665610000000001,-0.0023938548,-0.0026426476,-0.0003390428,0.0020684468,4.765,0,0
-0.0061647460000000005,-0.0019098779999999998,-0.0028048599999999997,0.00032805260000000005,-7.036720000000028e-05,4.766,0,0
-0.0031574080000000004,-0.0008144499999999999,-0.0022038420000000006,0.000500512,-0.0026812092000000004,4.767,0,0
-0.00153629,-0.0003477939999999999,-0.0015250620000000002,7.241400000000003e-05,-0.0035253520000000003,4.768,0,0
-1.989199999999987e-05,0.00028275680000000006,-0.0009543682000000002,0.00064745,-0.004180786000000001,4.769,0,0
0.0031655439999999997,0.0016007568000000001,-0.0002702022000000001,0.001102506,-0.0053017080000000005,4.77,0,0
0.005700224,0.0027834120000000003,0.00041346580000000007,0.0002145580000000001,-0.005050784,4.771,0,0
0.006506694,0.0029929040000000002,0.0009811638,-0.000482644,-0.0039010144,4.772,0,0
0.007524536000000001,0.0030655960000000003,0.0013877218,-0.00044912559999999997,-0.0032801710000000006,4.773,0,0
0.007444518,0.00282391,0.0018339860000000001,-0.0010546956000000002,-0.001941571,4.774,0,0
0.004060398000000001,0.0011696620000000001,0.002105618,-0.0018359015999999998,0.0007903629999999999,4.775,0,0
6.150200000000039e-05,-0.000565454,0.002129002,-0.0017599036,0.0026483410000000002,4.776,0,0
-0.002737482,-0.001332482,0.0018695022,-0.0016130455999999998,0.0034684194,4.777,0,0
-0.006342140000000001,-0.00249746,0.0012414581999999998,-0.0017733900000000001,0.004830978,4.778,0,0
-0.009710972000000002,-0.003694738,0.00040137820000000015,-0.0013893488,0.005197037999999999,4.779,0,0
-0.009718472,-0.0027627562000000004,-0.0006129878,-0.0005646628,0.0036940260000000004,4.78,0,0
-0.008567488,-0.0015427562000000002,-0.0014437578,-0.00017366320000000002,0.002935854,4.781,0,0
-0.007715282,-0.00118665116,-0.00182485,0.0005232968,0.0024033122000000004,4.782,0,0
-0.004603078,0.00037115084000000005,-0.001615124,0.0016371708000000001,7.42522000000002e-05,4.783,0,0
-0.0005583200000000002,0.0024901308400000002,-0.00123003716,0.0019511016,-0.0015486258,4.784,0,0
0.00172982,0.0031826730400000003,-0.00059552676,0.001868593,-0.0016924198,4.785,0,0
0.004027498,0.00339318304,0.0002489032400000001,0.0019799034,-0.0031028438000000004,4.786,0,0
0.006913548,0.004085826000000001,0.00072874124,0.0015708662,-0.004676606,4.787,0,0
0.007912526,0.003928556000000001,0.0007300812400000001,0.0006452252,-0.0042114399999999995,4.788,0,0
0.00805824,0.0029203488000000004,0.0008462728,0.00010340220000000001,-0.0035640366000000002,4.789,0,0
0.007996211999999999,0.0018268688000000004,0.0013134404,-0.0006581712,-0.0034346206000000004,4.79,0,0
0.005454128,0.0002559308000000002,0.0010469212,-0.0016718072,-0.0016895006000000002,4.791,0,0
0.0012835380000000007,-0.0015507192,0.00025857920000000006,-0.002100984,0.0005471854,4.792,0,0
-0.002033974,-0.0030335232000000003,-0.00017444680000000003,-0.0020775108,0.0010852862,4.793,0,0
-0.0048421720000000005,-0.004220014,-0.0008307672,-0.0015771878000000001,0.0012815804,4.794,0,0
-0.007731266,-0.004775652000000001,-0.0023832272,-0.0007604198,0.0017169144,4.795,0,0
-0.008394418,-0.004201462,-0.00320616,0.0001485206,0.0011412902000000002,4.796,0,0
-0.0064224317999999996,-0.0029615686,-0.0030554040000000003,0.0009817766000000002,0.0006374462,4.797,0,0
-0.0047737178000000005,-0.0018349134,-0.003120944,0.0015810204,0.0019328214,4.798,0,0
-0.0027400578,-0.00040769139999999977,-0.0026680248,0.0018197924000000003,0.0036188078,4.799,0,0
0.0014067642,0.0012752306000000002,-0.0015660742000000003,0.0018686644000000003,0.0046927078,4.8,0,0
0.0047992442,0.0020766406000000005,-0.0006300062,0.0016477186000000003,0.006106970000000001,4.801,0,0
0.006140266,0.0023954212,0.0003783418000000001,0.0010134646,0.006923322000000001,4.802,0,0
0.008076122000000002,0.0032846800000000008,0.0017003758000000001,0.00025748660000000017,0.005369442,4.803,0,0
0.009747928000000001,0.0038628960000000006,0.0024315966,-0.0005541094,0.0024116220000000004,4.804,0,0
0.008625268,0.0035750440000000003,0.0027235740000000003,-0.0009853018,-0.0003511100000000002,4.805,0,0
0.00710066,0.0035496160000000007,0.0030644140000000005,-0.0010310874000000001,-0.004249916,4.806,0,0
0.005633842200000001,0.0031997802,0.003100958,-0.0010971854,-0.00848027,4.807,0,0
0.0017754922,0.0012735782,0.002508796,-0.0011269193999999998,-0.010809782,4.808,0,0
-0.0028542078,-0.0009335837999999998,0.0017211624,-0.0008166948,-0.012375798,4.809,0,0
-0.0055324198,-0.0020868278,0.0010114484,-0.0003184144,-0.013134300000000002,4.81,0,0
-0.0077905978,-0.0032516698000000003,6.405640000000013e-05,2.787539999999996e-05,-0.011270482000000002,4.811,0,0
-0.010037477999999999,-0.004345310000000001,-0.0009796396,0.0007278334,-0.007398944000000002,4.812,0,0
-0.009075386,-0.003802862,-0.0016158696,0.0017774394000000002,-0.0029694099999999996,4.813,0,0
-0.006688122116,-0.0025801024000000005,-0.0017462240000000002,0.0021191228000000005,0.0029836899999999998,4.814,0,0
-0.005423462116000001,-0.0017079844000000004,-0.002032068,0.0018984492,0.009660950000000001,4.815,0,0
-0.002658272116,-0.0003111244000000002,-0.002080554,0.0021010564,0.014199112000000002,4.816,0,0
0.0017164678839999999,0.0014569616,-0.001368438,0.0018938362,0.016810594,4.817,0,0
0.003931623884,0.0023947756000000002,-0.000631824,0.0008471881999999999,0.017971120000000004,4.818,0,0
0.005294674,0.0028146640000000006,-8.642400000000004e-05,0.0003086988,0.015904616,4.819,0,0
0.008075806,0.0032992460000000005,0.0009018920000000001,-1.4172600000000055e-05,0.010618524000000002,4.82,0,0
0.008930536,0.0031511080000000006,0.001748354,-0.0008898266000000001,0.004515164,4.821,0,0
0.007446435999999999,0.002286652,0.0017227359999999999,-0.0015311104000000002,-0.0021106560000000003,4.822,0,0
0.006582964000000001,0.0015788312,0.001923696,-0.0016860764,-0.009689016000000002,4.823,0,0
0.0049546600000000005,0.0008141292000000001,0.00220561,-0.001865893,-0.015372072,4.824,0,0
0.00046597999999999995,-0.0009768968,0.0016912288,-0.0017229548000000003,-0.01790778,4.825,0,0
-0.003644444,-0.0025021748,0.001108268,-0.0009704548,-0.01870008,4.826,0,0
-0.006083658,-0.0029317268,0.0006950442,-0.00034226540000000005,-0.017076928,4.827,0,0
-0.009340624,-0.003504226,-9.163179999999995e-05,-7.880980000000005e-05,-0.011883522000000002,4.828,0,0
-0.011636034,-0.0035345099999999994,-0.0009923657999999999,0.0001844422,-0.005236582000000001,4.829,0,0
-0.010566764,-0.0022311979999999998,-0.0014629466000000001,0.0002915574,0.0008739780000000001,4.83,0,0
-0.008653402000000001,-0.0010934488000000002,-0.0017544258,-0.00033142260000000004,0.007938698000000001,4.831,0,0
-0.007023314,-0.0004311555999999999,-0.002086702,-0.00105338,0.014661806000000003,4.832,0,0
-0.0032748859999999994,0.0007106144,-0.002149806,-0.0012147976,0.018058440000000002,4.833,0,0
0.0008894800000000002,0.0015421704,-0.0016611408000000002,-0.0017443876,0.019141540000000002,4.834,0,0
0.002979756,0.0013131614000000001,-0.0010797146,-0.002413146,0.018923880000000004,4.835,0,0
0.005048802,0.0012908372,-0.000792458,-0.0022358518000000003,0.015146230000000004,4.836,0,0
0.007444448000000001,0.001845128,-0.00026635520000000003,-0.0019663958000000004,0.008328186000000001,4.837,0,0
0.007857164000000002,0.0013178760000000002,0.00047235479999999997,-0.0021373798000000003,0.0015228460000000013,4.838,0,0
0.006985128,0.00016439199999999997,0.0010350936000000002,-0.0018304977999999998,-0.005795954000000001,4.839,0,0
0.006670128,-0.00018855100000000002,0.0016738094000000002,-0.0014431717999999999,-0.013204514,4.84,0,0
0.004822298,-0.001140476,0.0022764168000000006,-0.001497612,-0.017675604,4.841,0,0
0.0010324020000000002,-0.002844856,0.0023277694000000005,-0.0009882196,-0.01899188,4.842,0,0
-0.001584596,-0.0032338080000000003,0.0019533542,-0.0001163556,-0.0187275,4.843,0,0
-0.0032934740000000002,-0.0031525700000000004,0.0012542394000000002,0.0005214104000000001,-0.015941740000000003,4.844,0,0
-0.005700328,-0.003370254,0.0002672114,0.0011173084,-0.010350544,4.845,0,0
-0.006485394,-0.0022626,-0.0006861166,0.0017917824,-0.004441288000000002,4.846,0,0
-0.004596756,-0.0006366540000000001,-0.00119937,0.0021762500000000002,0.0014000519999999997,4.847,0,0
-0.00311817,0.00032491599999999996,-0.0014044816,0.002113128,0.008362012,4.848,0,0
-0.0016945620000000002,0.0017072000000000003,-0.0014477108000000001,0.002048702,0.014266952,4.849,0,0
0.001638104,0.0035355560000000005,-0.0008968728,0.002262114,0.017066596,4.85,0,0
0.004782532,0.0044091880000000005,-8.905679999999996e-05,0.00236031,0.018269439999999998,4.851,0,0
0.0060002779999999995,0.004340278000000001,0.0005081916,0.0020737719999999998,0.01760958,4.852,0,0
0.007655846,0.004583328000000001,0.0012107984,0.0019635904,0.013507454,4.853,0,0
0.009653866,0.004573188000000001,0.0021155144,0.0013354704,0.007466022000000001,4.854,0,0
0.00896208,0.0030505460000000003,0.0023488624,0.00038595439999999996,0.0011031619999999995,4.855,0,0
0.007318722000000001,0.0015548919999999998,0.0020183588,-0.00014432246000000004,-0.006333998000000001,4.856,0,0
0.006207242000000001,0.0006511959999999999,0.0017338332,-0.00056924166,-0.013458998000000002,4.857,0,0
0.0026429540000000007,-0.0016501760000000004,0.0010786578,-0.00057478586,-0.017380672,4.858,0,0
-0.0026010259999999998,-0.0042076480000000005,4.2133999999999987e-05,-3.691586000000003e-05,-0.0189056,4.859,0,0
-0.005760098,-0.004743182,-0.00072762,0.00043476574000000007,-0.01861668,4.86,0,0
-0.008313419999999998,-0.004638546,-0.0012961784,0.0005546336,-0.014699522000000001,4.861,0,0
-0.011049107999999998,-0.004752646000000001,-0.0020894952000000003,0.0010653108000000001,-0.008128268000000001,4.862,0,0
-0.010724095999999999,-0.0032678095999999998,-0.0025172458000000003,0.0014494206,-0.0015413680000000009,4.863,0,0
-0.0081039232,-0.0011930436000000002,-0.00262036,0.0013590324,0.005382952,4.864,0,0
-0.0060691446,-0.0006384616,-0.0026719020000000003,0.0011177134,0.013072012000000001,4.865,0,0
-0.0034015786,-9.258159999999999e-05,-0.0021831446,0.0009907763399999998,0.018796074,4.866,0,0
0.0005386794000000002,0.0011708644000000001,-0.001280193042,0.0007993257399999999,0.02095846,4.867,0,0
0.0032026174000000006,0.0015916740000000002,-0.0005184730419999999,0.00021813174,0.020988220000000002,4.868,0,0
0.004905084600000001,0.001851532,0.0001321469580000001,-4.975266000000003e-05,0.018596928000000002,4.869,0,0
0.007460426,0.003025486,0.0006801949580000001,-0.00025777526000000006,0.012207802000000002,4.87,0,0
0.008843436000000001,0.003349446,0.0007958115580000002,-0.0006661572000000001,0.003969722000000002,4.871,0,0
0.007912712,0.0025665673999999998,0.0005419320000000002,-0.0010501066,-0.0038589579999999996,4.872,0,0
0.0070502659999999995,0.002321214,0.0002814454000000001,-0.0012674646,-0.012158478,4.873,0,0
0.0056058316000000006,0.0018284342,0.00018427340000000007,-0.001390878,-0.018822946,4.874,0,0
0.0014082896000000005,0.0001256422,-0.00026572059999999993,-0.0012171342,-0.021245399999999998,4.875,0,0
-0.0028298864000000003,-0.0012942618,-0.0009185666,-0.0007539798000000001,-0.02122464,4.876,0,0
-0.005166784400000001,-0.0019364211999999999,-0.0008912046,-0.0007367188,-0.018939967999999998,4.877,0,0
-0.008050380400000001,-0.0029861518,-0.001090924,-0.0008346808,-0.013023844,4.878,0,0
-0.010608766,-0.0035263960000000002,-0.0019517520000000002,-0.0004700618000000001,-0.0056810639999999996,4.879,0,0
-0.009839104,-0.00257162,-0.002230338,-0.00012196220000000005,0.0012039160000000006,4.88,0,0
-0.0077402600000000005,-0.0016286244,-0.001908332,-0.00018660459999999998,0.008925676,4.881,0,0
-0.006358624,-0.0009799545999999997,-0.0016307816,0.0001939494,0.016124444,4.882,0,0
-0.0033811579999999996,0.0005115594000000001,-0.0013854496000000002,0.0009523974,0.019820420000000002,4.883,0,0
0.00016301399999999995,0.0016123594,-0.0006477696,0.0007945824,0.02089494,4.884,0,0
0.001884918,0.0015542052000000004,0.0006274564,0.00013444299999999993,0.020090700000000003,4.885,0,0
0.00358154,0.0021077736,0.0017246884,-1.6692200000000023e-05,0.015465881400000003,4.886,0,0
0.005881726,0.0027821658,0.002274026,-0.0001838528,0.007631941400000002,4.887,0,0
0.0065943899999999995,0.0021653926,0.002860008,-0.0008104984000000001,-0.0003459985999999999,4.888,0,0
0.005919812,0.00154508408,0.00321786,-0.0007478488000000001,-0.008349538600000001,4.889,0,0
0.005672127999999999,0.00126071568,0.002926386,-0.00016485380000000002,-0.0161785586,4.89,0,0
0.0038274000000000003,-0.00014296832000000007,0.002211042,-0.0003724886,-0.0205661,4.891,0,0
4.347399999999994e-05,-0.0018209463200000002,0.0010687799999999999,-0.000651977,-0.021116180000000002,4.892,0,0
-0.002655744,-0.00259833112,8.143599999999994e-05,-0.0004284626,-0.01984116,4.893,0,0
-0.0040813740000000005,-0.0031659626000000002,-0.0005085988,-0.0005892245999999999,-0.015839112,4.894,0,0
-0.00606948,-0.0036622300000000007,-0.0009844068,-0.0008920568000000001,-0.008784952,4.895,0,0
-0.006900922,-0.003479872,-0.0010954686000000003,-0.0003675466,-0.0015576720000000008,4.896,0,0
-0.0050648178,-0.0025271240000000004,-0.000722465,0.0001549114,0.004894168000000001,4.897,0,0
-0.0035883244000000005,-0.0015068656000000002,-0.000600763,6.584199999999977e-06,0.011763548000000002,4.898,0,0
-0.0023054764000000004,-0.0006105256000000002,-0.0007988242000000001,-8.885940000000003e-05,0.01725408,4.899,0,0
0.0009828656,0.0006674824,-0.0008765372000000002,-0.00021939620000000003,0.019130180000000004,4.9,0,0
0.0040307316,0.0017329264,-0.0005007654000000002,-0.0007051844000000001,0.018988340000000003,4.901,0,0
0.005252281400000001,0.0023609603999999998,7.726700000000006e-05,-0.0010806638,0.01719889,4.902,0,0
0.007355496000000001,0.0034869880000000003,0.0004885882,-0.0007696672000000001,0.011781042000000002,4.903,0,0
0.009775344000000002,0.0044034880000000005,0.0010890142000000002,-0.00043188420000000007,0.004245762000000001,4.904,0,0
0.009315208000000002,0.004254644,0.0018363952,-0.00029552000000000007,-0.0030263979999999996,4.905,0,0
0.008000558000000001,0.004006524,0.0021016712000000003,0.00029344,-0.010456258,4.906,0,0
0.00701404,0.003611994,0.0019227512,0.00034433859999999996,-0.016806488,4.907,0,0
0.0034452599999999995,0.0018040339999999997,0.0017750410000000002,-0.00018834359999999998,-0.0196278,4.908,0,0
-0.00157684,-6.868399999999995e-05,0.0012602390000000002,-0.000206729,-0.01987368,4.909,0,0
-0.00521376,-0.0010333480000000001,0.000391249,8.685320000000003e-05,-0.01828666,4.91,0,0
-0.008262832000000001,-0.0022409440000000004,-0.0002332182,8.104520000000001e-05,-0.0137324992,4.911,0,0
-0.01111042,-0.0033519860000000004,-0.0005762988,0.00040884600000000004,-0.007085239199999999,4.912,0,0
-0.011262166,-0.0034761360000000003,-0.000709072,0.001132166,-0.00029035919999999965,4.913,0,0
-0.009220782,-0.0030020380000000007,-0.0006376242,0.0013802644,0.0065901608000000006,4.914,0,0
-0.00771401,-0.0026786296000000007,-0.0008370822,0.001543352,0.013314240800000002,4.915,0,0
-0.005295359000000001,-0.0019124854000000001,-0.0009393434,0.0019173280000000003,0.01740436,4.916,0,0
-0.0014158330000000002,-0.0006976614000000002,-0.0006567509999999999,0.0019431080000000002,0.01855174,4.917,0,0
0.0009580010000000004,-1.6382999999999955e-05,-0.0005113888,0.0014891682000000002,0.01805336,4.918,0,0
0.0022539850000000004,0.0001484694,-0.00021395459999999994,0.0014881182,0.014973762,4.919,0,0
0.0054845530000000005,0.000983279,0.0005927594,0.0014593162,0.009161276,4.92,0,0
0.008156422,0.0019220888,0.0012737318,0.0007271224000000001,0.002792136,4.921,0,0
0.008206484,0.0019745448000000002,0.0013245600000000002,0.0003684400000000001,-0.003600084000000001,4.922,0,0
0.008238936,0.0023721144,0.0011964222000000002,0.00033896420000000004,-0.010484164,4.923,0,0
0.007415359800000001,0.0024957792,0.0009627844,-0.0004385818,-0.015295366,4.924,0,0
0.003365921800000001,0.0009936352000000002,0.00039482440000000003,-0.0011736958,-0.01646724,4.925,0,0
-0.0012944981999999997,-0.0008985167999999998,-0.00040680960000000004,-0.0010744939800000001,-0.015805704,4.926,0,0
-0.004180154199999999,-0.0019849028,-0.0008353316000000001,-0.00099306978,-0.013491911999999998,4.927,0,0
-0.0075513942,-0.0031657648,-0.0010905358000000002,-0.0010818137800000002,-0.008207136,4.928,0,0
-0.010061266,-0.003948038,-0.0017406000000000001,-0.0005646439800000001,-0.001799556,4.929,0,0
-0.008999090000000001,-0.0030332034,-0.002035958,0.00018418002000000004,0.0035521840000000003,4.93,0,0
-0.007192494000000001,-0.0014811234,-0.0017819666,3.606600000000007e-06,0.009182308,4.931,0,0
-0.00591991,-0.0003646934000000002,-0.0014966892000000001,-0.0002795072,0.014517616,4.932,0,0
-0.002446032,0.0010477246,-0.0011667168,-0.00040927959999999996,0.01687022,4.933,0,0
0.0014517380000000002,0.0027475506000000003,-0.0005081372,-0.0012216534,0.017032440000000003,4.934,0,0
0.002959886,0.003421104,0.0001231502,-0.0020670734,0.01578902,4.935,0,0
0.005024276,0.003697498,0.0004187908,-0.00192467,0.011419422000000002,4.936,0,0
0.00816894,0.004477346,0.0008889714,-0.0015494236000000003,0.004907782,4.937,0,0
0.009479542,0.004612768000000001,0.001581865,-0.0013752388,-0.001257518,4.938,0,0
0.009400406,0.0035849140000000002,0.0020393254,-0.00042820879999999986,-0.007306118,4.939,0,0
0.009632576,0.0025992000000000003,0.00225806,0.0002666936,-0.012989798,4.94,0,0
0.007784121200000001,0.0011234480000000004,0.0020917874,0.00016454480000000003,-0.01589678,4.941,0,0
0.0032270012000000002,-0.0013530639999999997,0.0011966094,0.00035269840000000006,-0.01604072,4.942,0,0
-0.0003890988000000001,-0.0030377399999999997,0.0001559754,0.0007855796000000002,-0.015103512000000001,4.943,0,0
-0.0029710368,-0.003958794,-0.0006768946000000001,0.0006557644000000001,-0.012110264,4.944,0,0
-0.0062178728,-0.005409812,-0.0013740986,0.0006532376000000001,-0.006892321999999999,4.945,0,0
-0.008321224,-0.006289324,-0.00198515,0.0014684464000000001,-0.001648658,4.946,0,0
-0.00747201,-0.005570358000000001,-0.0026429020000000004,0.0019271164000000001,0.0034221220000000005,4.947,0,0
-0.006541108,-0.004995118,-0.003022232,0.0019195224,0.008934074,4.948,0,0
-0.005846542,-0.004416084,-0.0028942020000000002,0.0017804844000000003,0.012835026000000003,4.949,0,0
-0.002499532,-0.0022936320000000003,-0.0023750010000000003,0.0014123228,0.014105924000000002,4.95,0,0
0.001101352,-3.0158000000000073e-05,-0.0017738010000000002,0.0008731472000000001,0.014121248000000001,4.951,0,0
0.0025496119999999997,0.0011700060000000001,-0.000993847,9.370560000000001e-05,0.01240542,4.952,0,0
0.004115908,0.002561914,5.0482999999999984e-05,-0.0002405904,0.008135,4.953,0,0
0.00633685,0.004242302,0.000842117,-0.0002855634,0.00275194,4.954,0,0
0.006738578,0.00458512,0.0013488760000000002,-0.0007786454000000001,-0.00232128,4.955,0,0
0.006946996,0.004430128,0.0021938260000000003,-0.0013029078000000001,-0.007605988,4.956,0,0
0.008802522,0.0046261620000000005,0.0032804040000000002,-0.0013233838,-0.012482960000000001,4.957,0,0
0.008510164,0.0034453536,0.00322563,-0.0015875258,-0.0146033,4.958,0,0
0.005486454,0.0014507196000000003,0.002151816,-0.0019396176,-0.01459762,4.959,0,0
0.00260264,0.0003377596,0.0013898442000000002,-0.0016153235999999999,-0.013578412000000002,4.96,0,0
-0.0008162639999999999,-0.0007223064,0.0004892388000000001,-0.0019502916,-0.0103764012,4.961,0,0
-0.0057589040000000005,-0.0021865344,-0.0007283411999999999,-0.002591,-0.0054423292,4.962,0,0
-0.008456562,-0.00244948,-0.0011088358,-0.0024451271999999997,-0.0008597452000000002,4.963,0,0
-0.007975384,-0.001828642,-0.0006167756000000001,-0.0023719912,0.0035510348,4.964,0,0
-0.007998894000000001,-0.0019199360000000001,-0.0007653898000000001,-0.0021049754,0.008554826800000002,4.965,0,0
-0.007099422000000001,-0.0018732339999999999,-0.0010109224000000002,-0.0007992393999999998,0.011872556000000001,4.966,0,0
-0.0046152369999999995,-0.0014452320000000003,-0.00046861620000000006,0.0006878746,0.012861684000000002,4.967,0,0
-0.0037958510000000003,-0.0017924339999999999,-0.00029377760000000004,0.0017954058,0.013037158,4.968,0,0
-0.004355829,-0.0026193220000000003,-0.00016487480000000002,0.0033686718,0.011731942,4.969,0,0
-0.0033193948,-0.0023913090000000003,0.0007063172,0.0046102520000000004,0.0078878,4.97,0,0
-0.0023158416,-0.0015496490000000002,0.0017869492,0.004382414,0.0028515159999999997,4.971,0,0
-0.0033509526,-0.0012066450000000001,0.002541519,0.004090006,-0.0014038040000000002,4.972,0,0
-0.0036742826000000003,-0.00034368819999999994,0.003314013,0.003879508,-0.005369722,4.973,0,0
-0.0039029806000000005,0.0007965138,0.003873852,0.0026491292,-0.008399654,4.974,0,0
-0.0064214688,0.0004306628000000001,0.003842194,0.0016029084,-0.008727028,4.975,0,0
-0.008147188000000001,-0.0005303472000000001,0.003380202,0.0019042704000000001,-0.006903146600000001,4.976,0,0
-0.006324032,-0.00064788348,0.0023145906000000003,0.0020648104000000004,-0.0039570506,4.977,0,0
-0.0037550440000000004,-0.0008485722800000001,0.001415229,0.0014069870000000002,5.5667400000000266e-05,4.978,0,0
-0.0009316260000000007,-0.0010583660800000002,0.0009281098000000002,0.0009386457999999999,0.0043592354000000005,4.979,0,0
0.004785134,4.838392000000005e-05,0.0007005178000000001,-0.00015673939999999984,0.006694971400000001,4.98,0,0
0.010455530000000001,0.0016856459200000002,0.0010894598,-0.0023652354,0.007178954,4.981,0,0
0.01229218,0.0026830142,0.0019754192,-0.0048711634,0.0064147932,4.982,0,0
0.013691974,0.004069916200000001,0.0027131288000000003,-0.00672294,0.0034754272000000006,4.983,0,0
0.0151124,0.0052546599999999995,0.0024533452,-0.0075547800000000005,-8.347880000000017e-05,4.984,0,0
0.013049916000000002,0.004934409999999999,0.0022124296,-0.0067303960000000005,-0.0019486028000000003,4.985,0,0
0.010309160000000001,0.004773674,-1.2430399999999826e-05,-0.004198454,-0.0023581028,4.986,0,0
0.0097714,0.0064575380000000005,-0.0066471204,-0.0011713260000000003,-0.0031609380000000007,4.987,0,0
0.008630002,0.008235416,-0.013599802400000001,0.001604738,-0.003914006,4.988,0,0
0.00643166,0.009979652,-0.0201615596,0.0034570320000000005,-0.0048669,4.989,0,0
0.005775662,0.013066827999999999,-0.028592754,0.004113564,-0.0077149359999999995,4.99,0,0
0.003799934,0.01469798,-0.0333388,0.003512238,-0.010028936,4.991,0,0
-0.0013188660000000001,0.013811304,-0.03017864,0.00264969,-0.010175256,4.992,0,0
-0.005614208000000001,0.011895751999999999,-0.023647635599999998,0.001895322,-0.009280608,4.993,0,0
-0.008410506,0.008892585800000002,-0.0130456756,0.0013018466000000002,-0.006785632,4.994,0,0
-0.012682184,-0.0007349742000000012,0.0024032444,0.0009730326,-0.0016805700000000006,4.995,0,0
-0.0159486,-0.0163836942,0.0153393244,0.0009049965999999999,0.00271887,4.996,0,0
-0.014732182,-0.0264138182,0.024069004400000003,0.0006467872,0.004673946,4.997,0,0
-0.012687592000000001,-0.0293909202,0.029381060000000004,-0.0001703928,0.0067267440000000015,4.998,0,0
-0.010723394,-0.0295581522,0.028051320000000005,-0.0003184054,0.00799737,4.999,0,0
-0.005314266,-0.0221527082,0.021615964000000005,-0.0004459834,0.007048260000000001,5.0,0,0
0.0007443140000000003,-0.007701162199999999,0.015751608,-0.0011043054,0.005812908000000001,5.001,0,0
0.0036790620000000003,0.0016963718,0.011797208,-0.0010465534000000001,0.005719144000000001,5.002,0,0
0.006034986000000001,0.0038973418,0.011359408000000001,3.290600000000019e-06,0.00553186,5.003,0,0
0.008077854,0.0033221319999999998,0.015500248000000001,0.0006194306,0.005808890000000001,5.004,0,0
0.0070595860000000005,0.0006344739999999995,0.019314304,0.0008424174000000001,0.0074170980000000004,5.005,0,0
0.005007703200000001,-0.0017180440000000002,0.019223464000000003,0.0015035034,0.008338714,5.006,0,0
0.0040676252,-0.0029814820000000006,0.013880264000000002,0.0020412428000000002,0.008552736000000002,5.007,0,0
0.0013932872,-0.003530278,0.002584084000000002,0.0019332428000000002,0.00952971,5.008,0,0
-0.0026605587999999998,-0.00313319,-0.011310176,0.0017578528000000001,0.009199916,5.009,0,0
-0.0045974768,-0.0015593697,-0.021951256,0.0017611396,0.005810244000000001,5.01,0,0
-0.006147248,0.00036185829999999994,-0.02713316,0.0003959316000000002,0.0007837999999999999,5.011,0,0
-0.008349230000000001,0.0021556983,-0.026091040000000003,-0.0016387384,-0.0056242340000000005,5.012,0,0
-0.0077518759999999996,0.0042189543,-0.019531648000000002,-0.0029810744,-0.013225214,5.013,0,0
-0.004719406,0.0059913083,-0.011884760000000001,-0.0043143104,-0.018293292000000003,5.014,0,0
-0.002920484,0.006608572,-0.0032649,-0.0052545460000000006,-0.017900766000000002,5.015,0,0
-0.001021326,0.006657432,0.00649312,-0.0043347384,-0.013951776,5.016,0,0
0.002398552,0.0068367720000000005,0.011448360000000001,-0.0027981764,-0.008033036,5.017,0,0
0.004206054,0.006377132,0.010909006,-0.0022368124,-0.0013491859999999998,5.018,0,0
0.005115586,0.005867028,0.009659222,-0.0019270284,0.0020516982,5.019,0,0
0.007972542,0.006069696,0.005928916,-0.0020953844,0.0005126062000000002,5.02,0,0
0.010844098,0.00543287,0.0003276300000000002,-0.003081166,-0.0027470438000000005,5.021,0,0
0.011904094,0.003218548,-0.001791,-0.00452152,-0.005778243800000001,5.022,0,0
0.01235237,0.001364714,-0.00080295,-0.005577964,-0.009135953800000002,5.023,0,0
0.011193947999999999,-5.751000000000004e-05,0.0026717460000000005,-0.005749916000000001,-0.010551108000000002,5.024,0,0
0.006390365999999999,-0.001654562,0.007448812000000001,-0.0048661838,-0.008039892,5.025,0,0
0.0004885659999999993,-0.0023427940000000005,0.009291744,-0.0027373018000000004,-0.004335816000000001,5.026,0,0
-0.0039775,-0.002395668,0.00816589,6.597819999999981e-05,-0.000823046,5.027,0,0
-0.008448008,-0.0027227279999999998,0.0058234459999999995,0.0033253242000000002,0.0038391340000000006,5.028,0,0
-0.012136408000000001,-0.0028225620000000002,0.0011066459999999989,0.0064556982,0.007841044,5.029,0,0
-0.012420184,-0.002059748,-0.004586174,0.008866548000000002,0.008822036,5.03,0,0
-0.011236812,-0.0018234844000000001,-0.00813738,0.009998236,0.009004118,5.031,0,0
-0.010676522,-0.0022057024,-0.009650776,0.010151406,0.009156296000000001,5.032,0,0
-0.0078889052,-0.001615132,-0.00978617,0.010228516,0.0071790000000000005,5.033,0,0
-0.0029474172,-0.0006646660000000002,-0.008544598,0.009616452,0.004825127400000001,5.034,0,0
0.00025901280000000036,-0.0006217648000000002,-0.0070199519999999994,0.008259144,0.0037024234000000004,5.035,0,0
0.0028050408000000002,-0.0009594564000000002,-0.005395314,0.0065600879999999995,0.0020323574,5.036,0,0
0.0061012528,-0.0010291744,-0.0026020419999999997,0.004487084000000001,-3.553460000000003e-05,5.037,0,0
0.007306954,-0.0020835408000000003,0.0005276800000000001,0.0015888600000000003,0.0002790794000000001,5.038,0,0
0.006141809999999999,-0.003995082800000001,0.003846088,-0.001456568,0.002971772,5.039,0,0
0.005401368,-0.00496777,0.009036342,-0.004094624,0.005841326000000001,5.04,0,0
0.0041183006,-0.005321124,0.014107984,-0.006344394000000001,0.009217894,5.041,0,0
0.0005767305999999999,-0.005612946000000001,0.016562492,-0.007316780000000001,0.013241618,5.042,0,0
-0.0023249594000000003,-0.004286915400000001,0.016434394,-0.007352054,0.01497642,5.043,0,0
-0.0038747754000000006,-0.0012704434000000001,0.009781654,-0.0071930100000000005,0.012921034,5.044,0,0
-0.006042509400000001,0.0021463826,-0.005291705999999999,-0.006888204,0.008869758000000002,5.045,0,0
-0.0069689980000000006,0.0070050266,-0.024155786000000002,-0.005889104,0.0024221780000000014,5.046,0,0
-0.004548018,0.014901744599999999,-0.042956386000000006,-0.004978788,-0.007157882,5.047,0,0
-0.0015856200000000003,0.023800707999999997,-0.059392600000000004,-0.004440828,-0.017284582,5.048,0,0
0.0006237000000000003,0.03082426,-0.07131910000000001,-0.0031608784,-0.027012996000000004,5.049,0,0
0.004120646,0.03401894,-0.07268102000000001,-0.0017260078,-0.03561342,5.05,0,0
0.006904530000000001,0.025907,-0.05421974,-0.0012094458,-0.038918520000000005,5.051,0,0
0.006968780000000001,0.008324539999999998,-0.020763499999999997,-0.0012808338,-0.03544414,5.052,0,0
0.007046288,-0.0070400600000000025,0.013191580000000001,-0.0013120958,-0.027611890000000004,5.053,0,0
0.00797424,-0.01946414,0.04335124,-0.0023802174,-0.015211130000000002,5.054,0,0
0.007657662000000001,-0.029138140000000007,0.0635783,-0.004088516,0.0014156499999999992,5.055,0,0
0.006842944,-0.029775660000000002,0.06674630000000001,-0.004423604,0.017585290000000003,5.056,0,0
0.006374152000000001,-0.022656340000000004,0.05879960000000001,-0.0036034160000000003,0.030344430000000002,5.057,0,0
0.003606624000000001,-0.016230649399999998,0.045283260000000006,-0.002642478,0.039997500000000005,5.058,0,0
-0.0009703560000000001,-0.012295068160000002,0.030414366,-0.0008956140000000001,0.04474272000000001,5.059,0,0
-0.003776118,-0.009072976160000001,0.020672416,0.001730242,0.04259936,5.06,0,0
-0.006296524,-0.00513572416,0.015134616,0.0035761660000000004,0.03592204,5.061,0,0
-0.010494788000000001,-0.0023877381599999997,0.010893976,0.006186776000000001,0.026896228,5.062,0,0
-0.013291934000000002,-0.00280481276,0.009104996,0.012546226,0.014835908,5.063,0,0
-0.014069334000000003,-0.003268552,0.012423730000000001,0.021132682,0.0012211680000000008,5.064,0,0
-0.016056516000000003,-0.003732636,0.01741374,0.029344712000000002,-0.010044992,5.065,0,0
-0.01736514,-0.0035168120000000002,0.015151132000000001,0.03669624,-0.018877532000000002,5.066,0,0
-0.01482289,-0.0015444500000000008,0.006705112000000001,0.04046318,-0.02519148,5.067,0,0
-0.01065083,0.0010986540000000003,-0.0003466680000000005,0.036707220000000006,-0.026280460000000002,5.068,0,0
-0.005356570000000001,0.003945692000000001,-0.007545128000000002,0.0254756,-0.02391762,5.069,0,0
0.00273169,0.0069343140000000004,-0.015255368000000002,0.008346860000000001,-0.02226308,5.07,0,0
0.01141601,0.009216924000000001,-0.01784014,-0.01232124,-0.020112860000000003,5.071,0,0
0.01828998,0.009875456000000001,-0.018061360000000002,-0.03266862,-0.015846438,5.072,0,0
0.02412856,0.009511656,-0.018753400000000003,-0.048211140000000006,-0.011096856000000002,5.073,0,0
0.02750478,0.00861369,-0.01867728,-0.054887860000000004,-0.0029145760000000003,5.074,0,0
0.025720680000000003,0.006862140000000001,-0.01911144,-0.05229024000000001,0.009895684000000002,5.075,0,0
0.020920789999999998,0.005087566,-0.01984214,-0.04281132000000001,0.021068224000000003,5.076,0,0
0.015127882,0.004360308,-0.018364364,-0.029375148000000004,0.027217402000000005,5.077,0,0
0.007027581999999998,0.0023809105999999997,-0.013830218,-0.016255900000000004,0.02919006,5.078,0,0
-0.0018915580000000002,-0.0010286994000000002,-0.006069478000000001,-0.006549934000000003,0.024649046,5.079,0,0
-0.008361538000000002,-0.0029360574000000007,0.0025318819999999996,0.0002024739999999998,0.012668946000000002,5.08,0,0
-0.012531428,-0.0042243534,0.00482577,0.004462286000000001,-0.000794014,5.081,0,0
-0.015424200000000002,-0.007562235400000001,0.0007020940000000003,0.007614074,-0.012334494000000001,5.082,0,0
-0.015056154000000004,-0.010198938000000001,-0.004406892000000001,0.011871266000000002,-0.023692994000000002,5.083,0,0
-0.011837668000000003,-0.008757316000000001,-0.010420832000000001,0.01606352,-0.03341732,5.084,0,0
-0.009087938000000002,-0.005550266000000001,-0.01607205,0.019374192000000002,-0.03756718,5.085,0,0
-0.006991374000000001,-0.002457188,-0.014769890660000002,0.023309820000000002,-0.036197799999999995,5.086,0,0
-0.0043122460000000005,0.0015383179999999995,-0.004706530660000002,0.026481120000000004,-0.029934409999999998,5.087,0,0
-0.002980374,0.005560496,0.00876860934,0.02692624,-0.01629201,5.088,0,0
-0.00518042,0.007270354,0.01786796934,0.025898840000000003,0.002964770000000001,5.089,0,0
-0.00880295,0.00651205,0.019895161340000002,0.02404016,0.022455190000000003,5.09,0,0
-0.013261954,0.00316853,0.017908874,0.020104682,0.04004411,5.091,0,0
-0.019144682,-0.0019565960000000006,0.012479292000000001,0.014298708000000002,0.05317332,5.092,0,0
-0.024406820000000003,-0.006859334,0.004995256,0.008175476000000001,0.05732182000000001,5.093,0,0
-0.027344940000000005,-0.011521718000000002,0.001113556,0.0018641960000000003,0.053215820000000004,5.094,0,0
-0.027849960000000003,-0.015266206000000001,0.0026904620000000002,-0.005184784,0.04363814,5.095,0,0
-0.024601500000000005,-0.01583152,0.0050537,-0.013148426000000001,0.026549000000000003,5.096,0,0
-0.016068300000000004,-0.013301730000000001,0.005734690000000001,-0.020806552,0.00368486,5.097,0,0
-0.004321500000000001,-0.008943762000000001,0.004460782,-0.02714594,-0.018807320000000002,5.098,0,0
0.009514060000000001,-0.002979321999999999,0.0010675240000000003,-0.031393920000000006,-0.038880200000000004,5.099,0,0
0.026244660000000003,0.003989938,-0.003700796,-0.0322787,-0.055739040000000004,5.1,0,0
0.04205784,0.011128778,-0.009573914,-0.030066719999999998,-0.06431310000000001,5.101,0,0
0.0508054,0.017031588,-0.015601742000000002,-0.02508996,-0.06182746000000001,5.102,0,0
0.0536232,0.020399820000000003,-0.019284558,-0.018013102,-0.052399060000000004,5.103,0,0
0.052891780000000006,0.02099584,-0.019029184,-0.010815706,-0.0382769722,5.104,0,0
0.046368780000000005,0.018231074000000003,-0.015042788,-0.004697898000000001,-0.019469292200000002,5.105,0,0
0.03633466,0.0131975718,-0.008302170000000001,0.0014154820000000002,7.68678000000007e-05,5.106,0,0
0.027591080000000004,0.0097408158,-9.616599999999931e-05,0.006537782000000001,0.0149958678,5.107,0,0
0.0188553766,0.0080936558,0.009323034000000001,0.008679084,0.0254692678,5.108,0,0
0.009039596600000002,0.0069675958,0.016219738,0.009551503999999999,0.031423740000000006,5.109,0,0
0.0006236566000000004,0.0071093478000000005,0.018137402000000004,0.010388066,0.031296040000000004,5.11,0,0
-0.007653443400000001,0.008908478000000001,0.018311704,0.010206958,0.02765082,5.111,0,0
-0.016799563400000002,0.010818654,0.016580539400000004,0.009181914000000001,0.021733898,5.112,0,0
-0.023316920000000005,0.012001534000000001,0.010366941400000001,0.008823194,0.012900638,5.113,0,0
-0.026006560000000005,0.011722820000000002,0.0028981373999999996,0.008764892,0.002553738,5.114,0,0
-0.027440700000000002,0.007225274000000002,-0.0021776926000000004,0.008607064,-0.006280802,5.115,0,0
-0.026741420000000002,0.0016880260000000005,-0.0054996666000000005,0.009242812,-0.013496422000000001,5.116,0,0
-0.02262594,-0.0025917199999999996,-0.0070127720000000004,0.010252156,-0.018541179999999997,5.117,0,0
-0.01891214,-0.006684612,-0.007297200000000001,0.011045096,-0.017881860000000003,5.118,0,0
-0.017207560000000004,-0.011787938000000001,-0.00576585,0.011525402,-0.011841558,5.119,0,0
-0.015045140000000002,-0.019552358000000002,-0.0006392999999999998,0.011439414,-0.003763978,5.12,0,0
-0.012758158,-0.026001018,0.004704974000000001,0.010625464,0.0070009619999999995,5.121,0,0
-0.012021738,-0.027877252,0.006427936,0.009358479999999999,0.021052002000000004,5.122,0,0
-0.010808650000000001,-0.027873416000000005,0.0058674320000000005,0.008331358,0.032940882000000005,5.123,0,0
-0.008300972,-0.024503134154,0.002823206000000001,0.0073117580000000015,0.040595620000000006,5.124,0,0
-0.007036654,-0.013381494154000001,-0.004812114000000001,0.005026756,0.04535322000000001,5.125,0,0
-0.006323586,-0.002921735154,-0.012079054,0.0017160040000000008,0.043340000000000004,5.126,0,0
-0.0036420059999999997,0.00013413284599999998,-0.012509324600000002,-0.0018127920000000001,0.0329304344,5.127,0,0
-0.0011278719999999996,0.00025675464599999995,-0.0082548346,-0.0059076300000000005,0.0182643344,5.128,0,0
0.0004931980000000005,-1.1777200000000047e-05,-0.003008994599999999,-0.00960963,0.0024367143999999997,5.129,0,0
0.004663540000000001,0.0006012788000000001,0.0039054454,-0.011953601999999999,-0.013780145600000002,5.13,0,0
0.00946957,0.0020281218,0.0103974454,-0.0134454,-0.0280377256,5.131,0,0
0.01101231,0.0036959238000000005,0.011218008000000002,-0.013813599999999999,-0.037422000000000004,5.132,0,0
0.012111368,0.006246238000000001,0.008663964000000001,-0.012703006,-0.04214008,5.133,0,0
0.01393192,0.009263748,0.007282410000000001,-0.011002734,-0.04296548,5.134,0,0
0.0128202,0.011581892000000002,0.004998618,-0.008841648,-0.0402161,5.135,0,0
0.010330308,0.01261391,0.0023341835800000004,-0.005947178,-0.0345268,5.136,0,0
0.009613478000000002,0.012494582,0.0020462495800000003,-0.003626575,-0.02752312,5.137,0,0
0.008816924,0.011062536,0.00285594158,-0.0022120876,-0.018351232000000002,5.138,0,0
0.006511964,0.0081676354,0.0025527395800000003,-0.0005733116000000001,-0.0061209920000000004,5.139,0,0
0.004604908800000001,0.0043178634,0.0016668015800000002,0.0015316944,0.006383888000000002,5.14,0,0
0.0025696408,0.0005128773999999998,-0.000631164,0.0030459724000000002,0.018767428000000003,5.141,0,0
-0.0022217692000000002,-0.0028600406000000005,-0.0039627180000000005,0.004504567399999999,0.030258228000000005,5.142,0,0
-0.0079232752,-0.0056192166,-0.007672226000000001,0.006695266,0.03676908,5.143,0,0
-0.012781615199999999,-0.007441976,-0.01583879,0.007885759999999999,0.03615912,5.144,0,0
-0.018165600000000004,-0.009217204,-0.025268480000000003,0.00745561,0.03017496,5.145,0,0
-0.022153280000000004,-0.010769918,-0.02924352,0.006525988,0.01877296,5.146,0,0
-0.022055159999999997,-0.010597736,-0.0302276,0.005374820200000001,0.0026342399999999995,5.147,0,0
-0.019475612,-0.00876372424,-0.029350122000000003,0.0029598062,-0.011953479999999999,5.148,0,0
-0.015042817600000001,-0.005329320239999999,-0.02055752,0.0007767142,-0.022281380000000003,5.149,0,0
-0.006451797600000001,0.00034919976000000056,-0.007393639999999998,0.00040569620000000005,-0.029518220000000005,5.15,0,0
0.0038575424000000004,0.006379219760000001,0.005562600000000001,0.0003060182,-0.03045408,5.151,0,0
0.012377342400000001,0.01072851376,0.01946132,0.00021058199999999996,-0.024288140000000003,5.152,0,0
0.0203754144,0.014219224,0.028054622,0.001307254,-0.01589872,5.153,0,0
0.026208580000000002,0.01672132,0.028840940000000006,0.002051528,-0.005731859999999999,5.154,0,0
0.026096140000000004,0.016059740000000003,0.025626630000000004,0.001036568,0.007896280000000002,5.155,0,0
0.022072784,0.012294934,0.01890553,0.0003581640000000002,0.021147400000000004,5.156,0,0
0.018574062000000002,0.007958154,0.01094719,-0.000677116,0.031106460000000002,5.157,0,0
0.013839118000000001,0.0027202000000000003,0.00811025,-0.0032139880000000005,0.03923178,5.158,0,0
0.007770404400000001,-0.0039424,0.009416850000000001,-0.005667304000000001,0.04143386,5.159,0,0
0.0047503638,-0.0089735,0.010388404000000002,-0.008027448000000001,0.032319822,5.16,0,0
0.0033933738000000006,-0.011002554000000001,0.010104524000000002,-0.011024492,0.017096181999999998,5.161,0,0
0.0002560797999999998,-0.011797934000000001,0.007100606000000001,-0.013298966000000002,0.0016241020000000005,5.162,0,0
-0.0034575162,-0.011974448000000002,0.0013797080000000012,-0.013608412000000002,-0.015672198000000002,5.163,0,0
-0.0059641026,-0.010936102000000001,-0.003205894,-0.012220922000000002,-0.030603398000000004,5.164,0,0
-0.010078061999999999,-0.010047502,-0.002970148,-0.009112266,-0.034668580000000004,5.165,0,0
-0.015359755999999999,-0.008984922,0.001561912,-0.0043200040000000006,-0.031720120000000004,5.166,0,0
-0.01815224,-0.005943178,0.00799875,0.0011146959999999999,-0.027033068,5.167,0,0
-0.019413359999999998,-0.0026809400000000006,0.013207668,0.004880692000000001,-0.018243130000000003,5.168,0,0
-0.019298120000000002,-0.0002802140000000002,0.014463337,0.006800764,-0.0073859699999999995,5.169,0,0
-0.014792594,0.002745302,0.009843147,0.008179078000000001,0.000720150000000001,5.17,0,0
-0.007321434000000001,0.00501131,4.460699999999946e-05,0.007911678,0.00586779,5.171,0,0
-0.0012783299999999996,0.0039376638,-0.010649793000000001,0.0055349618,0.008851892,5.172,0,0
0.00446355,0.0016854278000000005,-0.018434693000000002,0.0030099918000000003,0.007531894000000002,5.173,0,0
0.01054325,-0.00043450019999999995,-0.02246534,0.0009685938000000005,0.003952397999999999,5.174,0,0
0.013495804000000002,-0.0024503142000000004,-0.021573580000000002,-0.0003176702000000001,0.002688316,5.175,0,0
0.013942784000000001,-0.0009040622000000002,-0.016952554,0.0004131438,0.003078036,5.176,0,0
0.014764460000000002,0.003992239999999999,-0.014402214000000002,0.0027309200000000004,0.004139622,5.177,0,0
0.014096140000000002,0.008632606,-0.014516914000000002,0.004909244,0.006089372,5.178,0,0
0.009020684000000001,0.011867164,-0.017367234000000002,0.00678991,0.006642582000000001,5.179,0,0
0.0016832440000000004,0.013820222,-0.024504654,0.008205854,0.0030397839999999994,5.18,0,0
-0.005939956,0.013008554,-0.03280298,0.0076463880000000005,-0.002412276,5.181,0,0
-0.014396616000000001,0.009885712000000001,-0.03705576,0.006026158000000001,-0.006238002,5.182,0,0
-0.020368876,0.007165632,-0.0328242554,0.005893102000000001,-0.00755967592,5.183,0,0
-0.02107488,-0.00023923000000000087,-0.0172323354,0.00653947,-0.00534199392,5.184,0,0
-0.01812015,-0.011984350000000001,0.009854624599999999,0.00603863,0.0002615260799999999,5.185,0,0
-0.012909486000000001,-0.017895642,0.0370622446,0.005507348,0.006282326080000001,5.186,0,0
-0.006124818,-0.018507628,0.055911644600000004,0.0053692919999999995,0.01036669208,5.187,0,0
0.00021468000000000008,-0.017364128000000003,0.06634732,0.004491916,0.013798616,5.188,0,0
0.00515414,-0.009278248,0.061959940000000005,0.0020609099999999996,0.014980140000000001,5.189,0,0
0.01014657,0.003781992000000001,0.04246934,-0.000950378,0.0117992702,5.19,0,0
0.014787846,0.010208552000000001,0.020936060000000006,-0.0027534480000000004,0.0084394222,5.191,0,0
0.017365238,0.008826558000000002,0.00512168,-0.004148696,0.0060354522,5.192,0,0
0.01815,0.004449598000000001,-0.008005520000000002,-0.006336530000000001,0.0017175122,5.193,0,0
0.016955488,-0.0009563619999999997,-0.014377428000000003,-0.00830873,-0.0026645978,5.194,0,0
0.011311208,-0.006330762,-0.013747674000000001,-0.010159872,-0.003278018,5.195,0,0
0.0026766479999999985,-0.010805602000000001,-0.012000788000000002,-0.01306285,-0.00362261,5.196,0,0
-0.004289092000000001,-0.011456634,-0.009503016000000001,-0.015026716,-0.005374268,5.197,0,0
-0.011008992,-0.0092128522,-0.007035606000000001,-0.014970794000000003,-0.0049504300000000005,5.198,0,0
-0.01730936,-0.006059046200000001,-0.003394748000000001,-0.012867676000000002,-0.004537376,5.199,0,0
-0.0197861,-0.0016883882000000004,0.0015539379999999995,-0.008340508000000002,-0.0063952060000000005,5.2,0,0
-0.02005742,0.0029825518000000002,0.0050946179999999995,-0.0011558479999999997,-0.008945906,5.201,0,0
-0.020868499999999998,0.0060491858,0.004694189999999999,0.008850512000000001,-0.008742018,5.202,0,0
-0.019886,0.007785832000000001,0.0018353999999999992,0.019592006000000002,-0.011163196,5.203,0,0
-0.013796024,0.009440480000000001,-0.0035701300000000017,0.027993368000000005,-0.01375208,5.204,0,0
-0.008372918,0.008907020000000002,-0.01011153,0.032441300000000006,-0.007140280000000001,5.205,0,0
-0.0021447379999999998,0.007294838,-0.016306236,0.03129388,0.0001358400000000008,5.206,0,0
0.003951302,0.005771338,-0.022916560000000002,0.02168648,0.0036752400000000006,5.207,0,0
0.003966242,0.002374508,-0.025216200000000005,0.005597340000000001,0.00834403,5.208,0,0
0.005766146000000001,-0.0008660440000000003,-0.02430854,-0.01209296,0.009148270000000002,5.209,0,0
0.01364172,-0.0018803894,-0.021533062000000002,-0.029050680000000002,-0.000585790000000001,5.21,0,0
0.0238643,-0.0016641434000000004,-0.012350442,-0.041953840000000006,-0.01294091,5.211,0,0
0.03911626,0.0010506765999999997,0.002274957999999999,-0.046301480000000006,-0.02510075,5.212,0,0
0.061350020000000005,0.0075275786,0.015291318,-0.0420847,-0.0349342,5.213,0,0
0.07442312,0.013162896600000001,0.025429818,-0.03222219020000001,-0.034533459999999995,5.214,0,0
0.07255120000000001,0.015324384000000003,0.031208260000000005,-0.018539090200000004,-0.027039422,5.215,0,0
0.059053327999999995,0.015026932000000002,0.029641940000000002,-0.004898090200000001,-0.014636601999999999,5.216,0,0
0.031499508,0.011423919999999999,0.024536470000000005,0.0042286298,0.0019139379999999987,5.217,0,0
-0.004735231999999999,0.004255900000000002,0.017909762000000006,0.0081544918,0.017923618000000002,5.218,0,0
-0.038994712,-0.0031102000000000005,0.011422974,0.008682812,0.028547458,5.219,0,0
-0.062255991999999996,-0.008398300000000001,0.0035240339999999997,0.008063584,0.03505728,5.22,0,0
-0.0734003,-0.012852872000000001,-0.009154946000000002,0.007891784,0.03942148,5.221,0,0
-0.07098012000000001,-0.01649838,-0.023553096000000003,0.009582264,0.038839979999999996,5.222,0,0
-0.05795598,-0.01731166,-0.034049788000000004,0.013940222,0.0347369,5.223,0,0
-0.040591476,-0.015189580000000001,-0.03861352,0.019257372000000002,0.03042956,5.224,0,0
-0.021514756,-0.012535976,-0.036643806,0.02381246,0.024099178000000002,5.225,0,0
-0.0037362560000000003,-0.010329824000000001,-0.02597947,0.026807140000000004,0.014801718,5.226,0,0
0.010032624,-0.008910564,-0.01185496,0.027571740000000004,0.007583266,5.227,0,0
0.018518724,-0.007796244000000001,-0.0018817699999999992,0.025546980000000004,0.003226902000000001,5.228,0,0
0.020585680000000002,-0.0066716300000000004,0.004426810000000001,0.020182008000000005,-0.0030921980000000004,5.229,0,0
0.013615499999999999,-0.0045095640000000015,0.007396216000000001,0.011430648000000002,-0.010829736000000001,5.23,0,0
-0.00041981999999999783,-5.243599999999989e-05,0.00798517,0.000427808,-0.017200036000000002,5.231,0,0
-0.01375802,0.005388764,0.00972752,-0.011388892000000001,-0.023490464000000003,5.232,0,0
-0.02081972,0.011800144,0.010422882000000001,-0.022763552,-0.02912228,5.233,0,0
-0.0200218,0.021770190000000002,0.007647355400000002,-0.031576860000000005,-0.029797120000000003,5.234,0,0
-0.010714379999999999,0.032640260000000004,0.003936227400000001,-0.03652262,-0.025358882000000003,5.235,0,0
0.0035302600000000003,0.03741158,0.0017670414000000001,-0.03693812,-0.018898824,5.236,0,0
0.01515984,0.036517282,0.0032487414000000004,-0.032405260000000005,-0.010864820000000002,5.237,0,0
0.020052920000000002,0.028950682000000005,0.006117209400000001,-0.023861148000000002,-0.0028684820000000003,5.238,0,0
0.018995198,0.012459342000000002,0.006381446400000001,-0.012280148000000001,0.00028497600000000015,5.239,0,0
0.014923546,-0.008800558,0.0081694164,0.0005298119999999984,-0.0007041419999999998,5.24,0,0
0.011566086,-0.030842918000000004,0.008765778200000001,0.012383792000000001,-0.0009232719999999997,5.241,0,0
0.011805725999999999,-0.04516992,0.0009467582000000003,0.026339932000000003,-0.0016429207999999998,5.242,0,0
0.016802566,-0.047369220000000004,-0.007594081800000001,0.043617619999999996,-0.0027433587999999994,5.243,0,0
0.023983808,-0.04423966000000001,-0.0073351962000000005,0.0593752,0.0015998632000000005,5.244,0,0
0.02904124,-0.03751092,-0.0045156582,0.07159976000000001,0.011377303200000001,5.245,0,0
0.029908999999999998,-0.024183508000000003,-0.006080054,0.07774324000000002,0.021648015200000002,5.246,0,0
0.02270502,-0.011418482,-0.0036381280000000005,0.07156768000000002,0.03354696,5.247,0,0
0.004412979999999999,-0.0020181820000000003,0.005223592000000001,0.05242937600000001,0.04638794,5.248,0,0
-0.019361140000000002,0.009394238,0.012749316,0.023792556000000006,0.051313340000000006,5.249,0,0
-0.041981920000000006,0.018279818,0.023557776000000002,-0.011768184000000004,0.04503148600000001,5.25,0,0
-0.05851138,0.023175966,0.039339426000000004,-0.047231504,0.028323086000000004,5.251,0,0
-0.06163602000000001,0.025181540000000002,0.042285764,-0.075911264,0.0031607059999999975,5.252,0,0
-0.049673478,0.022081692000000003,0.03371592400000001,-0.09449790000000001,-0.022239794000000004,5.253,0,0
-0.028027617999999997,0.01512188,0.022884384000000004,-0.09931512,-0.040982694,5.254,0,0
-0.0035970179999999987,0.010201256,-0.0035320160000000007,-0.0887402,-0.05125788,5.255,0,0
0.017917962000000003,0.011652896000000001,-0.036574056,-0.0660913,-0.0503575,5.256,0,0
0.031707122000000004,0.016850076,-0.054212540000000004,-0.038535940000000005,-0.0398661,5.257,0,0
0.036491560000000006,0.021200044,-0.0610776,-0.012620820000000003,-0.028939314,5.258,0,0
0.03660444000000001,0.017767876,-0.0634379,0.007647340000000001,-0.020620302000000004,5.259,0,0
0.03231332,0.008749340000000001,-0.047235620000000006,0.0202433,-0.013884762000000002,5.26,0,0
0.022214412,-0.0015477399999999997,-0.011350040000000002,0.026173520000000002,-0.009361732000000001,5.261,0,0
0.011547632000000002,-0.013370439999999999,0.026247379999999997,0.028502120000000002,-0.0068263939999999995,5.262,0,0
0.00438651,-0.019967646,0.05581822,0.02874376,-0.004362858000000001,5.263,0,0
-0.0021068840000000003,-0.016811194,0.07201526,0.027343480000000003,0.0020986700000000004,5.264,0,0
-0.005821156000000001,-0.010810258,0.07252958,0.0248116,0.01115609,5.265,0,0
-0.0026328320000000003,-0.008165018,0.058813080000000004,0.020327168,0.01799672,5.266,0,0
0.0013412520000000002,-0.007310598000000001,0.03955388000000001,0.013614366,0.022526282,5.267,0,0
0.0010093060000000002,-0.011107652,0.022838935999999997,0.006864388,0.02365888,5.268,0,0
-0.00384792,-0.017114184,0.009957058000000001,0.0016965460000000002,0.017890204,5.269,0,0
-0.012953608000000002,-0.02005282,-0.0036094419999999983,-0.002831014,0.009247432,5.27,0,0
-0.024983004000000003,-0.022061500000000005,-0.022949962000000004,-0.006347142,0.001966251999999999,5.271,0,0
-0.034618348,-0.02305646,-0.042340962,-0.0064390820000000005,-0.005863228000000001,5.272,0,0
-0.03845648,-0.0177665076,-0.055390398,-0.0027232440000000005,-0.012269548000000002,5.273,0,0
-0.03868824,-0.0050568476,-0.05884496,0.006845198000000001,-0.013386372,5.274,0,0
-0.03347676000000001,0.005630572400000001,-0.051519062000000004,0.022085578,-0.011176916,5.275,0,0
-0.022036568000000003,0.0130560124,-0.035414842,0.035399418,-0.00824712,5.276,0,0
-0.009398168000000002,0.0217339924,-0.01901682,0.03975010000000001,-0.003511532,5.277,0,0
0.003041452,0.028216200000000004,-0.00913423,0.03236696000000001,0.0013186460000000001,5.278,0,0
0.020231912,0.03129644,-0.0027608719999999997,0.01278918,0.0023845399999999997,5.279,0,0
0.041213532,0.03693894,0.00025969200000000017,-0.013533260000000002,0.0011421220000000004,5.28,0,0
0.05814702,0.04362534,0.0002570180000000001,-0.03567854,0.00256729,5.281,0,0
0.06701382,0.04412428,0.004506976,-0.046275760000000006,0.006445102000000001,5.282,0,0
0.0667444,0.039032688,0.011643926,-0.04286381200000001,0.012301924,5.283,0,0
0.054334668,0.022768328,0.012640338000000001,-0.028174432000000006,0.022401490000000003,5.284,0,0
0.029713988000000004,-0.005875092000000002,0.0113707594,-0.008807952000000003,0.03261378400000001,5.285,0,0
0.000959548000000001,-0.030892452,0.0145688134,0.008291548,0.03733186,5.286,0,0
-0.024537192,-0.043812032,0.0168902334,0.018198128,0.036076880000000006,5.287,0,0
-0.042557952,-0.048724100000000006,0.0179678934,0.019458184,0.028232394,5.288,0,0
-0.04854278,-0.042501604,0.0158754934,0.013351564000000002,0.012664134,5.289,0,0
-0.043006,-0.023184964000000002,-0.0013342299999999988,0.003779764000000001,-0.005447906000000002,5.29,0,0
-0.030728845999999997,-0.004991524000000002,-0.029112849999999996,-0.005046756000000001,-0.019529706,5.291,0,0
-0.014113526000000001,0.007000576,-0.05451811,-0.010812876,-0.029944626000000002,5.292,0,0
0.003606034000000001,0.016126796000000002,-0.07516347,-0.01305441,-0.03672696,5.293,0,0
0.017541734,0.020773520000000004,-0.0810949,-0.012221578,-0.03726112,5.294,0,0
0.027290894000000003,0.02084574,-0.05758716000000001,-0.009464012,-0.03495066,5.295,0,0
0.03309944,0.017399014,-0.01304636,-0.0060728456000000005,-0.03448428,5.296,0,0
0.03266108,0.013004088000000002,0.0348361,-0.0026457676,-0.0328089,5.297,0,0
0.0241103,0.002663107999999999,0.07501204,0.0012893224,-0.026910924000000006,5.298,0,0
0.008486119999999998,-0.013656992000000001,0.09590598,0.0061574504,-0.019077452,5.299,0,0
-0.010764820000000001,-0.023309772000000003,0.0967518,0.0111367644,-0.008222312,5.3,0,0
-0.03063546,-0.02327794,0.08519270000000001,0.015085438,0.006223768000000001,5.301,0,0
-0.04731068000000001,-0.021417836,0.06397964,0.01772752,0.018708148,5.302,0,0
-0.05737798000000001,-0.016571058,0.04003764,0.017166240000000003,0.026592872000000004,5.303,0,0
-0.061544760000000004,-0.007293072,0.023592296000000002,0.012580154000000003,0.03099342,5.304,0,0
-0.060643020000000006,-0.003168812,0.012671636,0.006956954000000001,0.0312046,5.305,0,0
-0.05092212000000001,-0.0050539980000000005,-0.0011881439999999995,0.0015462000000000006,0.02672252,5.306,0,0
-0.033230100000000005,-0.010185396000000001,-0.016929904000000003,-0.003964118000000001,0.020645758,5.307,0,0
-0.012270620000000003,-0.015449454000000003,-0.028957763999999997,-0.007941118,0.0143359734,5.308,0,0
0.012948599999999998,-0.013983519800000002,-0.035510719999999996,-0.009814412000000002,0.006284993399999999,5.309,0,0
0.03928316,-0.006687619800000002,-0.03868618,-0.011745172,-0.0017098666000000002,5.31,0,0
0.0567828,0.0016024201999999994,-0.04156286000000001,-0.013591378000000001,-0.007009826600000001,5.311,0,0
0.06315846,0.010640300200000001,-0.043281120000000006,-0.01407334,-0.009848990600000001,5.312,0,0
0.06351128,0.020352780200000004,-0.042198040000000006,-0.013595286000000002,-0.011032866000000002,5.313,0,0
0.056352360000000004,0.02395622,-0.03776680000000001,-0.012638208000000001,-0.008571919800000001,5.314,0,0
0.041423082,0.020879464000000004,-0.033159,-0.009548124400000002,-0.002356699800000001,5.315,0,0
0.026767855400000002,0.017042594,-0.025766796,-0.0033621444000000006,0.0038494402,5.316,0,0
0.013603115400000003,0.013032980000000001,-0.011185296,0.0048757156,0.0090576462,5.317,0,0
-0.0017303046000000004,0.007490682000000001,0.006415844000000001,0.0164837616,0.012299728199999999,5.318,0,0
-0.0160225646,0.0021336159999999996,0.023018484000000002,0.030550723600000003,0.010726834,5.319,0,0
-0.026019006600000005,-0.00138513,0.035890044,0.041597720000000005,0.004507314,5.32,0,0
-0.03427386,-0.0060027200000000005,0.04229894,0.04686524,-0.0020485060000000003,5.321,0,0
-0.03972716,-0.010419866,0.03816598040000001,0.046764280000000005,-0.006359114,5.322,0,0
-0.03865076,-0.010903006,0.023102720400000006,0.038417480000000004,-0.007184688,5.323,0,0
-0.033108040000000005,-0.00857063,0.0036436804,0.021098360000000004,-0.0013006199999999989,5.324,0,0
-0.026245467999999997,-0.005596478000000001,-0.009690439600000001,-0.00010895999999999996,0.00886526,5.325,0,0
-0.017779367600000002,-0.001831180000000001,-0.015309529,-0.02129914,0.01672606,5.326,0,0
-0.007818467600000002,0.001881688,-0.0173285354,-0.04075278,0.019321968000000002,5.327,0,0
0.0009473724000000007,0.0024486160000000002,-0.010799731400000002,-0.054838780000000004,0.015388380000000002,5.328,0,0
0.0100389124,0.0022118541999999997,0.0041023086,-0.05950122000000001,0.00247294,5.329,0,0
0.0214997804,0.0032227642,0.014702708600000003,-0.054958860000000005,-0.01543452,5.33,0,0
0.0317006,0.0032390562000000006,0.016751818,-0.043917990000000004,-0.029919599999999998,5.331,0,0
0.04038338,0.0022927202,0.020559144000000005,-0.028933368000000004,-0.038892920000000004,5.332,0,0
0.04842482,0.0025757922000000004,0.025011680000000005,-0.012294868000000004,-0.03901902000000001,5.333,0,0
0.050270720000000005,0.0019206780000000003,0.015895052,0.0028810319999999995,-0.027363519999999995,5.334,0,0
0.039398738,-0.0018373419999999998,-0.007710467999999998,0.013978712,-0.010758159999999998,5.335,0,0
0.018247258,-0.00415966,-0.033940228,0.020545902000000005,0.0038834199999999994,5.336,0,0
-0.006065202000000002,-0.00320772,-0.05646920800000001,0.022281940000000004,0.015623280000000003,5.337,0,0
-0.029330302000000003,-0.0027091246,-0.082416848,0.019176752000000002,0.021841040000000003,5.338,0,0
-0.046022222,-0.0031492666,-0.10609156,0.013372176,0.018652770000000003,5.339,0,0
-0.04798012000000001,-3.9528600000000034e-05,-0.10426108,0.006804518000000001,0.009888110000000002,5.34,0,0
-0.035302178000000003,0.0041634394,-0.081953728,0.0007298319999999999,0.0016570499999999998,5.341,0,0
-0.016928878,0.0057316474,-0.053187588,-0.0023281166,-0.004310048,5.342,0,0
0.0013680620000000006,0.007269518,-0.002669587999999997,-0.0010693686,-0.007283872,5.343,0,0
0.013554142000000002,0.009466258000000002,0.058840412,0.0026702874,-0.005122302,5.344,0,0
0.0167804248,0.01165468,0.09787929199999999,0.0069680054,0.0004021179999999999,5.345,0,0
0.014665018799999999,0.01384258,0.12561993999999999,0.010335261400000002,0.0029546760000000003,5.346,0,0
0.0083712708,0.01573584,0.143644,0.01105572,0.0030691480000000007,5.347,0,0
-0.0001628551999999998,0.012142951999999999,0.12349834,0.009357508,0.0025628020000000003,5.348,0,0
-0.0046162032,6.271999999999875e-05,0.08030905999999999,0.0065849279999999994,0.00023268599999999996,5.349,0,0
-0.004081174,-0.014250740000000001,0.04163097999999999,0.003992038,-0.00018644000000000017,5.35,0,0
-0.00239286,-0.0253864,-0.002057360000000001,0.0023324240000000005,0.003412742,5.351,0,0
0.0007866079999999998,-0.03244846,-0.04665172,0.0014503,0.005214155999999999,5.352,0,0
0.005071134,-0.031653166,-0.06972688,-0.00012801799999999993,0.0037718879999999993,5.353,0,0
0.008457762,-0.019798577999999997,-0.06850178,-0.003150598,0.00325092,5.354,0,0
0.01034351,-0.004600498,-0.04712265999999999,-0.0063801280000000005,0.0007374479999999995,5.355,0,0
0.01182756,0.005867102,-0.015507839999999998,-0.008958604,-0.004324484,5.356,0,0
