bandpass 1,bandpass 2,bandpass 3,bandpass 4,bandpass 5,time,onset,mark
0.00018155500000000002,0.001117614,0.0004788084000000001,-0.0010662260000000002,0.00031906480000000004,5.925,0,0
0.00035926580000000005,0.0016515140000000002,0.0006095568000000001,-0.0009671536000000002,-2.9792000000000273e-06,5.926,0,0
-0.0002596101999999999,0.0021499860000000004,0.0011845508000000002,-0.0008219340000000002,-0.0005448272000000001,5.927,0,0
-0.0010348802,0.0019831470600000004,0.0016406728,-8.0572e-05,-0.0012027312000000001,5.928,0,0
-0.0005354691999999999,0.00141146386,0.0013576814,0.0005016765999999999,-0.0011653958000000001,5.929,0,0
-0.00014251919999999982,0.0008696238600000001,0.0008495789999999998,0.0007158760000000001,-0.0010478448,5.93,0,0
-0.00035058499999999983,0.0003285238599999999,0.0002980265999999997,0.0009587676000000001,-0.0009017708,5.931,0,0
0.00021722780000000004,-0.00046969214000000005,-0.0009815954000000002,0.001305012,-0.0004920704,5.932,0,0
0.0008042816,-0.0008897232000000001,-0.0024356854,0.001327346,-0.0004691424,5.933,0,0
0.0002725326,-0.001051236,-0.0027686620000000003,0.0018296413999999998,-0.0009857288,5.934,0,0
-8.60858e-05,-0.0013211420000000002,-0.002586598,0.00250099,-0.0014617076,5.935,0,0
0.00034129920000000005,-0.0016026220000000002,-0.002598162,0.0023006358,-0.0012627192,5.936,0,0
0.0003163558,-0.0012970432,-0.0018050892,0.0018277716000000002,-0.0006900235999999999,5.937,0,0
-2.062719999999999e-05,-0.0007877724000000001,-0.0007254771999999998,0.0017755030000000003,-0.0006640055999999999,5.938,0,0
6.108380000000007e-05,-0.0005418686200000002,-0.0002242332000000001,0.0012968417999999998,-0.0005705596,5.939,0,0
-6.929879999999995e-05,-6.279020000000041e-06,0.0005304068,0.0003386516,9.246040000000002e-05,5.94,0,0
-0.0007135207999999999,0.00033651038000000004,0.0018133388000000001,0.00010339380000000002,0.00037669200000000003,5.941,0,0
-0.0007205953999999999,0.00033014758,0.00235283,3.8675800000000013e-05,0.00034990000000000005,5.942,0,0
-0.0003756978,0.00068427878,0.0023309900000000002,-0.0003951796,0.0011313780000000002,5.943,0,0
-0.00040774539999999997,0.001275833,0.00295378,-0.00019853639999999994,0.001867058,5.944,0,0
-0.00022532299999999993,0.0013594794000000002,0.0025750528000000003,0.0002519758,0.0017969346000000002,5.945,0,0
0.00019554820000000002,0.0015134400000000002,0.0010855268,-6.384020000000003e-05,0.0017043266000000001,5.946,0,0
0.0002269446,0.0015991284000000001,0.00018908679999999993,-0.00029431600000000003,0.0015098946000000001,5.947,0,0
-1.868100000000002e-05,0.0011580963200000002,-0.0007530952000000001,-0.00013013160000000006,0.001109385,5.948,0,0
0.0005962566000000001,0.00038236352,-0.0023909932,-0.0005596092,0.0008482928,5.949,0,0
0.0006499928,-0.00046349248000000006,-0.00331643,-0.0010768892,0.0006383794,5.95,0,0
-3.791440000000003e-05,-0.00128346848,-0.003291514,-0.0005686732,0.0003098634,5.951,0,0
0.0004178364,-0.00197034088,-0.003497884,-0.0001652252,0.00010558401999999999,5.952,0,0
0.0010904876,-0.0022135668000000004,-0.00311282,-0.00035843159999999997,-0.00019604838000000002,5.953,0,0
0.0006179592600000001,-0.0021212688,-0.00183561,-4.4728000000000037e-05,-0.00040949138,5.954,0,0
0.00022270766,-0.0019496548000000002,-0.0006042020000000002,0.00019847179999999998,-0.00020399757999999996,5.955,0,0
0.0008059424600000001,-0.0017213488,0.00039320399999999997,-0.00022299820000000006,-0.00025258058000000004,5.956,0,0
0.00083403046,-0.0008005128,0.0018258740000000001,-0.0006447582000000001,-0.0006746052000000001,5.957,0,0
0.00032254885999999995,-0.0002935407999999999,0.002865264,-0.0006370402,-0.0009045252000000001,5.958,0,0
0.00046637519999999995,-0.0003228675999999999,0.00273049,-0.0009575606,-0.0010143690000000002,5.959,0,0
0.0012305632000000001,0.0003329564000000001,0.0029806240000000003,-0.0010496070000000001,-0.0013796452000000002,5.96,0,0
0.0014027744,0.0010144704,0.00311682,-0.0004326050000000001,-0.0015507102000000001,5.961,0,0
0.001118453,0.0010292484,0.0018837460000000004,-6.538600000000012e-06,-0.0010504024,5.962,0,0
0.0010091485999999998,0.0012128004000000001,0.0008900940000000001,-7.344460000000003e-05,-0.0004533992,5.963,0,0
0.00045791060000000005,0.001675458,0.0007760629999999998,-0.0003532282,-0.0003766268,5.964,0,0
-6.21312e-05,0.001579344,-0.00018151700000000004,-0.0002458188,-9.3205e-05,5.965,0,0
-2.8121199999999998e-05,0.001550812,-0.0013174130000000004,-0.0006898688,0.000620647,5.966,0,0
-0.00035261860000000006,0.001644924,-0.001380653,-0.0009394809999999999,0.0008174752000000001,5.967,0,0
-0.0008290226,0.001408066,-0.001376463,-2.3534999999999875e-05,0.0007568252000000001,5.968,0,0
-0.0006371266,0.001152612,-0.0016213958000000001,0.0007942410000000001,0.0009332582,5.969,0,0
-0.0008250388,0.0010437532,-0.0012135608,0.0010715922000000002,0.0007694602000000001,5.97,0,0
-0.0016352148000000001,0.0006808854,-0.00047769739999999994,0.0014834402000000002,0.00019510760000000002,5.971,0,0
-0.001921664,4.294540000000002e-05,-0.00017337939999999995,0.0017693768000000003,-1.7813600000000002e-05,5.972,0,0
-0.001756926,-0.0007136566,0.00011747540000000002,0.0009522028000000001,0.00012681120000000004,5.973,0,0
-0.002143288,-0.0015170646,0.0005734572,0.0002605568,-7.426619999999998e-05,5.974,0,0
-0.0028097620000000004,-0.0023823638,0.0007476962,0.00015063880000000003,-0.00041002279999999996,5.975,0,0
-0.003099148,-0.003449418,0.0007809486,-0.0003980532,-0.0005227881999999999,5.976,0,0
-0.0036763580000000002,-0.003939074,0.0013646006,-0.000997886,-0.0008628609999999999,5.977,0,0
-0.0035728680000000003,-0.0032772234,0.0015580418,-0.000607034,-0.0012130712,5.978,0,0
-0.000665704,-0.0020124413999999995,0.0007281798,-0.00025890920000000005,-0.0008072762000000001,5.979,0,0
0.0030085000000000003,-0.0004572713999999999,-6.393619999999997e-05,-0.0005855774,-6.749219999999996e-05,5.98,0,0
0.0049865000000000005,0.0012208866,-0.000485298,-0.0003053274,0.0004527158000000001,5.981,0,0
0.006378878000000001,0.00209743,-0.0013298820000000001,0.00019473660000000003,0.0010172598000000002,5.982,0,0
0.006849038,0.0023249734,-0.001841472,0.0001856464,0.0013665659999999998,5.983,0,0
0.0044127914,0.0023565274,-0.0010479340000000004,7.991359999999998e-05,0.0012273466000000002,5.984,0,0
0.0013660574,0.0017291088,-0.000446883,0.0002635068,0.001010899,5.985,0,0
0.0001809592,0.0012868878,-0.00042498700000000015,0.0002643668,0.0007804790000000002,5.986,0,0
-0.0006256808,0.0016031684,-7.311180000000005e-05,1.7699999999999997e-05,0.00024407100000000003,5.987,0,0
-0.0010639488000000002,0.0017136024,0.00033090560000000003,-0.0001166421,-0.00034418500000000005,5.988,0,0
-0.0006478742,0.0015421083999999999,-3.444840000000001e-05,-2.3788900000000005e-05,-0.0006819836000000001,5.989,0,0
-0.0003270587999999999,0.0015985557999999998,-0.00028655300000000005,-0.00010984790000000003,-0.001225502,5.99,0,0
-0.0007499426,0.0015447588,0.00010155880000000001,-0.0003977999000000001,-0.0018395360000000001,5.991,0,0
-0.0005987546,0.0010728106,-9.605699999999999e-05,-0.0005379171000000001,-0.0020313740000000003,5.992,0,0
-5.670599999999979e-06,0.0006479747999999999,-0.0005874904,-0.0009999488000000001,-0.002051018,5.993,0,0
-0.00048631740000000003,0.00029200280000000003,-0.000402054,-0.0013260520000000003,-0.0019760852000000003,5.994,0,0
-0.0008388828,-0.000169186,5.4795600000000076e-05,-0.0012228526,-0.0011503751999999998,5.995,0,0
-0.00020959879999999997,-0.000552862,9.591260000000004e-05,-0.0011412406,0.00012841679999999996,5.996,0,0
0.0003605632,-0.0008162538000000001,0.0005249752000000001,-0.0009899130000000003,0.0009677208,5.997,0,0
-7.091759999999997e-05,-0.0010875300000000002,0.0014374971999999999,-0.000293579,0.0018647828,5.998,0,0
9.363999999999987e-06,-0.0013115790000000002,0.0014284553999999998,-1.8149800000000007e-05,0.002544568,5.999,0,0
0.000281068,-0.0010370006000000001,0.0011840228,-0.00027349220000000003,0.002422576,6.0,0,0
-0.0002972980000000001,-0.0007130126000000002,0.001628194,0.0002226638,0.0019973120000000002,6.001,0,0
-0.0005170394000000001,-0.0008705125999999999,0.0014630226000000002,0.00036137379999999996,0.001799458,6.002,0,0
-0.0004423472,-0.0012388326,0.0008297308,-9.896420000000001e-05,0.001520632,6.003,0,0
-0.00034415000000000004,-0.0017216556,0.0009605202,6.52134e-05,0.0008844784000000001,6.004,0,0
-0.000119488,-0.002195874,0.0005838308000000001,0.0003149506,0.0003152604,6.005,0,0
0.000509398,-0.0023279520000000003,-0.0008335872000000001,0.000199393,-0.00033970759999999995,6.006,0,0
0.000652738,-0.0017838196,-0.0016079398000000003,0.0006560874,-0.0013201376,6.007,0,0
0.00029850860000000005,-0.0007888755999999999,-0.002080534,0.0013413094,-0.0020472656,6.008,0,0
0.00026230880000000005,3.497200000000003e-05,-0.002942796,0.0014547066,-0.0017254059999999999,6.009,0,0
0.0004502508000000001,0.000818268,-0.003024916,0.0014023566000000002,-0.0012525103999999998,6.01,0,0
0.0004627028,0.001363834,-0.002468418,0.0013797646,-0.0008716567999999999,6.011,0,0
0.0006175422000000001,0.0011276196000000003,-0.0023300200000000004,0.0012294906000000002,0.0001945812,6.012,0,0
0.0013853702000000002,0.0009350856,-0.0022273640000000003,0.0007756378600000001,0.0011448412,6.013,0,0
0.001394049,0.001343166,-0.0014410059999999999,0.0002513438600000001,0.0013468972,6.014,0,0
0.0009524612000000001,0.0016538760000000003,-0.00044103200000000006,0.00019435286000000007,0.0015809716,6.015,0,0
0.0005826384000000002,0.0016072820000000002,0.00025952799999999997,-0.00016295553999999996,0.001875704,6.016,0,0
-0.00043572160000000007,0.0018659478,0.001525382,-0.00076896754,0.00148755,6.017,0,0
-0.0016167756000000002,0.0019706698000000003,0.0031152999999999997,-0.0006314019999999999,0.0008931486000000002,6.018,0,0
-0.0021126886,0.0013331790000000003,0.0035832919999999996,-0.0004907781999999999,0.0002471366000000001,6.019,0,0
-0.0027102848,0.0005698066000000001,0.0035878900000000003,-0.0005786548,-0.00029720699999999996,6.02,0,0
-0.0030526560000000004,4.174899999999994e-05,0.00380295,-0.00023729239999999995,-0.000740651,6.021,0,0
-0.0022339176000000004,-0.0005440908000000001,0.0030837281999999996,0.00042268760000000003,-0.001245023,6.022,0,0
-0.0013589530000000002,-0.0013574628,0.0015124702,0.0009222968,-0.0015788616000000002,6.023,0,0
-0.0009484783999999999,-0.0016456360000000002,0.0004528561999999999,0.001523703,-0.0017888236000000001,6.024,0,0
-0.0006286124000000001,-0.0016368306000000003,-0.0006689178,0.0017437618,-0.0019299680000000002,6.025,0,0
-0.00018226460000000003,-0.001700133,-0.0022592278,0.0012987253999999998,-0.0016732096000000001,6.026,0,0
-0.0004923958000000001,-0.0015171270000000003,-0.002712186,0.0005455893999999999,-0.0009430234,6.027,0,0
-0.0008787044,-0.0011714542000000002,-0.002612396,-0.00040881660000000015,-0.0004757508,6.028,0,0
-0.0003502290000000001,-0.0009636288,-0.002980262,-0.0010308246,-1.809619999999997e-05,6.029,0,0
0.000303745,-0.0008639337999999999,-0.0023985566000000002,-0.001382578,0.0003869648,6.03,0,0
0.0005996872000000001,-0.0003327658,-0.0009163865999999999,-0.001343044,0.0006344304000000001,6.031,0,0
0.001312934,0.0003771862,-0.00026325259999999983,-0.0010905694000000001,0.0009031202000000001,6.032,0,0
0.0022336380000000005,0.0007291528,0.0003325694,-0.0009444986000000001,0.0011762596,6.033,0,0
0.0019257284000000002,0.0008632665400000001,0.0019139454,-0.0006375246,0.0012713978,6.034,0,0
0.0014183306,0.0007316425400000001,0.0026076000000000003,-6.729860000000002e-05,0.0009419475999999999,6.035,0,0
0.0014676926,6.885054000000009e-05,0.002675224,0.0002639882,0.0005928006,6.036,0,0
0.0008813252,-0.00056750866,0.003382096,0.0002904616,0.0001477478,6.037,0,0
-0.00017913680000000004,-0.00093373166,0.003391412,0.000424387,-0.0005804542000000001,6.038,0,0
-0.0005563552000000001,-0.0012696188,0.002179348,0.00044714700000000006,-0.001333323,6.039,0,0
-0.0007542274,-0.0014874688,0.0007852999999999997,0.0001470954,-0.0018552398000000001,6.04,0,0
-0.0015624774000000002,-0.0013829528,-0.0005021040000000001,0.00012471919999999998,-0.0024754388,6.041,0,0
-0.0018962100000000002,-0.0014700576,-0.002244604,0.0006709212000000001,-0.0027808400000000006,6.042,0,0
-0.0014345572000000002,-0.0016447939999999998,-0.003530262,0.0007504898,-0.002362038,6.043,0,0
-0.0009456912000000001,-0.001259645,-0.0036961760000000007,0.0003448498,-0.0013958780000000001,6.044,0,0
-0.0003162132,-0.0010280212000000001,-0.0037410400000000006,0.00031027340000000004,-0.0002950160000000001,6.045,0,0
0.0004979828,-0.0006626754000000001,-0.0037487100000000006,-8.896919999999995e-05,0.000591568,6.046,0,0
0.0012041608,0.0004996706,-0.0030066068,-0.0011492472,0.001351416,6.047,0,0
0.0015334400000000003,0.0016407626000000002,-0.0018408324,-0.001653558,0.0018612960000000001,6.048,0,0
0.001783996,0.0022520836000000004,-0.0008980844000000001,-0.0015808074,0.00223382,6.049,0,0
0.0015443986000000002,0.0033751277999999997,0.00043943959999999984,-0.0013704194,0.002364634,6.05,0,0
0.0005416926,0.004074692,0.0021660256,-0.0010542074,0.00248341,6.051,0,0
-0.0002525854000000001,0.003402932,0.0029471524000000003,-0.0004286117999999999,0.0024049820000000004,6.052,0,0
-0.0009542114000000001,0.0029682880000000003,0.003042824,0.00035483420000000007,0.0016965160000000003,6.053,1,1
-0.0018060994000000002,0.0022640312,0.0033491320000000003,0.0008386076000000001,0.00062472,6.054,0,0
-0.002130524,0.0008254432000000001,0.0031400760000000003,0.0007727532,-0.00018676799999999992,6.055,0,0
-0.0014858342,-0.0003128068000000001,0.0018714108000000003,0.0004375472,-0.000901736,6.056,0,0
-0.0009052046,-0.0008250727999999999,0.0007264188000000001,0.000495022,-0.001795682,6.057,0,0
-0.0007568014,-0.0015924148000000002,-1.4385199999999965e-05,0.000645622,-0.002080148,6.058,0,0
-0.000334786,-0.00221515,-0.0013220692,0.000441943,-0.001960634,6.059,0,0
-0.00012714180000000002,-0.0015855212,-0.0020919612000000003,1.9783399999999916e-05,-0.00165743862,6.06,0,0
-0.0003177696,-0.0008409532,-0.001598458,0.00011462339999999998,-0.0010584226200000002,6.061,0,0
-0.00025487480000000004,-0.0006444735999999999,-0.0011859000000000001,-0.00012165300000000016,-0.00025583861999999995,6.062,0,0
0.000441628,-0.00039181360000000007,-0.0010867320000000002,-0.0011485830000000001,0.0006399873800000001,6.063,0,0
0.0011562666,0.00027685540000000003,-0.0005763172000000001,-0.001677658,0.00133334138,6.064,0,0
0.0017568584000000002,0.00041092060000000004,-0.00036678440000000007,-0.0015095912,0.0017027980000000002,6.065,0,0
0.0028351284000000003,0.00033698060000000006,-0.0009861564,-0.0013805382,0.0018531080000000002,6.066,0,0
0.003392102,0.000936947,-0.0008398218000000001,-0.0012183424,0.0018711420000000001,6.067,0,0
0.0026528092000000004,0.001337325,0.00023405620000000002,-0.0003674024,0.0014579480000000001,6.068,0,0
0.0016348812,0.00133564742,0.0008640094000000001,0.00031180160000000005,0.00099692973,6.069,0,0
0.0009520100000000001,0.00112574842,0.0015889706,0.0007352948000000001,0.00051723433,6.07,0,0
-0.00013778199999999995,0.0006352596199999999,0.0026202866,0.0014145318,-0.00033366767,6.071,0,0
-0.001107832,-0.00024372238000000004,0.002792478,0.0021398140000000003,-0.0008440136699999999,6.072,0,0
-0.0010699486,-0.00104307838,0.002291844,0.0025584320000000002,-0.00094996327,6.073,0,0
-0.0010327486,-0.0012908758,0.002171568,0.0025452900000000004,-0.0011387424,6.074,0,0
-0.0010211188,-0.0015958968000000001,0.0016198329999999998,0.00250774,-0.0011899488000000002,6.075,0,0
-0.0005220608,-0.002173596,0.0002855310000000001,0.001973018,-0.0008599852,6.076,0,0
-0.00022741200000000008,-0.001945785,-0.000345463,0.0010678,-0.0006501044,6.077,0,0
-0.0001000684,-0.0012068777999999997,-0.0006211236,0.00017967300000000015,-0.0006300640000000001,6.078,0,0
0.0008011316,-0.0011120325999999998,-0.0015105576000000003,-0.0007507690000000001,-0.00021129060000000006,6.079,0,0
0.001778965,-0.0005784366000000001,-0.0020826326000000003,-0.001574101,0.0002839552000000001,6.08,0,0
0.001976209,0.00039779940000000003,-0.0018947126000000002,-0.001921225,0.000590744,6.081,0,0
0.0023079002,0.0005780383999999999,-0.0023530646000000004,-0.001824402,0.0009891892000000002,6.082,0,0
0.002652442,0.0007871712,-0.0029410680000000007,-0.0018435058000000001,0.0012297188000000001,6.083,0,0
0.0018505412000000003,0.001378164,-0.0021900600000000006,-0.0014622498000000002,0.0009016434000000001,6.084,0,0
0.0003376392000000001,0.0010391648,-0.001107004,-0.0009346787999999999,0.0005608474,6.085,0,0
-0.0007762268,0.0001606108000000001,-0.00045164999999999995,-0.0007675698,0.00014731500000000002,6.086,0,0
-0.0021019708,-0.0005059652,0.0005875559999999999,-0.0004815926000000001,-0.000740131,6.087,0,0
-0.0037864648,-0.0020082312,0.001598332,4.243220000000003e-05,-0.0012563694,6.088,0,0
-0.004529754,-0.0036566232000000004,0.0015283098,0.0004842322000000001,-0.0014520300000000002,6.089,0,0
-0.004521626,-0.00415427,0.0013412238000000002,0.0007537932000000001,-0.0014632700000000002,6.09,0,0
-0.005045910000000001,-0.0038408980000000006,0.0015181118,0.0011102306,-0.0008646579999999999,6.091,0,0
-0.00483339,-0.0032524040000000004,0.0012344826,0.0012864304,-0.00019801079999999993,6.092,0,0
-0.00316378,-0.0017579640000000003,0.0008190338000000001,0.0010311736,0.0002361126,6.093,0,0
-0.0022482720000000004,0.0002977759999999999,0.0005076648000000001,0.0006886571999999999,0.0007892526,6.094,0,0
-0.0011633100000000003,0.001673562,-0.0003408552,0.0004891578,0.0010500026,6.095,0,0
0.001678658,0.0034216900000000002,-0.0014000112000000001,0.0001401508,0.0012470346,6.096,0,0
0.004116274,0.005249486,-0.0021755340000000002,-0.00042357920000000006,0.0019211974,6.097,0,0
0.004638468,0.0057885060000000006,-0.0027274012,-0.0007306284,0.002205972,6.098,0,0
0.005188776,0.005498788,-0.0028872159999999997,-0.0007927250000000001,0.0021420384,6.099,0,0
0.005411912,0.005370788,-0.0024402806,-0.0010144012000000001,0.0020964824000000003,6.1,0,0
0.0030745000000000004,0.0043742239999999995,-0.0015859078,-0.0007440496000000001,0.0013684106,6.101,0,0
0.0004136459999999997,0.0024519268,-0.0006691463999999999,-0.0002463736,0.0002249426000000001,6.102,0,0
-0.001298206,0.0013749376000000001,0.00034315960000000004,-2.214720000000001e-05,-0.0006639594,6.103,0,0
-0.0031071200000000005,0.0006001736000000003,0.0017195016000000002,0.0006306018,-0.0016500218000000003,6.104,0,0
-0.00436659,-0.0002923484,0.0031250762,0.0013252194,-0.0027509558000000005,6.105,0,0
-0.004156436,-0.0010897104,0.0035560834,0.0011729860000000002,-0.0033791800000000007,6.106,0,0
-0.0035938119999999996,-0.0016847452000000001,0.0038247940000000003,0.0006525860000000001,-0.0037008100000000006,6.107,0,0
-0.0036547899999999998,-0.002493484,0.004065302000000001,0.0006821196000000001,-0.0034173260000000005,6.108,0,0
-0.00295783,-0.003272448,0.0024459600000000005,-0.00012696840000000006,-0.001931636,6.109,0,0
-0.0012277179999999998,-0.00341799,0.00020918800000000002,-0.0015099943999999999,-0.00011141600000000014,6.11,0,0
0.0005067300000000002,-0.0032560620000000005,-0.0008773639999999998,-0.0018157620000000003,0.001142828,6.111,0,0
0.0016856360000000003,-0.00293941,-0.002135766,-0.001919108,0.00200182,6.112,0,0
0.0031987,-0.002252344,-0.003597014,-0.0023981620000000006,0.0025291980000000003,6.113,0,0
0.004195442000000001,-0.0013916764,-0.003633314,-0.0025730920000000003,0.0019712488000000004,6.114,0,0
0.0038998800000000005,-0.0009965572,-0.0033270820000000003,-0.002098852,0.0007565568000000002,6.115,0,0
0.0045869299999999995,-9.890319999999997e-05,-0.00330895,-0.001742834,0.00013348060000000007,6.116,0,0
0.005378426,0.0013258728,-0.002009156,-0.0014531228000000003,-3.653560000000003e-05,6.117,0,0
0.0047195216,0.0023362428,-6.622400000000014e-05,-0.0008146003999999999,-0.00040053500000000004,6.118,0,0
0.0038231076000000003,0.0026225076,0.0012567460000000002,0.0001252496,-0.0006445482000000001,6.119,0,0
0.0027539896000000003,0.0024655439999999996,0.0027107840000000004,0.0007517116000000001,-0.0007095702,6.12,0,0
0.00015923960000000003,0.00200301,0.0043456480000000006,0.0012686636,-0.001080954,6.121,0,0
-0.0022108864,0.00098478362,0.004816568,0.0022976724000000003,-0.0016340998000000002,6.122,0,0
-0.0024539780000000003,3.144561999999997e-05,0.004246266,0.00301423,-0.0019949324000000006,6.123,0,0
-0.0025662880000000003,-0.00058435278,0.003897012,0.0033256220000000003,-0.00207163,6.124,0,0
-0.002552054,-0.0008657303800000001,0.0031041956,0.0033840960000000005,-0.0019024372000000004,6.125,0,0
-0.0011199140000000005,-0.00114737578,0.0012640936,0.0030463244000000006,-0.0014590480000000001,6.126,0,0
8.752200000000009e-05,-0.0015431894,-0.00038555839999999996,0.0022062388,-0.0009983204,6.127,0,0
-7.266200000000008e-05,-0.0018007394000000001,-0.0018178204,0.0013235168,-0.0002762384,6.128,0,0
0.00011768800000000002,-0.0016513394,-0.0032655324000000004,0.00034340280000000014,0.0007317556000000002,6.129,0,0
0.0005937659999999999,-0.0011945868,-0.004083342,-0.0005676632,0.0014831168000000003,6.13,0,0
-0.0003483936,-0.0006420394000000001,-0.004058804,-0.0007029550000000001,0.0018582236000000002,6.131,0,0
-0.0012522876000000001,-6.093939999999998e-05,-0.003918396,-0.0008188885000000002,0.002252258,6.132,0,0
-0.0009130784,0.0005161688000000001,-0.0034810500000000003,-0.0013794625000000003,0.0023255100000000003,6.133,0,0
-0.0008991164000000001,0.0013783528,-0.002057588,-0.0016014885,0.001752152,6.134,0,0
-0.0016667404000000002,0.0018930642000000001,-0.0007967320000000002,-0.0012026645,0.0013627978,6.135,0,0
-0.0018203188000000003,0.0019299802,9.109999999999988e-05,-0.0012993915,0.0010858678000000002,6.136,0,0
-0.0018630788000000003,0.0020635341999999997,0.001478554,-0.0011607828,0.0004934158,6.137,0,0
-0.0023774900000000003,0.0020309504000000003,0.002949448,-0.00019227479999999988,-0.00019491620000000002,6.138,0,0
-0.002400688,0.0014356393999999998,0.0030932979999999995,0.0006598152000000001,-0.0005895102,6.139,0,0
-0.0019673698000000003,0.0006929015999999999,0.0027127182,0.0012644412000000001,-0.0007196776,6.14,0,0
-0.0017335478,1.5090799999999967e-05,0.0027424681999999997,0.0012023210000000001,-0.0007936996,6.141,0,0
-0.0013703714000000001,-0.0005088286,0.0016147681999999998,0.0008968964000000001,-0.0004179393999999999,6.142,0,0
-0.0005022404000000001,-0.0007264810000000001,-0.00022069580000000008,0.0005686958000000001,0.00040878659999999995,6.143,0,0
0.00018792159999999998,-0.0009750760000000001,-0.0013515358000000003,0.0001177924,0.0008746565999999999,6.144,0,0
0.0010773374,-0.0010580922000000001,-0.0024636280000000003,-0.00030099040000000003,0.0009830146000000001,6.145,0,0
0.0025104154000000004,-0.0008130112,-0.0038462740000000002,-0.0008929358,0.0012118134,6.146,0,0
0.003825165,-0.0002494398,-0.0041666640000000005,-0.0015569368,0.0013576172,6.147,0,0
0.004439732,0.00014685220000000006,-0.0035976060000000006,-0.0019357762000000002,0.0010893852,6.148,0,0
0.00479111,0.0002765710000000001,-0.0030393032,-0.001933386,0.0007236504000000001,6.149,0,0
0.004256038,0.0007107956000000002,-0.0017929591999999999,-0.0017128052,0.00020666599999999994,6.15,0,0
0.002142566,0.0008494394000000001,0.00021596880000000014,-0.0005335671999999999,-0.0007065508000000001,6.151,0,0
0.00022709399999999984,0.00011180339999999997,0.0018910328000000002,0.0008780108000000001,-0.0014589688,6.152,0,0
-0.0008403620000000001,-0.0006609066,0.0029148368000000003,0.0014640048000000004,-0.0020381288,6.153,0,0
-0.00230487,-0.0010857074000000001,0.003728266,0.0018883100000000005,-0.002446558,6.154,0,0
-0.0038892700000000002,-0.0019889440000000003,0.00409611,0.0023182780000000004,-0.00228683,6.155,0,0
-0.0039035840000000003,-0.0030235260000000003,0.00378288,0.002572876,-0.00175313,6.156,0,0
-0.003571192,-0.003357454,0.0033843600000000003,0.0023108580000000003,-0.00171019,6.157,0,0
-0.0038835300000000005,-0.0031755760000000003,0.003009034,0.0020028878000000003,-0.001771636,6.158,0,0
-0.0032264921999999997,-0.002930536,0.0019076359999999999,0.0016712824000000002,-0.0013770358,6.159,0,0
-0.0016494881999999998,-0.0023212616,0.00070439,0.0005995683999999999,-0.0010575002,6.16,0,0
-0.0007023759999999998,-0.0013229642000000001,-0.00021121200000000012,-0.0006073836000000002,-0.0005291122,6.161,0,0
0.00031785400000000006,-0.0007451820000000002,-0.0019745200000000004,-0.0013800216000000001,0.00041955979999999996,6.162,0,0
0.0020690220000000002,-0.0002436316,-0.0037494300000000006,-0.0018651934000000002,0.0014854958000000001,6.163,0,0
0.0034959422,0.00048731040000000005,-0.004357276,-0.00246124,0.0022247316,6.164,0,0
0.0047004242,0.001049402,-0.004773106,-0.0028381120000000003,0.002722122,6.165,0,0
0.005882186,0.0017238286,-0.005194482,-0.0031420140000000003,0.0034385680000000004,6.166,0,0
0.006197022000000001,0.0029652584000000003,-0.0041810908,-0.003458482,0.0038335540000000003,6.167,0,0
0.005392460000000001,0.00389356,-0.0023435188,-0.0034198,0.003590686,6.168,0,0
0.004136104000000001,0.004391988,-0.0007482587999999999,-0.003297756,0.003252902,6.169,0,0
0.002223172,0.00489231,0.0010606092,-0.002711048,0.0027263272000000002,6.17,0,0
-0.0002122360000000002,0.004500584,0.0028927312,-0.0016946540000000003,0.0015650050000000002,6.171,0,0
-0.002332212,0.0032832658,0.004129588,-0.0005035440000000001,0.0004923636,6.172,0,0
-0.0038606680000000003,0.0020768116,0.004372148,0.000735414,-0.00018475239999999997,6.173,0,0
-0.004990876000000001,0.0010286450000000001,0.0045358640000000006,0.002242862,-0.0010379304,6.174,0,0
-0.005633634000000001,-0.0005452750000000001,0.0046464,0.003593436,-0.0015428616000000002,6.175,0,0
-0.005272270000000001,-0.0018442950000000001,0.0035883196000000006,0.004188814,-0.0019644394000000003,6.176,0,0
-0.0042066386,-0.0025568048,0.0023819880000000002,0.0043911720000000005,-0.002619124,6.177,0,0
-0.0032885246,-0.0035689646,0.0015462330000000002,0.004012252,-0.002742154,6.178,0,0
-0.0022296418,-0.0042036,-0.00046318500000000007,0.0026549160000000002,-0.0024236772,6.179,0,0
-0.0006392558000000001,-0.0039869020000000005,-0.0029427210000000006,0.0007012120000000001,-0.0020193172,6.18,0,0
0.0006617681999999999,-0.0032777546,-0.0040253986000000005,-0.0005387380000000001,-0.0013442488000000002,6.181,0,0
0.0015979128,-0.0021954986,-0.004509097,-0.0013020988,-0.00046481279999999994,6.182,0,0
0.0027113148,-0.0007732586,-0.004709338,-0.0021227148,0.00012944200000000004,6.183,0,0
0.003230044,0.00041449540000000005,-0.0034654314000000003,-0.0019827928,0.0004983982,6.184,0,0
0.0030726560000000004,0.0012797354000000003,-0.0014186014,-0.0009412595999999999,0.0005936496,6.185,0,0
0.0027083200000000006,0.0016483960000000003,0.0002858746000000001,-0.00036298100000000007,0.0004874272,6.186,0,0
0.0013424160000000004,0.0016303900000000002,0.0018793226000000003,-9.479860000000007e-05,0.00025282360000000004,6.187,0,0
-0.0005596439999999999,0.0014972300000000002,0.003418274600000001,0.0006609414,-0.0002695112,6.188,0,0
-0.0018489679999999999,0.0007725740000000002,0.00436741,0.0014037353999999998,-0.0009831122,6.189,0,0
-0.0027740279999999996,-0.00013657999999999997,0.004521110000000001,0.0017922341999999998,-0.0020963396000000002,6.19,0,0
-0.003968944,-0.000748354,0.004216556,0.0022390336,-0.0032690775999999998,6.191,0,0
-0.004333682,-0.0014502540000000002,0.003006468000000001,0.0026351720000000003,-0.0034112640000000002,6.192,0,0
-0.0035076152,-0.001953054,0.0010594159999999997,0.002256077,-0.002973098,6.193,0,0
-0.0028679448,-0.0016179717540000002,-0.0008127759999999999,0.0015711094,-0.0025251974,6.194,0,0
-0.0020380868,-0.0011005137540000003,-0.002582542,0.0009646284000000001,-0.0010975974,6.195,0,0
0.00011353720000000021,-0.0007110467740000001,-0.004049336,-0.00020979160000000007,0.0006178145999999999,6.196,0,0
0.0025821372,6.198122599999998e-05,-0.004824892,-0.0016709556000000002,0.0016352226000000002,6.197,0,0
0.0040507364,0.0011475272260000001,-0.00444865,-0.0023250026000000003,0.0022629546000000004,6.198,0,0
0.00535238,0.00197009698,-0.0036482714000000004,-0.0028376330000000004,0.0028546720000000004,6.199,0,0
0.005944975999999999,0.00263611098,-0.0025084834,-0.0036453480000000005,0.00308973,6.2,0,0
0.00476352054,0.0035012540000000005,-0.00028295139999999996,-0.0031767098000000005,0.0026490794,6.201,0,0
0.0029025545400000003,0.0037037880000000004,0.0019579586000000003,-0.0018429778000000005,0.0017788652000000002,6.202,0,0
0.0012169525399999999,0.0028679846000000003,0.0032635106,-0.0008741298000000001,0.0005222232,6.203,0,0
-0.0006929694600000001,0.0019022828000000002,0.0045121580000000005,0.00021014620000000004,-0.0008490908000000001,6.204,0,0
-0.00245322546,0.0007331607999999999,0.005191544,0.0014159182,-0.0021823088000000003,6.205,0,0
-0.003147008,-0.0011798432,0.0039901680000000005,0.0016068856000000002,-0.0024908162000000004,6.206,0,0
-0.0036162620000000003,-0.0025117132,0.0022348660000000003,0.0012797770000000002,-0.0020485800000000004,6.207,0,0
-0.0041007940000000005,-0.0030701318,0.00057695,0.0014744270000000002,-0.0015580872000000002,6.208,0,0
-0.0035433520000000005,-0.0038150560000000003,-0.0017454980000000003,0.001358441,-0.0006523788000000003,6.209,0,0
-0.0023047240000000006,-0.00393233,-0.0038561460000000004,0.0009109420000000001,0.00034363119999999996,6.21,0,0
-0.0010953600000000003,-0.0034417320000000003,-0.004763812000000001,0.0007447954000000002,0.0009921592,6.211,0,0
0.0006067579999999998,-0.0032447540000000003,-0.005436088,0.00029640000000000005,0.0012109592000000002,6.212,0,0
0.002660742,-0.0025977540000000003,-0.006158612,-0.0006973600000000001,0.0019202384,6.213,0,0
0.004181858,-0.001112038,-0.005743644,-0.001449152,0.0025626500000000005,6.214,0,0
0.005161280000000001,0.00023771000000000003,-0.00436298288,-0.0017729970000000001,0.002862712,6.215,0,0
0.005728098000000001,0.0016314300000000001,-0.0029055788799999998,-0.0019396819999999999,0.002923484,6.216,0,0
0.005335872,0.0031317740000000004,-0.0007293748799999998,-0.0015287832,0.0023977992,6.217,0,0
0.003782054,0.003808482,0.00221441912,-0.0005468792000000001,0.0017312932000000001,6.218,0,0
0.00166379,0.003517924000000001,0.004469197120000001,0.00029298480000000004,0.0011822278000000002,6.219,0,0
-0.00045742199999999986,0.00287205,0.005819546,0.0008102348,0.0005210826000000001,6.22,0,0
-0.002407698,0.00225514,0.006501576000000001,0.0013070928,-0.0003083614,6.221,0,0
-0.0039121880000000005,0.0014161336,0.006086070000000001,0.0014590386,-0.00040291640000000004,6.222,0,0
-0.00416929,0.0004090315999999999,0.004702296600000001,0.0009288240000000001,-0.0002698198000000001,6.223,0,0
-0.0037951280000000005,-0.00038872839999999994,0.0029484046000000006,0.0002975038000000001,-0.0006622084,6.224,0,0
-0.0032418780000000006,-0.0011398903999999999,0.0009281646000000002,-2.1851000000000032e-05,-0.0011006452,6.225,0,0
-0.0017333920000000003,-0.0020495364,-0.0011202874000000003,-0.000718513,-0.0005051611999999999,6.226,0,0
-5.4228000000000024e-05,-0.0023830360000000003,-0.0023635434,-0.0016504176,0.00021391860000000005,6.227,0,0
0.0008820980000000002,-0.0017845399999999998,-0.002982586,-0.002162695,0.00031445400000000004,6.228,0,0
0.0019476280000000003,-0.0010176280000000002,-0.0038731900000000003,-0.0025743208,0.00116891,6.229,0,0
0.0031391180000000006,-6.939199999999999e-05,-0.004547048000000001,-0.0027586240000000003,0.0022538099999999998,6.23,0,0
0.003073978,0.001064516,-0.00406732,-0.0024458014,0.00226979,6.231,0,0
0.0024804824,0.00177903,-0.0033015116000000002,-0.0018641308000000001,0.0015613466000000001,6.232,0,0
0.0019677564000000003,0.001808788,-0.0024847336,-0.0011964596000000002,0.0011085326,6.233,0,0
0.0006983004000000001,0.0016973140000000001,-0.00014287359999999995,-0.00025988360000000013,0.00036162939999999995,6.234,0,0
-0.0009976936000000002,0.00160332,0.0025209324,0.0008321464000000001,-0.0005625426000000001,6.235,0,0
-0.0022826876000000005,0.0010288224000000001,0.0038260184,0.0016451058,-0.0010386488000000001,6.236,0,0
-0.003469644,0.0004581034,0.004866754,0.0022185852000000004,-0.0012234154000000002,6.237,0,0
-0.004408988,0.0002551226,0.005533296,0.0025930820000000005,-0.0013411214000000002,6.238,0,0
-0.004448014,0.00013258920000000003,0.00464987,0.0026207200000000004,-0.0018432442000000002,6.239,0,0
-0.004131074,-0.0002901102,0.0033483588000000003,0.002194064,-0.0021483722,6.24,0,0
-0.003882310000000001,-0.00028123300000000004,0.0023514136000000003,0.0018492979999999999,-0.0022574440000000004,6.241,0,0
-0.0029249642000000005,-0.00010801260000000005,0.0006724676,0.0018682220000000001,-0.00226082,6.242,0,0
-0.0010779382000000001,-0.00020173180000000005,-0.0010428804,0.0015179186,-0.00171114,6.243,0,0
0.00019200179999999986,5.260760000000002e-05,-0.0021053324,0.001052505,-0.0009459064,6.244,0,0
0.0011012038,0.000442187,-0.0031685212,0.0009262986000000001,7.544559999999993e-05,6.245,0,0
0.0029096778000000005,0.0007030902,-0.004066322,0.0006621962000000002,0.0013034376,6.246,0,0
0.004485254000000001,0.0009458008,-0.004110269999999999,-3.166380000000003e-05,0.0022428876,6.247,0,0
0.004458874,0.0015087528000000002,-0.0035722059999999996,-0.0006333704000000001,0.0024847656,6.248,0,0
0.00430739,0.0013818189999999998,-0.0030307199999999998,-0.0011076648,0.002497322,6.249,0,0
0.003885602,0.0010370238,-0.0019790576000000004,-0.0016523024,0.0019706852,6.25,0,0
0.0018234000000000004,0.00088920972,-0.0002115576,-0.0015540853999999999,0.0006590832000000003,6.251,0,0
-0.00032373199999999986,8.182972e-05,0.0014322744,-0.0009085594,-0.00040576879999999993,6.252,0,0
-0.00164419,-0.00104473428,0.0024489364000000002,-0.00016742140000000004,-0.0015078848,6.253,0,0
-0.0028753200000000002,-0.00190030448,0.0034619424,0.0008267786,-0.0022804848000000004,6.254,0,0
-0.0038069500000000004,-0.00267579928,0.004360992,0.0017613146000000001,-0.0022808923999999998,6.255,0,0
-0.0034722900000000003,-0.003633308,0.0037566846,0.001868018,-0.0019913528,6.256,0,0
-0.0025751880000000004,-0.0038537380000000006,0.0025935657999999998,0.0013768648000000003,-0.0018947728000000001,6.257,0,0
-0.0018506116000000003,-0.003927900000000001,0.0018658053999999998,0.0007938408000000001,-0.0017295848,6.258,0,0
-0.0006139176,-0.003937294000000001,0.0004383534000000001,1.2276799999999977e-05,-0.0010005044,6.259,0,0
0.0008738484,-0.003437518,-0.0012553566,-0.0008554212,-0.00057733,6.26,0,0
0.0015938484,-0.0026028432,-0.0019997252,-0.0014703112,-0.0003880486,6.261,0,0
0.0022245624000000004,-0.0015690532,-0.0026415004,-0.0017268220000000003,0.0003126794000000001,6.262,0,0
0.003261154,-0.00046308720000000006,-0.0036274960000000005,-0.001822786,0.0011725954000000002,6.263,0,0
0.0036589300000000003,0.0011719588000000001,-0.003473934,-0.0020078440000000004,0.0015134370000000003,6.264,0,0
0.003697576,0.0026402048000000004,-0.0027578100000000003,-0.0021012680000000003,0.0016043970000000002,6.265,0,0
0.003988316,0.0033827300000000005,-0.002441428,-0.0019190742,0.0016263302000000001,6.266,0,0
0.003530618,0.0038476,-0.001663292,-0.0018567922,0.001216049,6.267,0,0
0.00206234,0.004161974000000001,-0.00013466399999999994,-0.0013504069999999999,0.0009749764,6.268,0,0
0.0005789360000000002,0.0033004764,0.0011147260000000001,-0.00019953499999999993,0.0007056064000000001,6.269,0,0
-0.000581548,0.0021747392000000003,0.001791952,0.0005902370000000002,-0.0001527595999999999,6.27,0,0
-0.002137714,0.0018657632000000002,0.003018334,0.0014614192000000003,-0.0008849478,6.271,0,0
-0.003721756,0.0009156612,0.0036671620000000003,0.0026279092000000004,-0.0014747006,6.272,0,0
-0.004069,-0.00013076680000000002,0.0031329996000000002,0.002853804,-0.0023899620000000002,6.273,0,0
-0.0038871640000000002,-5.333200000000012e-06,0.0027288256000000005,0.0025699580000000007,-0.0033754300000000004,6.274,0,0
-0.0036312520000000006,0.00015311299999999997,0.0022114522,0.0025708400000000005,-0.003469764,6.275,0,0
-0.002633973,-0.000425499,0.0006076502,0.0018888898,-0.0027061552,6.276,0,0
-0.0010911990000000002,-0.00020034879999999996,-0.0010274058000000002,0.0006806038,-0.0017122091999999998,6.277,0,0
3.1252999999999967e-05,0.00034460520000000007,-0.0017325154000000001,-0.00018182420000000004,-0.0005409351999999999,6.278,0,0
0.001050345,0.00025670620000000006,-0.0027938754000000005,-0.0010251142000000002,0.0007715068,6.279,0,0
0.0020399050000000003,0.0005626192000000001,-0.0037097760000000006,-0.0019108162000000001,0.0020688008000000003,6.28,0,0
0.002241306,0.0013341312000000002,-0.003477282,-0.002581356,0.002530928,6.281,0,0
0.00220727,0.0017790470000000002,-0.00279972,-0.0025933880000000003,0.0023520408,6.282,0,0
0.002198292,0.001857115,-0.0022549444,-0.00229934,0.002126769,6.283,0,0
0.0015467944000000003,0.002068092,-0.0011347643999999998,-0.002013714,0.0017723566,6.284,0,0
0.0003956224000000001,0.0014947728000000002,0.0004356875999999999,-0.0012118640000000002,0.0009347592,6.285,0,0
2.1434000000000242e-06,0.0006017688000000002,0.0012735656000000001,-0.0003758240000000002,-2.0188800000000033e-05,6.286,0,0
-0.0005902806,-0.00026715719999999987,0.0023477556,0.000261284,-0.0005380776000000001,6.287,0,0
-0.0020495086,-0.0015845832,0.0035463960000000003,0.0011872319999999999,-0.0015544938,6.288,0,0
-0.002938055,-0.0027116832,0.0035791940000000004,0.00213215,-0.0028539734000000002,6.289,0,0
-0.003051251,-0.0033847960000000002,0.0032152720000000004,0.002289038,-0.0033684360000000003,6.29,0,0
-0.003472734,-0.003729046,0.003197258,0.0022646048,-0.0035219120000000003,6.291,0,0
-0.0035545719999999998,-0.0038234280000000002,0.0028710340000000006,0.0020556204000000003,-0.0034263320000000002,6.292,0,0
-0.002151794,-0.0031094020000000003,0.0018009852000000002,0.0008356444000000002,-0.00198326,6.293,0,0
-0.0007097940000000001,-0.0021463618,0.0007214332000000001,-0.00036428960000000005,-0.00014831199999999984,6.294,0,0
0.0003101099999999999,-0.0011302174000000001,-0.0005722927999999999,-0.0009267678,0.0009084660000000002,6.295,0,0
0.0016498819999999999,-0.0001504514000000001,-0.0025427868000000003,-0.0014116226,0.002050862,6.296,0,0
0.0027637720000000003,0.0007008786,-0.0044798688,-0.0015684604,0.0028273200000000004,6.297,0,0
0.003079352,0.0014179706,-0.005244688000000001,-0.0009867320000000001,0.00279106,6.298,0,0
0.003390106,0.0016258664,-0.005272738000000001,-0.0005139789999999999,0.0026837000000000002,6.299,0,0
0.0033611220000000002,0.0017998460000000001,-0.004816964,-0.0003237146,0.002778314,6.3,0,0
0.0021461180000000002,0.001891108,-0.002767496,0.0005889734,0.0027032220000000004,6.301,0,0
0.00091729,0.0015036976000000002,-0.0005238699999999998,0.0015796276,0.0022692042,6.302,0,0
-0.00012392799999999998,0.00045494760000000024,0.0011984920000000002,0.0018317972,0.0014654622000000001,6.303,0,0
-0.0016878400000000001,-0.0001994584,0.003241532,0.0021115702,0.0004142321999999999,6.304,0,0
-0.002924654,-0.0008636264,0.00488253,0.002575122,-0.0006094178,6.305,0,0
-0.003160302,-0.0019761444,0.00503589,0.002304022,-0.0018260818,6.306,0,0
-0.0029832360000000002,-0.0022183000000000003,0.004443226200000001,0.001182242,-0.002409142,6.307,0,0
-0.0027828538000000003,-0.0017859208000000001,0.0037214862000000005,0.0005628300000000001,-0.0020042098,6.308,0,0
-0.0020979035999999997,-0.0016846134000000003,0.0021161688000000006,-6.027200000000016e-05,-0.0016517154,6.309,0,0
-0.0008981875999999999,-0.0017300534000000002,0.00010110479999999992,-0.0010682200000000002,-0.0010337877999999998,6.31,0,0
5.074039999999999e-05,-0.0009938582,-0.0009893292000000002,-0.0014898539999999999,0.00021606620000000002,6.311,0,0
0.0008452024000000001,-0.0005114462000000001,-0.0013958974,-0.0017407999999999998,0.0010497362,6.312,0,0
0.0019736382000000003,-0.00046268900000000007,-0.0024089554,-0.0019864600000000002,0.001453158,6.313,0,0
0.0029285680000000003,-7.693040000000001e-05,-0.002961754,-0.0017860744,0.0020692696,6.314,0,0
0.003114186,0.0004560426,-0.002651436,-0.0013835264,0.0022043740000000003,6.315,0,0
0.003387128,0.00057077,-0.002753958,-0.0014711038,0.002044176,6.316,0,0
0.003301282,0.000585474,-0.0026068094000000004,-0.0013196518,0.0017962893999999999,6.317,0,0
0.0020108039999999997,0.0011602196,-0.0013060534000000003,-0.0006256356,0.0009776754,6.318,0,0
0.0006007199999999999,0.0012001676,0.00011956059999999988,-6.119720000000004e-05,0.0003541394,6.319,0,0
-0.000612798,0.0013025106,0.0011271906,9.709599999999998e-05,-0.00028333060000000003,6.32,0,0
-0.0018576340000000002,0.001487536,0.0025363786000000004,0.0006059834,-0.0014235066,6.321,0,0
-0.0027279320000000006,0.0006560760000000001,0.0034638060000000003,0.0013537494000000001,-0.002044746,6.322,0,0
-0.0025508584000000006,-0.0005649320000000002,0.0029105604,0.0011115252,-0.002145534,6.323,0,0
-0.00199153144,-0.0011037540000000002,0.0020748544000000002,0.00060417,-0.0025181220000000002,6.324,0,0
-0.0013441754400000002,-0.0013606514000000002,0.0012435904000000003,0.00038770539999999994,-0.002537426,6.325,0,0
-0.00011677544000000004,-0.0019286034000000002,-0.0006129796000000001,-5.3037199999999974e-05,-0.0022276239999999997,6.326,0,0
0.0009305585600000001,-0.0014764354000000003,-0.0023700416000000005,-0.0006744877999999999,-0.001944952,6.327,0,0
0.0017023489600000003,-0.00046172940000000005,-0.0032645400000000002,-0.0010017478000000002,-0.0009630979999999999,6.328,0,0
0.0025458440000000002,-0.00010279919999999996,-0.0042492400000000005,-0.0012448246,0.00034841600000000005,6.329,0,0
0.003241166,0.0003320702,-0.004815232,-0.0013946712,0.0015155340000000002,6.33,0,0
0.0034046040000000003,0.0014755862000000002,-0.00411489,-0.0015355086,0.002748794,6.331,0,0
0.003217512,0.0024799442,-0.00322883,-0.0014865240000000001,0.0037921300000000003,6.332,0,0
0.0026528084,0.0028856122,-0.0025355256000000005,-0.0009844494,0.003964162,6.333,0,0
0.0013593204,0.0032171459999999997,-0.0007709216000000001,-0.00046969620000000004,0.003441464,6.334,0,0
-3.996160000000013e-05,0.0030341200000000004,0.0013734704,0.00026775180000000005,0.0025785432,6.335,0,0
-0.0013488256,0.00219197306,0.0025954984,0.0010553898000000002,0.0016243288,6.336,0,0
-0.0027700576,0.0011783044600000001,0.0036131684,0.0016216218,0.00046140680000000014,6.337,0,0
-0.003969294,0.00030789646000000005,0.00500362,0.0020300852,-0.0011798072000000002,6.338,0,0
-0.004218564,-0.00028043193999999997,0.0051458979999999994,0.002282756,-0.0021546352000000003,6.339,0,0
-0.0036122392,-0.00083588194,0.0039963818,0.00218053,-0.0025216104,6.34,0,0
-0.0030296652,-0.0009256536,0.0032588358,0.00196592,-0.002909314,6.341,0,0
-0.0020847308,-0.001182375,0.0020497358000000007,0.001810144,-0.0025431127400000002,6.342,0,0
-0.0005485308,-0.001768903,-0.00013931419999999993,0.0012021758,-0.00107344274,6.343,0,0
0.0001982772,-0.0017324754,-0.0017034341999999998,0.00026618780000000003,4.155326000000021e-05,6.344,0,0
0.00046971480000000004,-0.0016607634000000001,-0.002335894,-0.0006266262000000001,0.0005580092600000001,6.345,0,0
0.0015304448000000002,-0.0017981148,-0.0032158599999999996,-0.0015760582,0.0013880452600000001,6.346,0,0
0.0025268484,-0.0013239872,-0.00347315,-0.0023763762000000004,0.0017222620000000002,6.347,0,0
0.0028900244000000003,-9.590119999999998e-05,-0.0023429646,-0.002552348,0.0015523480000000003,6.348,0,0
0.0034358684000000005,0.0005258656,-0.0014600542000000002,-0.0024336540000000004,0.001775108,6.349,0,0
0.0037602940000000004,0.0010646196000000001,-0.0008177124000000003,-0.002281994,0.001998808,6.35,0,0
0.0025046879999999997,0.0020119456,0.0005437896,-0.0015529282000000001,0.0015594624,6.351,0,0
0.00072292,0.002162466,0.0019250336000000002,-0.0006747001999999999,0.0009332504,6.352,0,0
-0.00045805000000000005,0.001479056,0.0023253622,6.455579999999989e-05,3.120440000000009e-05,6.353,0,0
-0.001545924,0.000979875,0.0028461718,0.0014518738,-0.0012205176,6.354,0,0
-0.002579886,0.00046614340000000016,0.0035965140000000003,0.0026379458000000003,-0.0018779976,6.355,0,0
-0.0028035000000000004,-0.0008603106,0.0028403544000000004,0.002942956,-0.002155926,6.356,0,0
-0.002145254,-0.0016080626000000002,0.0014684644000000002,0.0028523640000000005,-0.0024198659999999997,6.357,0,0
-0.0018936419999999999,-0.0019216426,0.00047685040000000015,0.0026165544000000002,-0.002184574,6.358,0,0
-0.0015075359999999999,-0.0028304556,-0.0013142416,0.0016856304,-0.0015567179400000001,6.359,0,0
-0.000547404,-0.0032865880000000004,-0.0034457916000000003,0.0002002544,-0.0011647059400000002,6.36,0,0
8.730799999999992e-05,-0.0025615496000000004,-0.004055594,-0.0006866235999999999,-0.00083522754,6.361,0,0
0.000638618,-0.0018264122,-0.004217862,-0.0010620084,5.3876460000000016e-05,6.362,0,0
0.00159114,-0.0011851160000000004,-0.004616970000000001,-0.0015487528,0.0008551904600000001,6.363,0,0
0.002548142,0.00011450199999999994,-0.0038643580000000005,-0.0021143968,0.0013572384000000001,6.364,0,0
0.0026149980000000003,0.001412928,-0.002125338,-0.0019569908,0.0021392824000000003,6.365,0,0
0.002736878,0.0019459256,-0.0006184180000000002,-0.0018858108000000002,0.0026203080000000004,6.366,0,0
0.0026243260000000006,0.001842923,0.0007166140000000001,-0.00206267,0.0024211436000000004,6.367,0,0
0.0012024960000000002,0.0019200652,0.0026162700000000004,-0.00153915,0.0019432918,6.368,0,0
8.21000000000014e-06,0.0016939684,0.003977216,-0.0008105939999999998,0.001243493,6.369,0,0
-0.000881106,0.0007876324,0.004252622,-0.00020718339999999994,0.00021940499999999994,6.37,0,0
-0.002477104,1.5194000000000112e-06,0.004397788,0.0006243966,-0.000563241,6.371,0,0
-0.003951388,-0.00014251540000000001,0.004356946,0.0016522986000000002,-0.0011863606,6.372,0,0
-0.004146462,-0.0002786516,0.0034589162,0.0021132686,-0.0019934108,6.373,0,0
-0.004403656,-0.00018305680000000002,0.0021031302,0.0024223946000000002,-0.0026367079999999998,6.374,0,0
-0.004771036,0.00022894440000000002,0.0008272361999999998,0.0027924740000000005,-0.002980608,6.375,0,0
-0.0036417622000000003,0.00026859180000000005,-0.0009535438000000002,0.0023667620000000006,-0.0030085819999999997,6.376,0,0
-0.0021843226,0.0005196274000000001,-0.0027526078,0.001354552,-0.0026961833999999997,6.377,0,0
-0.0010919226000000001,0.0007803692,-0.0033667160000000005,0.00044784200000000005,-0.0019893638000000003,6.378,0,0
0.00039096339999999995,0.0008112992,-0.0036202400000000003,-0.0004957399999999999,-0.0007644817999999999,6.379,0,0
0.0022557574,0.00101772,-0.003911786,-0.001605134,0.0005450702,6.38,0,0
0.0031883375999999996,0.0015142596,-0.0029276790000000003,-0.002272514,0.0012756322000000001,6.381,0,0
0.0036692499999999998,0.001967596,-0.001308735,-0.0021256601999999998,0.0014955164,6.382,0,0
0.004310546,0.002390624,-0.000433135,-0.0020192336,0.0013307756000000002,6.383,0,0
0.0034926301999999997,0.002638346,0.001089453,-0.0021843136,0.0010707626,6.384,0,0
0.0017233061999999996,0.002525224,0.0030596390000000003,-0.0017847136,0.0009559006000000001,6.385,0,0
0.0004418362000000001,0.0021573152,0.003655652,-0.0010594662,0.0006156446,6.386,0,0
-0.0005518638,0.0012777372,0.003963556,-0.0008235426000000001,-2.158619999999994e-05,6.387,0,0
-0.0019522738000000003,0.00033713319999999995,0.004254402,-0.0004731672000000001,-0.0005905749999999999,6.388,0,0
-0.0025927560000000003,-0.0005399948000000001,0.0034563154000000003,0.0007321248,-0.00114729,6.389,0,0
-0.0021570840000000005,-0.0017280608000000003,0.0020366254000000004,0.0015931228,-0.00172064804,6.39,0,0
-0.002063006,-0.0026703740000000005,0.0009821494000000004,0.0016707516,-0.00178145664,6.391,0,0
-0.002085312,-0.0029151780000000005,-0.0003737786,0.0015420038,-0.00112166304,6.392,0,0
-0.001292656,-0.0030651860000000006,-0.0021569826,0.0011693197999999999,-0.00019561904000000001,6.393,0,0
-0.00022364400000000016,-0.002986008,-0.002970968,0.0004576648000000001,0.00030367075999999997,6.394,0,0
0.00022477159999999998,-0.0022144800000000004,-0.003476434,-0.0003672772,0.0004640569999999999,6.395,0,0
0.0012809435999999999,-0.00152543,-0.004325814,-0.0010333634,0.0011215256000000002,6.396,0,0
0.0027143296,-0.0010811022,-0.004415138000000001,-0.0015162210000000003,0.0017829920000000002,6.397,0,0
0.0031324096000000003,-0.0005773592000000001,-0.0034820574000000003,-0.001765099,0.001902326,6.398,0,0
0.0032396576,-0.0003164830000000001,-0.0024736493999999998,-0.0017162376000000002,0.0020707862,6.399,0,0
0.003479486,-5.3340400000000056e-05,-0.0013324794,-0.0014957276,0.0023591800000000002,6.4,0,0
0.0027201024,0.0003172518,0.0004906566000000001,-0.0010203688,0.00212713,6.401,0,0
0.0012292904,0.00036459962,0.0021315726,5.1505199999999935e-05,0.0010212940000000003,6.402,0,0
0.0001814764,0.00022474662000000002,0.003030858,0.0011411292,-0.00022561800000000013,6.403,0,0
-0.0007611636,0.00024500042000000005,0.00382474,0.0017150028,-0.0013659560000000002,6.404,0,0
-0.0016672276,4.2944220000000016e-05,0.004343390000000001,0.0022514548000000002,-0.002436036,6.405,0,0
-0.002042026,-0.00048081598,0.0034736660000000003,0.002542368,-0.003136826,6.406,0,0
-0.0019017,-0.0009213816,0.002021698,0.00199841706,-0.002735613,6.407,0,0
-0.002032712,-0.0010437139999999998,0.0011856716000000001,0.0015766010600000002,-0.0016565218,6.408,0,0
-0.00199852,-0.0011126516,-0.0006129324,0.0012918790599999999,-0.0009771938000000002,6.409,0,0
-0.0010608059999999999,-0.001539406,-0.0028264203999999998,0.00069103506,-0.0005754078000000001,6.41,0,0
3.2632000000000104e-05,-0.0014907639999999999,-0.0034927764,0.00043845886,-0.00040185220000000003,6.411,0,0
0.0010521080000000002,-0.0006749860000000002,-0.0040620604,0.0001510438,-1.642719999999997e-05,6.412,0,0
0.002222834,-0.00012296360000000012,-0.005134344000000001,-0.0006184102000000001,0.0005250836000000002,6.413,0,0
0.00298109,0.00028062,-0.005195306,-0.0015169962000000001,0.0012642296000000002,6.414,0,0
0.0028519220000000002,0.0013378399999999999,-0.00444452,-0.0018381642,0.0021464036,6.415,0,0
0.002479438,0.0022049640000000002,-0.0036831144000000005,-0.0018817844,0.003058378,6.416,0,0
0.002060328,0.002376642,-0.0022367844,-0.0018704964000000003,0.0034212620000000004,6.417,0,0
0.0009723400000000002,0.002393006,-0.00010055440000000023,-0.0010194683999999999,0.002750965,6.418,0,0
-0.00023097599999999982,0.0020894502600000003,0.0018492496,0.00024471559999999994,0.0018763270000000001,6.419,0,0
-0.001052996,0.00150791366,0.0034085796000000003,0.000831794,0.0007783470000000002,6.42,0,0
-0.002204204,0.00099055166,0.004598022,0.0013656344,-0.000670379,6.421,0,0
-0.00354986,0.00033009786000000004,0.005153444000000001,0.0022149084,-0.0018219390000000003,6.422,0,0
-0.003978866,-0.00037106214,0.004833240000000001,0.0018802582799999999,-0.002110784,6.423,0,0
-0.004011694,-0.0006058424,0.004246484,0.0010129402800000001,-0.00233568,6.424,0,0
-0.00422949,-0.0009200657999999999,0.003558908000000001,0.00097918788,-0.002286654,6.425,0,0
-0.0031688162000000006,-0.0015876718,0.0020954540000000005,0.00087709588,-0.0014317316,6.426,0,0
-0.0015833502,-0.0018557340000000002,0.0005174099999999999,0.00042259687999999997,-0.0008463915999999999,6.427,0,0
-0.0003461501999999999,-0.001586948,-0.000654714,0.00046532720000000004,-0.0006746788,6.428,0,0
0.0015679038,-0.0013632184600000001,-0.002121996,0.0004410812,7.042320000000004e-05,6.429,0,0
0.0034550258,-0.0007591844600000002,-0.003391038,-0.00038777480000000013,0.0009374352000000001,6.43,0,0
0.004300756,0.00039899754,-0.003317992,-0.0010672388000000001,0.0007090213999999999,6.431,0,0
0.004335328,0.0011898875400000002,-0.0026805152,-0.0013014254000000003,0.00029499939999999997,6.432,0,0
0.004150486000000001,0.0017850255400000002,-0.0023570042,-0.0016553576000000003,0.0002898161999999999,6.433,0,0
0.003192133,0.002658196,-0.0014569009999999998,-0.0016267456000000004,5.543420000000001e-05,6.434,0,0
0.0014642190000000001,0.003103352,-0.00011901900000000005,-0.0009774356000000002,-0.0005571256,6.435,0,0
-8.291500000000003e-05,0.0026666138000000002,0.0006478030000000001,-0.0005878694000000002,-0.0005777892000000001,6.436,0,0
-0.0012448950000000002,0.0019160498000000002,0.0011888482,-0.00045822180000000014,-0.0002036418,6.437,0,0
-0.0023844310000000002,0.0008473358000000001,0.0024008392,0.00024355419999999998,-0.00035529940000000003,6.438,0,0
-0.0034337720000000003,-0.0006116922000000001,0.003497046,0.0011425602,-0.00045982900000000003,6.439,0,0
-0.0036073920000000005,-0.0020208702,0.003488862,0.0014328602,0.00016319879999999998,6.44,0,0
-0.0033562180000000002,-0.0025476379999999996,0.0032234646000000003,0.001581506,0.0007923258,6.441,0,0
-0.0029556112,-0.0023798002,0.0027058484,0.0018001660000000004,0.000749601,6.442,0,0
-0.0019490947999999998,-0.0021980522,0.0013752424,0.0013845920000000002,0.0011989970000000003,6.443,0,0
-0.0007808407999999999,-0.001565744,-8.15655999999999e-05,0.00045853399999999997,0.0012739382000000004,6.444,0,0
0.00021721119999999994,-0.0007036901999999999,-0.0009247395999999999,-5.986199999999988e-05,0.0005626862,6.445,0,0
0.0015178552000000003,-0.0002666082,-0.0018260182,-0.000534306,0.0005364342,6.446,0,0
0.0027914804000000004,6.73144e-05,-0.002614916,-0.0013082579999999999,0.0009939936,6.447,0,0
0.0031719360000000006,0.0008191644000000001,-0.002627564,-0.001646058,0.0013539456,6.448,0,0
0.003162696,0.0012007202000000002,-0.002575472,-0.001832222,0.001995378,6.449,0,0
0.0030150818,0.0012965784000000002,-0.0024760280000000003,-0.002129082,0.0022664015999999997,6.45,0,0
0.0017810918000000003,0.0016478043999999998,-0.0019035979999999998,-0.0019892744,0.0012635256000000004,6.451,0,0
0.00014138979999999996,0.001467706,-0.0009535180000000001,-0.0011674324,0.00020124360000000008,6.452,0,0
-0.0006332922,0.0008706592000000001,-0.00029590599999999986,-0.0004480684,-0.0008786523999999999,6.453,0,0
-0.0014106082000000001,0.0003424294,0.0002875940000000002,0.00018466020000000005,-0.0019671724,6.454,0,0
-0.0024859260000000003,-0.00030948659999999997,0.0012394740000000002,0.0010678462000000002,-0.002510604,6.455,0,0
-0.002980272,-0.0011505226,0.0022038720000000004,0.0013828984000000002,-0.0022710639999999997,6.456,0,0
-0.002966086,-0.0016713486000000002,0.002530094,0.0011334166,-0.001565006,6.457,0,0
-0.003023446,-0.0018911557999999999,0.0023498814000000004,0.0009124344000000001,-0.001053026,6.458,0,0
-0.0024374296000000007,-0.002223246,0.0020202108000000004,0.0009588718000000001,-0.00027446800000000004,6.459,0,0
-0.0008399676000000002,-0.0019509336000000002,0.0009516647999999998,0.0009744418,0.0005992840000000001,6.46,0,0
0.0005037784,-0.0013089188000000003,-0.00045655519999999994,0.0008059766000000001,0.000924401,6.461,0,0
0.0017777983999999998,-0.0009543868,-0.0015713292000000003,0.00020260640000000006,0.0005813796000000001,6.462,0,0
0.0032611424,-0.0003529348,-0.0026426366,-0.0007127594,0.0004778480000000001,6.463,0,0
0.00405917,0.0006148032,-0.003364616,-0.0010643684,-0.00021753600000000005,6.464,0,0
0.004076143999999999,0.0012011387999999999,-0.00323519,-0.0010945204,-0.0014453640000000002,6.465,0,0
0.003924291999999999,0.0011877492,-0.003210942,-0.001138793,-0.0015921206000000002,6.466,0,0
0.0034699839999999993,0.0013511832,-0.003022968,-0.000754946,-0.0017664032,6.467,0,0
0.001906414,0.0012104887999999999,-0.0015971880000000003,4.821159999999997e-05,-0.0020759336,6.468,0,0
0.00029479600000000006,0.0005506708,-0.000185816,0.00033301420000000003,-0.0014642824,6.469,0,0
-0.0008667260000000002,-1.5892200000000003e-05,0.00051431,0.00018288160000000001,-0.0007138064000000001,6.47,0,0
-0.00232029,-0.00042911140000000006,0.00195934,0.0007217136,-0.0009447328,6.471,0,0
-0.0034744320000000004,-0.0009034394000000002,0.0034413739999999996,0.0013072866000000002,-0.0008969428000000001,6.472,0,0
-0.0036375360000000002,-0.0017095590000000003,0.003446736,0.0013709086,-0.0005235000000000001,6.473,0,0
-0.0032906760000000006,-0.0022230089999999997,0.0035408680000000004,0.0013943293999999998,-0.0008629262,6.474,0,0
-0.0032414500000000008,-0.00252376,0.0038898440000000004,0.0013344776,-0.0009430628000000002,6.475,0,0
-0.002275894,-0.002635894,0.0027107900000000002,0.0005838136,-0.0003041808,6.476,0,0
-0.000666232,-0.0019141680000000002,0.0008959560000000004,-0.0007833704000000001,0.0003500112,6.477,0,0
0.00039917600000000006,-0.000767348,2.1787999999999907e-05,-0.0015941360000000001,0.0006127264,6.478,0,0
0.001417444,6.246999999999996e-05,-0.001148736,-0.0019791304,0.0012550774,6.479,0,0
0.002402042,0.0009154759999999999,-0.002764892,-0.002788726,0.002242004,6.48,0,0
0.002888498,0.002243836,-0.0029681800000000004,-0.00316129,0.0026715239999999998,6.481,0,0
0.002745084,0.003092864,-0.0023774076,-0.0023468364,0.002570322,6.482,0,0
0.002677472,0.0035748439999999998,-0.0025448876000000007,-0.0017956832,0.0026368819999999997,6.483,0,0
0.00216876,0.0043672120000000005,-0.0021728707999999998,-0.0018026792,0.002427584,6.484,0,0
0.001115774,0.004558892,-0.0006166968,-0.0010115496,0.001392164,6.485,0,0
-0.0002330199999999999,0.0037887322,0.00019447920000000013,0.00017087440000000003,0.0005021492000000001,6.486,0,0
-0.001775036,0.0026938061999999996,0.0006638268000000002,0.0008126028,0.00017762120000000008,6.487,0,0
-0.003100934,0.0014500122,0.0018577568000000002,0.0012753076,-0.0006048808000000001,6.488,0,0
-0.004388504,9.230200000000005e-06,0.0023428280000000004,0.0020495716000000002,-0.0015517448000000001,6.489,0,0
-0.0046559,-0.0011808958000000002,0.0017325048000000002,0.0027039280000000004,-0.0017392088000000002,6.49,0,0
-0.0039096242000000005,-0.001902782,0.0012892366,0.0029636560000000003,-0.001843704,6.491,0,0
-0.0028328562,-0.002369808,0.0006660366,0.003079704000000001,-0.0017888586000000004,6.492,0,0
-0.0011016161999999998,-0.0026535020000000003,-0.0005706894,0.0026606342000000003,-0.0011942090000000003,6.493,0,0
0.0009521338000000001,-0.002514632,-0.0013178094000000002,0.0016951222000000006,-0.00042628900000000005,6.494,0,0
0.0025881058,-0.0018515384000000001,-0.0015506642000000003,0.0007539416000000001,0.00023203900000000002,6.495,0,0
0.003841596,-0.0014653530000000002,-0.001851376,-0.0005896483999999999,0.000908099,6.496,0,0
0.004745328,-0.001009267,-0.0018716880000000003,-0.0021442244,0.0013580736,6.497,0,0
0.0049298580000000005,0.00016433100000000004,-0.0012508078,-0.0027693926,0.001505054,6.498,0,0
0.004988148000000001,0.000991433,-0.0006577478,-0.0026054066,0.0017445560000000002,6.499,0,0
0.004979338000000001,0.0014362954000000001,-0.0003393074,-0.0024294000000000004,0.001875368,6.5,0,0
0.00389162,0.002154716,0.0006886506000000001,-0.0019708736000000004,0.0013835308,6.501,0,0
0.0021797120000000003,0.0022095993999999997,0.0017635386,-0.0008616548000000002,0.0006649088000000001,6.502,0,0
0.000653274,0.0011940534000000002,0.0020871564,0.0001734112,0.0004454460000000001,6.503,0,0
-0.0012620600000000002,0.0003497274000000001,0.0026533564,0.0007781672,1.878580000000006e-05,6.504,0,0
-0.0035153880000000004,-0.0005690425999999998,0.003500914,0.0012618612,-0.000554915,6.505,0,0
-0.004615204,-0.0019439186,0.0034055680000000003,0.0016482968,-0.0006288368000000001,6.506,0,0
-0.004630612000000001,-0.002417796,0.0026542329999999998,0.0016534878000000002,-0.0005840634,6.507,0,0
-0.004642658000000001,-0.0018311672000000001,0.0023188405999999997,0.00137426656,-0.0005912802600000001,6.508,0,0
-0.004078292,-0.0015701101999999998,0.0011893506000000002,0.00100723456,-3.842006000000003e-05,6.509,0,0
-0.002420034,-0.0015453562,-0.0006922954000000001,0.00037861616000000003,0.00081139674,6.51,0,0
-0.0009417479999999998,-0.000841918,-0.0018879814,1.6365600000000011e-06,0.0011659877400000001,6.511,0,0
0.00012861400000000004,-0.000314596,-0.0029873884000000007,0.00016202076,0.0012260199400000002,6.512,0,0
0.0018732940000000002,-0.0004094786,-0.004146656,-2.565999999999799e-07,0.0012816056000000003,6.513,0,0
0.0033697860000000005,-0.00019906079999999998,-0.004383982,-0.0005842406,0.0012545456,6.514,0,0
0.003700254,0.00044121319999999994,-0.0036232827999999996,-0.0009188822,0.0009772936,6.515,0,0
0.003671194000000001,0.000971415,-0.0027090008,-0.0012088086,0.0008055922000000001,6.516,0,0
0.0034111462000000004,0.001371615,-0.0013169988,-0.0016399370000000002,0.0006463186000000001,6.517,0,0
0.0018579602000000006,0.0019171128,0.0006467152,-0.0012380564000000003,0.00011318860000000006,6.518,0,0
-9.463579999999987e-05,0.0019882,0.0021556892,-8.010639999999985e-05,-0.0005005774,6.519,0,0
-0.0014290098,0.001235768,0.0030237720000000005,0.0006936716,-0.0013934854,6.52,0,0
-0.0029632618000000003,0.0007766175999999999,0.0037919060000000003,0.0013509035999999999,-0.002362362,6.521,0,0
-0.0043629260000000005,0.00020147059999999994,0.00411382,0.0019871380000000003,-0.0025920660000000005,6.522,0,0
-0.0048082820000000005,-0.0007988774000000001,0.003290403,0.002103046,-0.0023747380000000004,6.523,0,0
-0.0049351740000000005,-0.0011919006000000003,0.0022148548,0.00171321,-0.0022551054000000004,6.524,0,0
-0.005115742,-0.0011427466,0.0014329638,0.00144809214,-0.0016838324,6.525,0,0
-0.004264826,-0.0015027862000000002,-0.00013141820000000002,0.00112314302,-0.0006718254000000002,6.526,0,0
-0.0028217572000000003,-0.0015809836000000002,-0.0015826742000000001,0.0007049522200000001,-6.2693e-05,6.527,0,0
-0.0021529914000000005,-0.0011093056,-0.0020538512000000003,0.00064077822,-0.00013101900000000004,6.528,0,0
-0.0011950154,-0.001072973,-0.0026031970000000002,0.0006451398200000001,-0.00041379360000000007,6.529,0,0
0.00017094059999999995,-0.0005919088,-0.0030630780000000003,0.0007360472800000001,-0.00043460180000000006,6.53,0,0
0.0008281506,0.00022459520000000005,-0.002758766,0.0004486124,-0.0010388568000000002,6.531,0,0
0.0011211258,0.0008815476000000001,-0.0013540540000000004,-0.00011296079999999995,-0.0007505872000000001,6.532,0,0
0.0013074888000000002,0.0009742612000000001,-0.0005224620000000002,-0.0007875548,-0.0001962332,6.533,0,0
0.0015525088,0.0011591208,0.0012479739999999998,-0.0007322684000000001,-0.0016113592000000002,6.534,0,0
0.0005956668,0.0008853126000000001,0.0029612399999999995,-0.00023365400000000002,-0.0021432400000000002,6.535,0,0
0.00012555540000000004,-0.0012320594,0.0003281779999999993,-0.0006430020000000002,-0.0009805900000000004,6.536,0,0
0.0025866894000000002,-0.0025598974,-0.003993518000000001,-0.0014251300000000001,-0.000176224,6.537,0,0
0.006312188600000001,-0.0019746810000000003,-0.007969588,-0.0026614000000000004,0.0017352399999999999,6.538,0,0
0.0102100486,-0.0005357560000000001,-0.012498148,-0.0049844780000000005,0.005780166,6.539,0,0
0.0142264426,0.0018875420000000003,-0.014810622,-0.007388204000000001,0.008165766000000001,6.54,0,0
0.016010578,0.005972874,-0.011240002,-0.007691904,0.008291462,6.541,0,0
0.013279136,0.008846036000000002,-0.005352522,-0.006273464,0.0069738086,6.542,0,0
0.008145862,0.00909948,0.0017130779999999998,-0.0037515000000000005,0.0043739506,6.543,0,0
0.0009838820000000002,0.007915422,0.009665538000000001,-0.0003468519999999999,0.0013298006000000001,6.544,0,0
-0.006784778,0.004931376000000001,0.015166600000000002,0.0033060620000000002,-0.0023260214000000003,6.545,0,0
-0.012953936,0.0008610920000000004,0.01885966,0.0067970800000000005,-0.005469569400000001,6.546,0,0
-0.017994894000000004,-0.0033090080000000004,0.02056102,0.008847104000000001,-0.00797711,6.547,0,0
-0.02073656,-0.006872466000000001,0.019456840000000003,0.00976262,-0.009722852,6.548,0,0
-0.020475080000000003,-0.01004271,0.015644314,0.010113608000000001,-0.01014049,6.549,0,0
-0.017540954,-0.011840704000000002,0.010405378000000002,0.009221452,-0.008911448,6.55,0,0
-0.012435132,-0.011778006,0.003585538,0.0064729340000000005,-0.0061610560000000016,6.551,0,0
-0.005087952,-0.010612496,-0.004147602,0.00280503,-0.0023637199999999997,6.552,0,0
0.0025815079999999997,-0.007856267,-0.010586622,-0.0009831440000000002,0.00143581,6.553,0,0
0.009262488,-0.003886155,-0.015404176000000002,-0.00500106,0.004496170000000001,6.554,0,0
0.015163642,2.4485000000000305e-05,-0.01863122,-0.008472808,0.0073947100000000005,6.555,0,0
0.01882908,0.003662891,-0.019226439999999997,-0.010603310000000001,0.009444798,6.556,0,0
0.01960598,0.007140901000000001,-0.016326906,-0.010870616000000001,0.00981438,6.557,0,0
0.017880089999999998,0.009307352000000001,-0.01183757,-0.009385398,0.008794162000000001,6.558,0,0
0.013925710600000002,0.009963304000000001,-0.006555693999999999,-0.0066973480000000005,0.0067485172,6.559,0,0
0.007479980600000002,0.009648336,0.0003138660000000003,-0.003051214000000001,0.0035237152000000002,6.56,0,0
7.620059999999956e-05,0.0077759684,0.007007826,0.001057126,-0.0004942648,6.561,0,0
-0.0067370994,0.0043066444,0.011333672000000001,0.004352494,-0.0039524868,6.562,0,0
-0.012449329399999999,0.0003346524000000003,0.014046316000000001,0.0065121300000000005,-0.0065083808000000005,6.563,0,0
-0.01620467,-0.0032970256,0.01548494,0.008040518,-0.008655108000000002,6.564,0,0
-0.01762198,-0.0063085016,0.014006574,0.008371688,-0.009859406000000001,6.565,0,0
-0.01639957,-0.008409566,0.0102334488,0.007405650000000001,-0.009595492,6.566,0,0
-0.013336615999999999,-0.00912156,0.0058704868,0.0059918324,-0.008275964,6.567,0,0
-0.008650758,-0.008386118,0.0007568727999999999,0.0040129624,-0.006079448,6.568,0,0
-0.0024630779999999996,-0.006639585000000002,-0.004919227200000001,0.0012177304000000003,-0.002741586,6.569,0,0
0.003904422,-0.003850393000000001,-0.0094234212,-0.0018148416,0.0009669660000000001,6.57,0,0
0.009506812,-0.0004051150000000004,-0.011952836000000001,-0.0046268436,0.004163654,6.571,0,0
0.013933078000000002,0.002993955,-0.013725574000000003,-0.006954144000000001,0.006691832,6.572,0,0
0.01635954,0.006204505,-0.014030880000000003,-0.008591408,0.007930028,6.573,0,0
0.015988600000000002,0.008813146000000001,-0.011397914000000002,-0.008961942,0.00802997,6.574,0,0
0.013612616000000001,0.009796058,-0.007325326000000001,-0.007705886000000001,0.007106894,6.575,0,0
0.009436740000000002,0.009391542000000001,-0.002912472,-0.005120764000000002,0.005185220999999999,6.576,0,0
0.003711052,0.008361602000000001,0.002491368,-0.0019930259999999997,0.002865149,6.577,0,0
-0.0018065879999999996,0.005783588000000001,0.007667168,0.0010168719999999998,0.0007521749999999999,6.578,0,0
-0.006249048,0.002441518,0.010652102,0.003749838,-0.0013709929999999998,6.579,0,0
-0.009671664,-0.0002472220000000002,0.012285754000000001,0.005446234,-0.0038111910000000002,6.58,0,0
-0.011962068000000001,-0.0026748960000000004,0.012509264,0.006252166000000001,-0.005454706,6.581,0,0
-0.01235704,-0.0050565820000000004,0.010487280000000002,0.006911860000000001,-0.0060132200000000005,6.582,0,0
-0.010993048000000002,-0.006563692,0.007326966000000001,0.006920282,-0.006002914000000001,6.583,0,0
-0.008573148000000001,-0.0069861540000000005,0.0038083600000000002,0.005965468000000001,-0.005282242,6.584,0,0
-0.00451932,-0.007007922000000001,-0.0005334600000000001,0.004207992000000001,-0.003159522,6.585,0,0
0.0004288600000000005,-0.00615053,-0.004882624,0.0019153840000000004,-0.00060352,6.586,0,0
0.004584400000000001,-0.004198604000000001,-0.007543920000000001,-0.0005677579999999998,0.0013907560000000002,6.587,0,0
0.008062308,-0.001817702,-0.009355646,-0.003014114,0.003382586,6.588,0,0
0.011033648000000002,0.0005685,-0.01056472,-0.005006848,0.005004782000000001,6.589,0,0
0.01197088,0.0031804800000000003,-0.00968486,-0.006209326,0.005904232000000001,6.59,0,0
0.011150416000000002,0.005502614,-0.007140935399999999,-0.006364768000000001,0.006055246000000001,6.591,0,0
0.009772466,0.006714108000000001,-0.004268373399999999,-0.005701368200000001,0.005337266,6.592,0,0
0.006633232,0.007079104000000001,-0.0006313334000000001,-0.004275546000000001,0.0037759300000000003,6.593,0,0
0.001816822,0.006421396000000001,0.0036585066,-0.0019408319999999998,0.0019018740000000002,6.594,0,0
-0.002685458,0.004341324000000001,0.006644054599999999,0.000453464,-1.249399999999983e-05,6.595,0,0
-0.006597674,0.0016258020000000004,0.008261392,0.002408126,-0.001940688,6.596,0,0
-0.010127044000000002,-0.0008331680000000003,0.009150014,0.0040275402000000005,-0.0034023359999999997,6.597,0,0
-0.011927670000000001,-0.0031123160000000004,0.008298858000000001,0.005195234,-0.004162404,6.598,0,0
-0.011691246,-0.005106096000000001,0.005867578,0.0054131760000000004,-0.004139272,6.599,0,0
-0.01013019,-0.006115390000000001,0.0031588840000000003,0.005040458000000001,-0.0035724828,6.6,0,0
-0.007609770000000001,-0.006244874,0.00016934199999999984,0.004239590600000001,-0.0026626030399999998,6.601,0,0
-0.0038679800000000005,-0.006024766,-0.0033342120000000005,0.0025025686000000004,-0.0010920710400000003,6.602,0,0
0.000307084,-0.0049133448,-0.006134776000000001,0.00032353860000000005,0.00083339896,6.603,0,0
0.0036776280000000005,-0.0027951968,-0.007681556000000001,-0.0020099214,0.00224445896,6.604,0,0
0.006403652000000001,-0.0005540927999999998,-0.008530576000000002,-0.0037536914,0.00343995176,6.605,0,0
0.008627772,0.0014317372,-0.008519696000000002,-0.004787198,0.004718476000000001,6.606,0,0
0.009391260000000002,0.0037235692,-0.0067543210000000015,-0.005362314,0.005041836000000001,6.607,0,0
0.00829279,0.005556814,-0.0036668490000000002,-0.004875196,0.00430932,6.608,0,0
0.006956082000000001,0.005780454000000001,-0.000393963,-0.0034192152000000003,0.0033308532000000004,6.609,0,0
0.004449552,0.005622992,0.003379483,-0.0014776932000000003,0.0017646372000000004,6.61,0,0
0.0005972720000000003,0.005096466000000001,0.006805823000000001,0.0006664828,-0.00019107679999999993,6.611,0,0
-0.00269839,0.0031447660000000002,0.008537066,0.0027249928,-0.0018801508,6.612,0,0
-0.005334454,0.0010742220000000003,0.009099632,0.0041116808,-0.0033128068,6.613,0,0
-0.007718044,-0.0004670379999999999,0.008697077999999999,0.004788358,-0.004481044,6.614,0,0
-0.008975554,-0.0024572540000000003,0.0067190520000000005,0.004887244000000001,-0.005120088,6.615,0,0
-0.00828982,-0.004145192,0.00392271,0.004075492,-0.004886258,6.616,0,0
-0.007102942,-0.004860120000000001,0.0013451760000000002,0.0026856496000000002,-0.004216648,6.617,0,0
-0.005177415,-0.005468580000000001,-0.001580272,0.0015433176000000002,-0.0030996680000000003,6.618,0,0
-0.0022671930000000002,-0.005253222,-0.004724724,9.73956e-05,-0.001513576,6.619,0,0
0.0009046090000000003,-0.00347018,-0.006772148,-0.0017460904000000002,-2.9019999999999936e-06,6.62,0,0
0.0037450050000000005,-0.001311722,-0.007810852,-0.0030066544000000002,0.0010382780000000001,6.621,0,0
0.006192489000000001,0.0006743780000000001,-0.008509832,-0.003857758,0.0018728,6.622,0,0
0.008145576000000002,0.002733398,-0.008066792,-0.0047068660000000005,0.0025099460000000003,6.623,0,0
0.008306046000000001,0.004346892000000001,-0.0058245154,-0.004879372000000001,0.002473952,6.624,0,0
0.007333114000000001,0.004654414000000001,-0.0033529573999999994,-0.004232146,0.002520378,6.625,0,0
0.005691550000000001,0.004091602000000001,-0.0008013354,-0.0034967788,0.00255702,6.626,0,0
0.0032771180000000003,0.0034686360000000006,0.0026417806,-0.0021032848000000007,0.001943254,6.627,0,0
0.0005315720000000001,0.0022655244000000002,0.0051672146,-0.00020588080000000014,0.0010461799999999999,6.628,0,0
-0.0017109800000000002,0.0005639724,0.006092712,0.0014693592,-2.5941999999999936e-05,6.629,0,0
-0.0034513100000000004,-0.0007166556,0.00658421,0.0029282232,-0.00165183,6.63,0,0
-0.005110590000000001,-0.0016624896,0.006531904,0.004170774,-0.003351516,6.631,0,0
-0.005744946000000001,-0.0027549536000000003,0.005004958,0.004703498,-0.00396779,6.632,0,0
-0.005415432,-0.0034938460000000005,0.003098486,0.004002518399999999,-0.0035041062000000004,6.633,0,0
-0.004952926000000001,-0.0035909320000000007,0.0014851459999999997,0.0030493104,-0.0025521745999999997,6.634,0,0
-0.0038504928,-0.003638080000000001,-0.0007710899999999999,0.0021768252,-0.0013187356000000001,6.635,0,0
-0.0013669248,-0.0035736180000000006,-0.003176032,0.0007071132,5.93383999999999e-05,6.636,0,0
0.0006841552000000003,-0.0028014906,-0.00444546,-0.0007884368,0.0009730224,6.637,0,0
0.0021015692000000002,-0.0013697245999999999,-0.004673760000000001,-0.0014418332,0.0013761505999999998,6.638,0,0
0.004154183200000001,6.13253999999999e-05,-0.004816702,-0.0022309652,0.002306155,6.639,0,0
0.005404754,0.0013306754,-0.0039845620000000005,-0.0031378000000000005,0.0034764179999999998,6.64,0,0
0.0050430380000000006,0.0025090874,-0.0022428179999999997,-0.0028214169999999997,0.00386135,6.641,0,0
0.004142214,0.003009086,-0.0009368760000000002,-0.002454469,0.0036669796,6.642,0,0
0.0026324300000000003,0.0025383824,0.00050108,-0.002402641,0.0030012462,6.643,0,0
-0.00010174200000000015,0.0015948464000000002,0.0025637380000000003,-0.0014220012,0.0016423942,6.644,0,0
-0.0027490760000000005,0.0002974903999999999,0.00395023,-0.0003047312,-0.00025604779999999997,6.645,0,0
-0.004354388000000001,-0.0009595756,0.0044655860000000006,0.00031767380000000003,-0.0018458298,6.646,0,0
-0.00534919,-0.0017544936000000002,0.004904614000000001,0.0010813158,-0.0027021754,6.647,0,0
-0.00577609,-0.0025084800000000004,0.004420562,0.0018211618,-0.003254182,6.648,0,0
-0.004612275000000001,-0.003317004,0.002848376,0.0018265968,-0.0032036480000000003,6.649,0,0
-0.0029718470000000006,-0.003314674,0.001281672,0.00155071,-0.0025585996000000006,6.65,0,0
-0.0020573930000000002,-0.002337484,0.0001042100000000002,0.001286166,-0.0016736240200000002,6.651,0,0
-0.0004243029999999999,-0.001631812,-0.001461142,0.0006940298000000001,-0.00047799202000000014,6.652,0,0
0.0015945430000000001,-0.0006381260000000001,-0.00299424,-4.004420000000005e-05,0.00062290798,6.653,0,0
0.002774438,0.0011059219999999999,-0.003628178,-0.00047303700000000005,0.0011373459799999999,6.654,0,0
0.0037169660000000004,0.002187244,-0.003977446000000001,-0.0009374142000000001,0.0016215295799999999,6.655,0,0
0.004885844,0.002664352,-0.0041068960000000005,-0.0019987642,0.002085278,6.656,0,0
0.005147238000000001,0.0033508319999999998,-0.0032400354,-0.0023898,0.0016616871999999999,6.657,0,0
0.004504012,0.00409645,-0.0016083154,-0.0017554203999999999,0.0010278372,6.658,0,0
0.0038432620000000005,0.004426784,-0.00021222340000000002,-0.0011567764000000001,0.0007534813200000001,6.659,0,0
0.0027460384000000003,0.00434718,0.0011887126,-0.0004992343999999998,0.00022263531999999994,6.66,0,0
0.0008577304,0.003608258,0.0027077186000000002,0.0006135176,-0.00051570868,6.661,0,0
-0.0007765896,0.002031624,0.00338572,0.0012874596000000001,-0.0007300258800000001,6.662,0,0
-0.0016556496000000001,0.000453244,0.0033605100000000006,0.0014718920000000003,-0.00071598788,6.663,0,0
-0.0025148736,-0.0009020020000000001,0.0034254400000000005,0.0017187959999999999,-0.001339926,6.664,0,0
-0.003102922,-0.002003836,0.0029862016,0.001688334,-0.00173387,6.665,0,0
-0.002703136,-0.0024882140000000003,0.0017275176000000002,0.001600442,-0.0014445645800000002,6.666,0,0
-0.0019636686,-0.0021831320000000004,0.0007866786000000001,0.001626428,-0.00121603058,6.667,0,0
-0.0014569106,-0.0017814728000000001,3.6060599999999964e-05,0.0014297569999999998,-0.0008059641800000001,6.668,0,0
-0.0006984866000000001,-0.0017065548000000004,-0.0014760874000000002,0.000688747,0.00011259181999999994,6.669,0,0
0.0001867694,-0.0010593712,-0.002631433,0.0002020110000000001,0.00085236182,6.67,0,0
0.0009015194000000001,-0.0005021458,-0.0029835270000000006,-0.00013086560000000002,0.0011553964,6.671,0,0
0.0015825820000000001,-0.00028176319999999994,-0.0038344240000000003,-0.0009831636000000002,0.0015213564,6.672,0,0
0.002356754,0.0003795236,-0.004596128,-0.0018975206000000004,0.0017745120000000002,6.673,0,0
0.00256434,0.0013186916,-0.0035634812,-0.0024626326000000004,0.001886974,6.674,0,0
0.0022929764,0.001866996,-0.0021423032,-0.0026721366000000005,0.001776198,6.675,0,0
0.0018586468,0.0021603486,-0.0014203044000000002,-0.0025648166200000003,0.0014189552,6.676,0,0
0.0008228568,0.002583562,0.0002470456,-0.0017984922199999998,0.0009517181999999999,6.677,0,0
-0.00044229919999999996,0.0019371986,0.0019888075999999998,-0.00075033222,0.00011291419999999994,6.678,0,0
-0.0013057752,0.0006893146000000002,0.0025571268,0.00016280458000000008,-0.0006037778000000001,6.679,0,0
-0.0019447416,-0.0002577914,0.0030865828000000003,0.0009302085800000001,-0.0008483278000000001,6.68,0,0
-0.0029526840000000006,-0.0012237953999999999,0.0038690380000000004,0.0014370372,-0.0010550610000000001,6.681,0,0
-0.0033995960000000004,-0.0022322254,0.0035975060000000003,0.0016133507999999998,-0.0011063958,6.682,0,0
-0.0032225220000000007,-0.002579064,0.002994366,0.0015687488000000003,-0.0008828828000000001,6.683,0,0
-0.0031699980000000003,-0.002223854,0.002630678,0.0016800620000000002,-0.0007704382000000001,6.684,0,0
-0.0024668358,-0.0022529560000000004,0.0012574,0.0015082392000000003,-0.0005797196000000001,6.685,0,0
-0.0009355338000000002,-0.001967646,-0.0004554699999999999,0.0007987184000000002,-2.3983600000000032e-05,6.686,0,0
2.403820000000011e-05,-0.001103834,-0.0013558659999999998,0.00022033840000000002,0.0005997682,6.687,0,0
0.0005267974,-0.000556257,-0.0019661899999999996,-4.998160000000001e-05,0.0012294692,6.688,0,0
0.0016079774000000002,-0.00025413979999999996,-0.003078578,-0.00042514880000000003,0.0018458406000000003,6.689,0,0
0.0021741992,0.0004203862,-0.003450744,-0.000772346,0.00211354,6.69,0,0
0.0019475812,0.0009405722,-0.0025558828,-0.0005102952,0.0022051600000000003,6.691,0,0
0.001918486,0.0012370901999999998,-0.0017654927999999999,-0.0002667072,0.0021463720000000006,6.692,0,0
0.0017996688,0.0017164172,-0.0011853378000000003,-0.0003987302,0.0017261584000000001,6.693,0,0
0.0007595068000000001,0.001872766,-3.0227800000000077e-05,-0.00013621179999999996,0.0009069104000000001,6.694,0,0
-0.00034586119999999995,0.001811956,0.0010565262,0.00045741620000000005,-3.939599999999938e-06,6.695,0,0
-0.0009224612000000001,0.001496366,0.001284173,0.0006660082,-0.0007645216,6.696,0,0
-0.001696642,0.0011392528,0.001779279,0.0008913802,-0.0014712256,6.697,0,0
-0.002368358,0.0007335708000000001,0.002203888,0.0014921892,-0.001868608,6.698,0,0
-0.0021928618,0.0002542368000000001,0.0016251260000000002,0.001484176,-0.0017013440000000003,6.699,0,0
-0.0017354430000000001,8.521280000000001e-05,0.0015529819999999998,0.000831306,-0.0015746040000000003,6.7,0,0
-0.0016683790000000002,0.00010910458000000002,0.0018609260000000002,0.0006181833999999999,-0.001881822,6.701,0,0
-0.0009212923999999998,-0.00029114622000000004,0.0012428926000000002,0.0006704814,-0.001990276,6.702,0,0
0.0002901176000000001,-0.00048898702,0.0006385344,8.694399999999999e-05,-0.0017221626000000002,6.703,0,0
0.0007864374000000002,3.930098000000002e-05,0.0005400024000000001,-0.00038395800000000005,-0.0013807124,6.704,0,0
0.0012343306000000003,0.00025239498000000006,-0.00028057360000000004,-0.00020132340000000005,-0.0010072727999999999,6.705,0,0
0.0019658186,0.00021910320000000005,-0.0018244296000000002,-0.00020892620000000008,-0.00035934879999999995,6.706,0,0
0.002197424,0.00032296440000000005,-0.0028098702000000004,-0.0003228276,-1.7844999999999976e-05,6.707,0,0
0.001741148,0.00031930500000000014,-0.0033718280000000003,0.00021412579999999996,-0.0002190204,6.708,0,0
0.0015412846,-0.00013464280000000003,-0.003794972,0.0008468878,-0.0005828486000000001,6.709,0,0
0.0013469468000000002,-0.00031606340000000003,-0.0032829718000000007,0.0011053426,-0.0010242262000000001,6.71,0,0
0.0006254948000000001,-0.0001413816,-0.0020531818000000005,0.0013446100000000002,-0.0012137462000000002,6.711,0,0
0.0004887008,-0.00041409080000000004,-0.001392632,0.0010187211999999998,-0.0007908660000000001,6.712,0,0
0.0008532328,-0.0006825066,-0.0008665304,0.00011756119999999993,-2.606599999999999e-05,6.713,0,0
0.000868747,-0.0005768212,0.00022579160000000002,-0.0005317087999999999,0.000549418,6.714,0,0
0.0007502098,-0.0007402718,0.0005987174,-0.0009980622000000001,0.0011302188,6.715,0,0
0.0009989922399999999,-0.0011521136,0.0005395918000000001,-0.0014928462,0.0016173168,6.716,0,0
0.0006537020400000001,-0.0007407595000000001,0.001229914,-0.0014544459999999999,0.0016683508,6.717,0,0
-0.00016713196,-0.0002495993,0.0017431384,-0.00120503,0.0014027888000000001,6.718,0,0
-0.00021110576,-0.0002525503,0.0014190722,-0.00122796,0.0013001008000000003,6.719,0,0
-0.00028169206000000003,5.5325000000000084e-06,0.0012683912,-0.0013221399999999999,0.001348302,6.72,0,0
-0.00038869290000000003,6.974749999999998e-05,0.0012431868,-0.00144728,0.0010443607999999999,6.721,0,0
-8.001269999999999e-05,-0.00042886460000000003,0.0005454864000000001,-0.0012810032,0.00022756079999999997,6.722,0,0
0.00024826044,-0.0010124268000000001,-8.785960000000002e-05,-0.0009225386,-0.0006481032,6.723,0,0
7.323504000000002e-05,-0.0012110894,-9.010724000000005e-05,-0.0003495786000000001,-0.0015093852,6.724,0,0
-4.8306059999999985e-05,-0.0014657076000000001,-0.00044407624,0.00025957939999999994,-0.0022129252,6.725,0,0
0.00016758534,-0.0016556006,-0.0011402122400000002,9.250739999999995e-05,-0.0021840933000000003,6.726,0,0
-0.00012269145999999997,-0.0011432839999999998,-0.00095155584,-0.0005037914000000001,-0.0012883153,6.727,0,0
3.516340000000003e-05,-0.0009255493999999999,-0.00074103844,-0.0007259836000000001,-0.0001429792999999999,6.728,0,0
0.0006127878000000001,-0.0010477654000000001,-0.0011813046,-0.0009795732000000001,0.0007202447000000001,6.729,0,0
0.0007173622000000001,-0.0007240171999999999,-0.0009788076,-0.0009719991999999999,0.0013861259,6.73,0,0
0.0006776196000000001,-0.000282454,-0.00013185760000000002,-8.10392000000001e-05,0.0010451992,6.731,0,0
0.0007576022600000001,-0.0003142916900000001,0.00011708840000000003,0.0005280592000000001,0.0004061134,6.732,0,0
0.0008638242600000001,2.8832909999999994e-05,9.179320000000001e-05,0.0006046548,0.00021688939999999992,6.733,0,0
0.00031908366,0.00046024331000000005,0.0009190912,0.0007075402000000001,1.4740399999999958e-05,6.734,0,0
-9.210234000000004e-05,-4.833029e-05,0.0016832582,0.0005495224,0.00017341919999999995,6.735,0,0
-9.154454e-05,-0.00012289548999999997,0.0015664122,0.00011380140000000005,0.0007851552,6.736,0,0
-0.0007681923999999999,0.00014453960000000005,0.0018060802,0.00011538620000000002,0.0007677771999999999,6.737,0,0
-0.0017740384,0.00022651240000000006,0.002470494,0.000308052,0.0001118092,6.738,0,0
-0.0019165923999999999,0.0004644260000000001,0.002305438,0.00023204420000000003,-0.00019785779999999996,6.739,0,0
-0.0018972924,0.0010417680000000002,0.001790666,0.0002092692,-0.0008522898,6.74,0,0
-0.0025102125999999997,0.001405288,0.0016766644,0.0004308504,-0.0013791218000000001,6.741,0,0
-0.0017438984,0.0010897274,0.0008839524,0.0007662512,-0.0013807766,6.742,0,0
-0.0007274644000000001,0.0009376558,-0.00020882360000000006,0.0009553874,-0.0014647726000000002,6.743,0,0
-0.0010418698000000002,0.0009443558000000001,-0.0005229662,0.0013185534,-0.0016036086,6.744,0,0
-0.0007309286,0.0005094127999999999,-0.0009790722000000002,0.0011609088,-0.0015222626000000001,6.745,0,0
0.00039266539999999997,5.530560000000003e-05,-0.0016295746000000002,0.0005217306000000002,-0.0012214137999999998,6.746,0,0
0.0008471631999999999,0.00031642220000000003,-0.0015702906000000002,5.770099999999998e-05,-0.0008972103999999999,6.747,0,0
0.0009279671999999999,0.00029242540000000005,-0.0010489966000000002,-0.0004511557999999999,-0.00020666439999999993,6.748,0,0
0.0016265951999999998,6.877260000000003e-05,-0.0009551687400000001,-0.0009879762,0.0005932016,6.749,0,0
0.001998284,0.0007205876000000001,-0.0006228765400000001,-0.0010663984,0.0009266812,6.75,0,0
0.0015209068,0.0013583348,0.00037027146000000004,-0.0005050826,0.0010999984000000002,6.751,0,0
0.0008494114000000001,0.0014250227999999998,0.00069901146,-0.000215175,0.0015180876000000002,6.752,0,0
0.00039497159999999997,0.0015169481999999998,0.00034187146,-0.00023351300000000003,0.0015449536000000002,6.753,0,0
-0.00016003240000000003,0.0015187026,0.000448052,-8.40634e-05,0.0011357676,6.754,0,0
-0.0009077983999999999,0.0008798872000000001,0.0006221078000000001,0.0002692232,0.0006214640000000003,6.755,0,0
-0.0014235132,0.00024105680000000002,0.00021949039999999997,0.0005397234,-7.127999999999995e-05,6.756,0,0
-0.0021167758,0.00018495680000000007,0.0002460214,0.0006446254,-0.0010169620000000002,6.757,0,0
-0.0030779220000000003,2.2295800000000008e-05,0.00056262354,0.0008856098,-0.001660694,6.758,0,0
-0.0034416240000000003,-0.00045624780000000007,-2.045426000000009e-05,0.0011916746,-0.0016932248000000002,6.759,0,0
-0.0033791640000000005,-0.00032467460000000004,-0.00054975426,0.0010908644000000001,-0.0015439728,6.76,0,0
-0.003294068,-6.307480000000001e-05,-0.0004669374600000001,0.0006111688000000001,-0.0010844208,6.761,0,0
-0.002226898,-0.0005758328,-0.00115303646,0.00040688720000000005,-0.0005962224000000001,6.762,0,0
-0.000665522,-0.000729328,-0.0019865546,9.268960000000001e-05,-0.00018734020000000002,6.763,0,0
0.00029823199999999995,-0.00018050260000000002,-0.0018143686000000002,-0.0006939924000000001,0.0004278006000000001,6.764,0,0
0.0013552220000000001,0.00023671560000000007,-0.0016678814,-0.0011603832000000001,0.0014239126,6.765,0,0
0.002548012,0.0001869638,-0.0020255568000000002,-0.0016425456000000002,0.0021110786000000004,6.766,0,0
0.0028596620000000002,0.00015586980000000005,-0.0014116456000000002,-0.002343912,0.0024036242,6.767,0,0
0.0028425300000000002,0.000446042,-0.0003345936,-0.002355828,0.00282324,6.768,0,0
0.003061126,0.0005219426,-4.285359999999997e-05,-0.002042164,0.00288527,6.769,0,0
0.0027189280000000007,0.00031492240000000006,0.0007144972000000001,-0.001940872,0.0025850660000000004,6.77,0,0
0.0018133634,9.031480000000005e-05,0.0019235292,-0.0012728686000000001,0.0019646758,6.771,0,0
0.0009158654,-0.00010512519999999993,0.002508858,-0.00010694859999999993,0.0014769210000000002,6.772,0,0
0.00017673139999999993,-0.0009640062,0.002839616,0.0005862714,0.0008673418,6.773,0,0
-0.0007832926000000001,-0.0020827522000000003,0.0036522580000000002,0.0011901614,-0.0004526882000000001,6.774,0,0
-0.0015250446000000001,-0.003027566,0.0036978660000000006,0.0020662754,-0.0017127322000000003,6.775,0,0
-0.0014570094,-0.003741912,0.0029135806000000005,0.0024819480000000003,-0.002415092,6.776,0,0
-0.0014212774,-0.003828992,0.0023490486000000005,0.0022211960000000004,-0.0028399112,6.777,0,0
-0.0014856154000000002,-0.0036937579999999997,0.0013206306000000004,0.00198459,-0.002897422,6.778,0,0
-0.0007808614,-0.0035151600000000002,-0.0004857373999999999,0.0014009272000000002,-0.0021897833200000003,6.779,0,0
0.00024522460000000004,-0.00306022,-0.0021936354000000003,0.0002585212,-0.00118387452,6.78,0,0
0.0009109620000000001,-0.0019012439999999999,-0.00314225,-0.0006459928,-0.00017692652000000003,6.781,0,0
0.001943558,-0.0007582919999999999,-0.004362356,-0.0012548668000000002,0.0007999174800000001,6.782,0,0
0.003311642,0.000503154,-0.005104356,-0.0016751488,0.00146819548,6.783,0,0
0.0036934700000000003,0.0024445680000000003,-0.004330442,-0.0016676502000000002,0.0017591028,6.784,0,0
0.0032459104000000004,0.0038137500000000003,-0.0034091430000000003,-0.0012985364,0.0019337900000000001,6.785,0,0
0.0028274204000000003,0.00399646,-0.0026877812000000003,-0.0010987944,0.0019856960000000003,6.786,0,0
0.001960793,0.00405557,-0.0007057152000000004,-0.0006153166000000001,0.0016308300000000002,6.787,0,0
0.000393019,0.003691726,0.0016435388,0.00018188539999999998,0.0011349450000000003,6.788,0,0
-0.0008151870000000002,0.0023726182,0.0026070548000000004,0.0006927976,0.0007208494,6.789,0,0
-0.0017248494000000002,0.0015950402000000001,0.0035831478,0.0012890418,0.0001024194000000001,6.79,0,0
-0.0029725074000000002,0.0013005062,0.004830776,0.0020513098,-0.0006162086,6.791,0,0
-0.00349621,0.0004268122,0.004730946000000001,0.002169594,-0.0009037224000000001,6.792,0,0
-0.0034797540000000003,-0.00043626179999999996,0.003905814,0.0014208647999999998,-0.0011616554,6.793,0,0
-0.0036015860000000004,-0.0004000429999999999,0.0033290528,0.0011546964,-0.0015461678000000003,6.794,0,0
-0.0030316256000000007,-0.0005537809999999999,0.0018346868000000001,0.0009090069999999999,-0.0015215318000000003,6.795,0,0
-0.0016773556000000004,-0.001174549,-0.00020895320000000018,-0.0002816070000000001,-0.0010436348000000002,6.796,0,0
-0.0006946676000000003,-0.0009779894,-0.0016704991999999998,-0.0010752530000000002,-0.0004971610000000001,6.797,0,0
-0.00014171620000000002,-0.0001130614,-0.0030080491999999997,-0.0011760758000000002,9.266899999999998e-05,6.798,0,0
0.0009870498,0.0004310816000000001,-0.004524660000000001,-0.0015471174000000003,0.001239833,6.799,0,0
0.0018287614,0.0010801036000000002,-0.005033878,-0.0018912080000000003,0.0021493170000000004,6.8,0,0
0.0015300154000000002,0.0022096696000000002,-0.0042946518,-0.0012761308000000002,0.0023623200000000002,6.801,0,0
0.0011847154,0.0027479220000000003,-0.0034991294000000003,-0.0007402444000000002,0.002458226,6.802,0,0
0.0012917036000000002,0.0027376940000000006,-0.0024028022000000004,-0.0004791704000000001,0.0022622892000000003,6.803,0,0
0.0006177176,0.0023740370000000003,-0.0004804322,0.00033375760000000005,0.0014385478000000001,6.804,0,0
-0.00036900840000000007,0.0015211578000000003,0.0013666678,0.0010764016,0.0005347018000000001,6.805,0,0
-0.0004831936000000001,0.0007238136000000001,0.0022081176,0.0012615394000000002,0.0002702282,6.806,0,0
-0.0009190656000000001,0.000454949,0.0030019792,0.0012186715000000003,-0.00023603320000000004,6.807,0,0
-0.0019209552000000003,0.0002121906,0.003625798,0.0014752775000000003,-0.0008795224000000001,6.808,0,0
-0.0020724492,-0.0004939504,0.0034129600000000005,0.0013362515,-0.0010909630000000001,6.809,0,0
-0.0022121852000000003,-0.0011296532,0.0030460760000000004,0.0009758839000000002,-0.0014502390000000003,6.81,0,0
-0.0028358580000000006,-0.0014724669999999999,0.0023965042,0.0010496309,-0.0018188674000000002,6.811,0,0
-0.002043538,-0.0021617984,0.0012212882,0.0007866544000000002,-0.0015603260000000003,6.812,0,0
-0.00024604,-0.0029115800000000004,-2.6105800000000064e-05,9.737440000000003e-05,-0.0008921310000000001,6.813,0,0
0.0011809860000000002,-0.0026572980000000006,-0.0012104918000000002,-0.0004584395999999999,-0.00043167819999999997,6.814,0,0
0.002619436,-0.0019155088,-0.0025441198000000003,-0.001126588,0.00024343920000000004,6.815,0,0
0.004575524,-0.0012878688,-0.0035419180000000002,-0.0019594440000000003,0.0006331386000000001,6.816,0,0
0.005454934,-0.00041816480000000006,-0.0036986600000000003,-0.002257414,0.00043293708000000005,6.817,0,0
0.004914946000000001,0.0004305292,-0.0031361534,-0.0019305512000000003,4.230808000000002e-05,6.818,0,0
0.004667574000000001,0.000704631,-0.0022757774,-0.0015835270000000002,-0.00053632272,6.819,0,0
0.0038762358000000007,0.0007033436,-0.0007377614,-0.0012366342000000002,-0.0011549481200000002,6.82,0,0
0.0018252718000000001,0.0002957677999999999,0.0012152706000000003,-0.0006752122000000002,-0.00179214752,6.821,0,0
-7.783219999999997e-05,-0.0007246102,0.0024270726000000004,-0.0001964164,-0.0019884726000000004,6.822,0,0
-0.0012646342000000002,-0.0015831261999999999,0.0033058560000000002,-0.0001822692,-0.0016991805799999999,6.823,0,0
-0.0029062522000000003,-0.002009696,0.00411667,-0.0002098982,-0.0014971105800000001,6.824,0,0
-0.004145348,-0.0025509358,0.003985354,0.00018320100000000002,-0.00146609658,6.825,0,0
-0.0038985900000000004,-0.00307261,0.0029247540000000003,0.00016249400000000003,-0.00126416858,6.826,0,0
-0.0036409500000000004,-0.0028109759999999998,0.0021180816,0.0003880530000000001,-0.00157344198,6.827,0,0
-0.003389988,-0.0021505508000000005,0.0008429275999999999,0.0010141870000000002,-0.001797598,6.828,0,0
-0.0022676720000000005,-0.0014355088000000001,-0.0013237984,0.0009337966000000001,-0.0009495480000000001,6.829,0,0
-0.0007122980000000001,-0.0003540988000000001,-0.0028558144,0.000733914,-7.4616e-05,6.83,0,0
0.00044417999999999997,0.0008990971999999999,-0.0035702524000000005,0.0008308232,0.000758836,6.831,0,0
0.0018075180000000001,0.0016536792,-0.004319842000000001,0.0006947992,0.002177014,6.832,0,0
0.003212142,0.0018860008000000001,-0.00465023,0.00038266320000000006,0.003069372,6.833,0,0
0.003300856,0.0018628807999999998,-0.0034858878000000003,0.00045590400000000003,0.0025864142,6.834,0,0
0.0028947672,0.0014983384,-0.0022676804000000004,0.0004389046000000001,0.002173623000000001,6.835,0,0
0.0022626104,0.0013087404,-0.0016385314,0.0003113534000000001,0.001793426,6.836,0,0
0.0008340783999999998,0.0013346584,-0.0004025154,0.00021305880000000005,0.0009374490000000001,6.837,0,0
-0.0004504776,0.0011742741,0.0009444206000000001,0.0002685968,0.00021397780000000004,6.838,0,0
-0.0008658592,0.0009768293000000001,0.0014841484000000002,0.00042666920000000003,-0.0003751583999999999,6.839,0,0
-0.0013735804,0.0008741121000000001,0.0018796470000000001,0.0004296552,-0.0012195131999999998,6.84,0,0
-0.0021471976,0.0005368220400000001,0.002602096,0.0008935822,-0.0020341442,6.841,0,0
-0.0021529956,-0.00013351996000000006,0.0025057960000000002,0.001125361,-0.0021627822,6.842,0,0
-0.0019767856,-0.0003585164600000001,0.0018523460000000002,0.000543085,-0.0022337223999999998,6.843,0,0
-0.0018281332000000003,-0.0004980004600000001,0.0014969554,0.00020908780000000003,-0.0022568244,6.844,0,0
-0.0010442192000000002,-0.00123250286,0.0006034894000000002,0.00026067680000000005,-0.0017842124,6.845,0,0
6.786879999999996e-05,-0.0015781048000000002,-0.0008404666000000002,-0.00018478160000000006,-0.0012955192,6.846,0,0
0.0009272907999999999,-0.0010514508,-0.0017967586,-0.0004566516000000001,-0.0010537365999999998,6.847,0,0
0.0015057708,-0.0004350148000000001,-0.0021353766000000007,-0.0003613536,-0.00039471919999999993,6.848,0,0
0.001879368,0.000114898,-0.002524614,-0.0007453064,0.0006605628000000001,6.849,0,0
0.00198254,0.001176548,-0.0021747152,-0.0012433074,0.0016929408000000003,6.85,0,0
0.001994562,0.0018921580000000001,-0.0007502852000000001,-0.001602331,0.0025813236,6.851,0,0
0.001937336,0.0016901474000000003,-1.6238400000000017e-05,-0.001696886,0.002836232,6.852,0,0
0.001556476,0.0013318906,0.00035496680000000007,-0.0014253632,0.0026152760000000006,6.853,0,0
0.000722044,0.0011016646000000002,0.0013223748000000001,-0.0006349712,0.0022608344,6.854,0,0
-8.031199999999992e-05,0.0007871186,0.0020203620000000004,0.0003165428,0.0016746608,6.855,0,0
-0.000754226,0.00035633440000000006,0.0019776620000000003,0.0011420228,0.0012626927999999998,6.856,0,0
-0.0015142380000000002,2.5779000000000025e-05,0.0023538152000000005,0.0018570088000000001,0.0010842028,6.857,0,0
-0.0018935,-0.0004023642,0.002864282,0.002113182,0.0006296022,6.858,0,0
-0.0013874748,-0.0009124382,0.002012658,0.0018331274,0.0004070257999999999,6.859,0,0
-0.0004592988000000001,-0.0011507528,0.0008288960000000003,0.0010068994000000003,-9.87460000000009e-06,6.86,0,0
0.00013914319999999995,-0.001119489,0.0003365581999999999,0.0004639332,-0.0010159506000000003,6.861,0,0
0.0009962892,-0.000978436,-0.0003519433999999999,-2.2407179999999922e-05,-0.0015236746000000002,6.862,0,0
0.0020685072,-0.000289402,-0.0016043633999999998,-0.0009012291800000001,-0.0011823180000000001,6.863,0,0
0.00228392,0.000749506,-0.0017895874,-0.0013992225800000002,-0.000648678,6.864,0,0
0.0019350500000000002,0.0013730686,-0.0011775024000000001,-0.0013803105800000003,-8.064819999999999e-05,6.865,0,0
0.0020587260000000003,0.0018060090000000001,-0.0014322594,-0.0018474743800000002,0.0009588078,6.866,0,0
0.0018318740000000003,0.0025873700000000003,-0.0013009623999999998,-0.00247971,0.0017852918000000003,6.867,0,0
0.000560538,0.0027316780000000004,4.331599999999984e-06,-0.0017496700000000003,0.0016406588000000002,6.868,0,0
-0.00044668400000000014,0.0020312176000000003,0.0008404936000000001,-0.0009965199999999999,0.0012030752000000001,6.869,0,0
-0.0012601360000000002,0.0017522836,0.0012370786000000002,-0.0007776073999999998,0.000985861,6.87,0,0
-0.00264904,0.0011974728000000003,0.0022623154,0.00021185660000000008,0.00045017540000000006,6.871,0,0
-0.0038248680000000004,0.0003091268,0.0027083520000000007,0.0012038786,-0.00021626140000000006,6.872,0,0
-0.0039586180000000006,-0.0003679872,0.0023690840000000005,0.0012907746,-0.00043461300000000003,6.873,0,0
-0.003974496,-0.0010016328,0.0023571620000000003,0.0012872226000000002,-0.0006975374000000001,6.874,0,0
-0.004087062,-0.0019042788000000002,0.0016542800000000002,0.0013194699999999999,-0.0011322430000000002,6.875,0,0
-0.0031438718,-0.002891128,0.000121488,0.0008145046,-0.0011736194,6.876,0,0
-0.0017643158000000003,-0.0033195060000000003,-0.0008555,0.0003438618,-0.0010923826,6.877,0,0
-0.0005972917999999999,-0.003544612,-0.001767246,0.0002901228,-0.001291,6.878,0,0
0.0008866222,-0.003595816,-0.0030961020000000003,-4.0525199999999996e-05,-0.0011043116000000002,6.879,0,0
0.0022756102,-0.0030114482,-0.003804244,-0.0007949252000000001,-0.00037516759999999986,6.88,0,0
0.002463959,-0.0016404462,-0.003386742,-0.0011954758,3.912260000000009e-05,6.881,0,0
0.002209828,-0.0006155042000000001,-0.003073614,-0.001380385,0.0005791446000000001,6.882,0,0
0.002213412,-9.852220000000014e-05,-0.002896694,-0.0018545480000000001,0.0013876146000000001,6.883,0,0
0.0015295554,0.0009591518000000002,-0.0016014860000000005,-0.0017660961999999998,0.0014906540000000001,6.884,0,0
0.0006751131999999999,0.001794154,-0.00018903400000000014,-0.0006359701999999999,0.0012534562000000003,6.885,0,0
0.00029687019999999993,0.0017520588,0.0002015914,0.00016629580000000012,0.0007866600000000002,6.886,0,0
-0.00031862480000000005,0.0015358744,0.0009173934000000001,0.0006396644,-0.00023744,6.887,0,0
-0.0014391368,0.0012992604,0.0020785414,0.0014326204,-0.0009981820000000002,6.888,0,0
-0.0023039382000000002,0.0006848963999999999,0.0021171414,0.0017683586000000002,-0.0010766880000000001,6.889,0,0
-0.0025646060000000005,0.0001856444,0.0018554073999999998,0.001572684,-0.0013393002000000002,6.89,0,0
-0.0028163140000000003,0.0001445962,0.0020874220000000002,0.0013862224,-0.0016415702000000003,6.891,0,0
-0.0027891360000000002,1.442810000000001e-05,0.0018506954,0.0013592578,-0.0012298612000000001,6.892,0,0
-0.0019903468000000003,-7.312589999999998e-05,0.0008495894000000001,0.0007464686000000001,-0.0008417898000000001,6.893,0,0
-0.0011983181600000003,0.00010641730000000004,1.0885400000000003e-05,-3.9609399999999994e-05,-0.0010215156,6.894,0,0
-0.00085880736,0.0001100133,-0.0007943706,-0.0001951872,-0.0008563320000000001,6.895,0,0
0.0002024686399999999,0.00010288149999999996,-0.0018856506000000002,-0.0006183776,-6.732000000000016e-06,6.896,0,0
0.00161092864,0.00025887800000000004,-0.0024731099999999997,-0.0011741136,0.0002401042,6.897,0,0
0.00209346144,0.000881154,-0.0024147260000000003,-0.0011894336,-3.77214e-05,6.898,0,0
0.0027054328,0.0012737048,-0.002219418,-0.0012684456,0.0001438356,6.899,0,0
0.0033359120000000008,0.0009824752,-0.0017825902,-0.0017867471999999998,0.00023307764000000006,6.9,0,0
0.0027088734,0.0011176264000000002,-0.0005215142000000001,-0.0017855091999999999,-0.00037763836,6.901,0,0
0.0014213654,0.0012406504,0.0005783938,-0.0010959192,-0.00082394556,6.902,0,0
0.00036785740000000016,0.0008241468,0.0011072998,-0.000143908,-0.0008194903600000001,6.903,0,0
-0.0006917046,0.00022739479999999993,0.0020118638000000003,0.000863402,-0.0013126833600000001,6.904,0,0
-0.0017120106000000001,-0.00035650359999999997,0.0027762660000000003,0.0017232979999999998,-0.0014587900000000002,6.905,0,0
-0.0022191800000000003,-0.0011485096,0.0023987800000000005,0.0025563499999999998,-0.0006331940000000001,6.906,0,0
-0.0022575240000000003,-0.0018041976,0.0019548840000000005,0.002618304,-0.00011844400000000005,6.907,0,0
-0.002081944,-0.0021827780000000002,0.0021563380000000003,0.0019124958,-6.829960000000003e-05,6.908,0,0
-0.0016012440000000004,-0.0027101200000000003,0.0015428748000000001,0.0013798030000000002,0.0001994104000000001,6.909,0,0
-0.0007662220000000002,-0.00238739,0.0004920848000000001,0.0008836476,-0.00010490659999999987,6.91,0,0
-2.1372000000000025e-05,-0.0014671800000000002,2.562800000000063e-06,0.00010140960000000005,-0.0008518866,6.911,0,0
0.0009672400000000001,-0.0009261688000000002,-0.0007534871999999999,-0.00044878180000000004,-0.0010410228,6.912,0,0
0.0023473160000000003,-0.00028141479999999996,-0.0017389951999999998,-0.0010797336,-0.0006831762,6.913,0,0
0.003297678,0.0008721152,-0.0019562328,-0.0019585028000000003,4.229980000000004e-05,6.914,0,0
0.0035932119999999997,0.0018002792000000002,-0.0016517862,-0.0025251194000000003,0.0009566638,6.915,0,0
0.003998748,0.0020514332,-0.0016210802,-0.0027615154,0.0018090778,6.916,0,0
0.0037877299999999996,0.002240458,-0.000943479,-0.002592074,0.0019248756,6.917,0,0
0.002454286,0.002260106,0.0003151050000000001,-0.0017614040000000003,0.0016559008000000001,6.918,0,0
0.0014340784,0.0020455169999999997,0.0005043074400000001,-0.0004459960000000001,0.0012387250000000002,6.919,0,0
0.0006434030000000001,0.00144690956,0.0009314848400000001,0.0007083200000000001,0.0005906092,6.92,0,0
-0.000494131,0.0005873609600000001,0.00223558084,0.001911146,-7.796100000000002e-05,6.921,0,0
-0.001417087,-0.00014068704000000002,0.00260087364,0.00271964,-0.0002984778,6.922,0,0
-0.0016695210000000002,-0.00077707304,0.0021691656400000003,0.0025200208000000007,-0.00016225879999999998,6.923,0,0
-0.0020369954,-0.0012297580400000001,0.0021108204000000004,0.0020549966620000003,-0.000463133,6.924,0,0
-0.002551556,-0.0015777806000000002,0.0016547272000000002,0.0021404386620000005,-0.0008139892,6.925,0,0
-0.0021435506000000003,-0.0015672082000000001,0.00016764920000000003,0.002002624662,-0.001158973,6.926,0,0
-0.0012670846000000001,-0.0012284344000000002,-0.0009279708,0.001236397262,-0.0013574158000000001,6.927,0,0
-0.0007132922000000001,-0.0005744524000000001,-0.0016000748,0.001053554262,-0.0011165980000000001,6.928,0,0
0.0002201957999999999,-6.857440000000012e-05,-0.0024073512000000004,0.0008139144000000001,-0.00024321800000000001,6.929,0,0
0.0015920038,0.00010442660000000001,-0.00292946,-0.0003200776,0.001004422,6.93,0,0
0.0021971764,0.00037751340000000003,-0.002575636,-0.0012247856,0.0021943600000000002,6.931,0,0
0.0022499104,0.0006369236000000001,-0.002080419,-0.0014559742,0.00301056,6.932,0,0
0.002401804,0.0006466056000000001,-0.0018663674000000002,-0.0018098979999999999,0.00288997,6.933,0,0
0.001851932,0.0007122336,-0.0007150534000000004,-0.001802676,0.0023395624,6.934,0,0
0.001019404,0.0012985266000000001,0.0004889085999999999,-0.0012387736,0.0018872384000000002,6.935,0,0
0.0006159886,0.0015605900000000002,0.0009054886000000001,-0.0007281048000000001,0.0013685824000000003,6.936,0,0
-0.00019117940000000004,0.0014600566000000001,0.0016175076,-1.8558800000000064e-05,0.00044676039999999996,6.937,0,0
-0.0011316614,0.0011358072,0.0025657659999999997,0.0010247532,-0.0002647376,6.938,0,0
-0.0015884334000000001,0.00040584119999999995,0.002641518,0.0017054592000000002,-0.0006476180000000001,6.939,0,0
-0.0018110234,-0.00033212480000000005,0.002331846,0.0020050728,-0.0014824780000000002,6.94,0,0
-0.002393182,-0.0008537778000000001,0.0020348398,0.002398756,-0.0020968,6.941,0,0
-0.002552186,-0.0013256764,0.0008872897999999999,0.0020913462,-0.0018559672,6.942,0,0
-0.0018240106200000004,-0.0015698090000000001,-0.0007113882000000001,0.0012875646,-0.0013854018,6.943,0,0
-0.00133756422,-0.001207187,-0.0015661782,0.0005599806000000001,-0.001130823,6.944,0,0
-0.00100232924,-0.0013589770000000001,-0.0021909102,-0.0003586054000000001,-0.0005382986000000001,6.945,0,0
0.00026049275999999997,-0.0016313060000000001,-0.003145564,-0.0012906354000000002,-1.0984800000000017e-05,6.946,0,0
0.00185654476,-0.00127539036,-0.003397142,-0.0018845056,8.79524e-05,6.947,0,0
0.00242924338,-0.0008604743599999999,-0.002896372,-0.0023959660000000002,0.000371679,6.948,0,0
0.0029468169800000005,-0.00040650636,-0.0027965740000000005,-0.002711424,0.0007950542,6.949,0,0
0.0034375440000000003,0.00021158604000000002,-0.0024429715999999997,-0.0026774800000000003,0.0014238358,6.95,0,0
0.0027235244000000003,0.0008276614400000001,-0.0009737976,-0.0026333980000000003,0.0020175440000000005,6.951,0,0
0.0014692924,0.0008278248000000001,0.00024337240000000008,-0.0023068674,0.002236174,6.952,0,0
0.0005582504000000001,0.0007657384000000001,0.0011109864000000001,-0.0017910808,0.0016548420000000001,6.953,0,0
-0.0004815235999999999,0.0007815484000000001,0.0024878604,-0.0013522816,0.0008459580000000002,6.954,0,0
-0.0014703356,0.000420276,0.003570974,-0.0006110716000000001,-0.00010957400000000003,6.955,0,0
-0.0018713339999999999,-3.077339999999997e-05,0.0035978060000000003,0.0002190284,-0.001644732,6.956,0,0
-0.0022412860000000003,-0.00031618839999999994,0.0035215820000000005,0.0004742114,-0.0026326760000000005,6.957,0,0
-0.002382686,-0.00059495,0.0034781360000000006,0.0008622668,-0.0028094540000000003,6.958,0,0
-0.0018332160000000001,-0.001204558,0.0022845396,0.0013026615999999999,-0.00276048,6.959,0,0
-0.001011366,-0.00122881,0.0006642516000000001,0.000988046,-0.0025979462,6.96,0,0
-0.0006148255999999999,-0.00094459456,-0.00018718640000000008,0.0005471044,-0.0015611162,6.961,0,0
8.14318e-05,-0.0010567845600000002,-0.0010518063999999999,0.00046111980000000007,-9.871019999999997e-05,6.962,0,0
0.0009735998000000001,-0.00087483996,-0.0022144904,4.891960000000001e-05,0.0013346538000000002,6.963,0,0
0.0009998732000000001,-0.0004869125600000001,-0.0027835940000000003,-0.00044038240000000004,0.0025555058,6.964,0,0
0.0008560656,-0.0003657021600000001,-0.0027950619999999996,-8.66396e-05,0.003317766,6.965,0,0
0.0008896488000000001,-0.00023274400000000006,-0.0027871,0.00011650800000000003,0.003804544,6.966,0,0
0.0004459074,0.000601408,-0.0023344299999999998,-0.000215035,0.00347831,6.967,0,0
-0.0006479166000000001,0.0013660514,-0.0011007459999999997,-0.00016959160000000004,0.0025808912,6.968,0,0
-0.0013613000000000002,0.001433678,0.00011965000000000001,0.00015998559999999998,0.0016383836,6.969,0,0
-0.0017349564000000003,0.0015996854000000001,0.001161502,0.00012167939999999997,0.0007071376000000002,6.97,0,0
-0.0023305560000000006,0.0015747568000000001,0.002252122,0.00019335339999999992,-0.0004458184,6.971,0,0
-0.0026183220000000006,0.0008754628000000001,0.002773438,0.0008391054000000001,-0.0011722344,6.972,0,0
-0.0022304040000000005,-0.00024914919999999996,0.0023154550000000006,0.0011808978,-0.0013913320000000001,6.973,0,0
-0.001990324,-0.0011068172,0.002164329,0.0013525486,-0.0016465464,6.974,0,0
-0.0021685520000000002,-0.001461147,0.002027533,0.0018054616000000002,-0.0017094764,6.975,0,0
-0.001439844,-0.0018764200000000002,0.000859861,0.0017792596000000003,-0.0016237844,6.976,0,0
-0.00039119799999999994,-0.0018354260000000002,-4.424300000000007e-05,0.0011964828000000003,-0.0014259208,6.977,0,0
0.0003368800000000001,-0.0012340068000000002,-0.0005485780000000001,0.0006851612000000002,-0.0010832322,6.978,0,0
0.0016070580000000002,-0.0004954658000000001,-0.0018454480000000002,-4.578279999999991e-05,-0.0004450622,6.979,0,0
0.003050606,0.00040553819999999995,-0.003085584,-0.0011349628,0.0001930298,6.98,0,0
0.003472364,0.0013534502,-0.0031340840000000005,-0.0017180848000000002,0.0006261487999999999,6.981,0,0
0.0032178556,0.0022432182,-0.0030285560000000004,-0.001787956,0.0010150232,6.982,0,0
0.0031500396,0.0029579070000000005,-0.002899548,-0.001879566,0.001079363,6.983,0,0
0.0025567516,0.0035606640000000003,-0.0017400244,-0.001581169,0.000416639,6.984,0,0
0.0012583975999999998,0.0035783800000000004,-7.127840000000006e-05,-0.0009112656000000002,-0.000419387,6.985,0,0
0.0004973438,0.00294077988,0.0008796056,-0.0006251422172,-0.0006321978,6.986,0,0
-0.0002946018000000001,0.00208679788,0.0018521636000000002,-0.00031101201720000005,-0.0009225142,6.987,0,0
-0.0019998578,0.00101891568,0.0030695836,0.0005075599828,-0.0016762782,6.988,0,0
-0.0028707538000000005,-0.00020887032000000013,0.0032538500000000004,0.0009265849828000001,-0.0019554482000000003,6.989,0,0
-0.0027759016,-0.0012856463200000001,0.0026422432,0.0007510015827999999,-0.0019516842000000003,6.99,0,0
-0.0030612618000000003,-0.0017464662000000002,0.0023263844,0.0007843624000000001,-0.0023074624000000003,6.991,0,0
-0.0025719202,-0.0020022122,0.0017042498,0.0008158492000000001,-0.0023067598,6.992,0,0
-0.0009444522,-0.0021484140000000004,0.0001608038,0.0006242471999999999,-0.0016853534000000002,6.993,0,0
-8.056619999999992e-05,-0.0017378848000000001,-0.0007085202,0.0008149832,-0.0007760414000000002,6.994,0,0
0.0004770936000000001,-0.0014097816000000001,-0.0010643094,0.0009814438,0.00011607259999999988,6.995,0,0
0.0017040176000000001,-0.0011558582000000001,-0.0019670466000000003,0.0005401396,0.0006314996,6.996,0,0
0.002475738,-0.0003416022000000001,-0.0026938840000000006,-2.1045400000000163e-05,0.0007122718180400001,6.997,0,0
0.00263575,0.0006148318,-0.0024928520000000003,-0.0002690548,0.00052299261804,6.998,0,0
0.0028644200000000003,0.0011451346000000001,-0.0024968620000000003,-0.0006104212,0.0005088046180399999,6.999,0,0
0.0028774380000000004,0.0017832554000000002,-0.0027981060000000003,-0.0009091946000000001,0.00077235861804,7.0,0,0
0.0020201732,0.0022655400000000003,-0.0017216400000000004,-0.0002564626000000001,0.0009963896180400001,7.001,0,0
0.0008132592000000001,0.0016391720000000002,-0.0006468720000000002,0.0008602814,0.0011859684,7.002,0,0
-0.00016434680000000006,0.0008091696,-0.00034606000000000014,0.0014581088000000001,0.0013096839,7.003,0,0
-0.0014881028,0.00025783919999999996,0.0006293659999999999,0.0016674012000000003,0.0005312318999999999,7.004,0,0
-0.0032134628,-0.0007123588,0.001761328,0.0021115920000000002,-0.0009676901000000003,7.005,0,0
-0.004298752,-0.0017743608000000003,0.0017637439999999998,0.002291492,-0.0021206521000000002,7.006,0,0
-0.00455995,-0.0021735668000000003,0.0016701219999999998,0.0015975038000000002,-0.0027330053000000007,7.007,0,0
-0.004799866000000001,-0.0024553164,0.002114056,0.0006873898000000001,-0.0027227854000000003,7.008,0,0
-0.004214986,-0.0030463620000000004,0.0015752684000000002,-0.00013684419999999997,-0.0019127954,7.009,0,0
-0.0025531780000000006,-0.0030954299999999997,0.0007641184000000002,-0.0011963122,-0.0005290634000000003,7.01,0,0
-0.0008368540000000002,-0.0024386938,0.00037537500000000006,-0.0022615342,0.0007826466,7.011,0,0
0.0011005380000000003,-0.0019200204,-0.00032014500000000003,-0.002713422,0.0015777966000000002,7.012,0,0
0.0033422,-0.0014866544,-0.001075213,-0.002835818,0.001982222,7.013,0,0
0.005180308,-0.0005438224,-0.0013119974,-0.002711148,0.002194774,7.014,0,0
0.005837932,0.0002631676,-0.0012258528,-0.0020505392,0.002091288,7.015,0,0
0.005648074,0.0004942962,-0.0014465614,-0.0011554972,0.002061536,7.016,0,0
0.0046153594,0.0007381998000000001,-0.0012718733999999999,-0.00016489119999999998,0.002158922,7.017,0,0
0.0025885954,0.00078005958,-0.0005901454000000001,0.0012831268000000002,0.0022151980000000003,7.018,0,0
0.0001690474,-6.881241999999997e-05,-0.00027986739999999997,0.0031205268000000005,0.002855006,7.019,0,0
-0.0022082266,-0.00100617442,3.2135e-05,0.004529144000000001,0.003674488,7.02,0,0
-0.004372622600000001,-0.00142858322,0.001136089,0.005152534,0.003815334,7.021,0,0
-0.006075124,-0.00211089822,0.0019074970000000002,0.005040670000000001,0.0035160234000000006,7.022,0,0
-0.006528054,-0.0027640700000000004,0.0016553528,0.0038614280000000005,0.0031021892000000005,7.023,0,0
-0.005959292000000001,-0.002648648,0.0018992348,0.0013069080000000003,0.0020348984,7.024,0,0
-0.004320770000000001,-0.002290454,0.0023807698000000003,-0.0013524519999999999,0.0005180304000000002,7.025,0,0
-0.0015060960000000002,-0.0019202234000000001,0.0019717078,-0.0034486620000000003,-0.0007421396,7.026,0,0
0.001654626,-0.0007463814000000001,0.0017829118,-0.005620736,-0.002268827,7.027,0,0
0.004447734,0.0009640426,0.002255484,-0.007253426,-0.0044531548,7.028,0,0
0.006526836,0.0026828306,0.0019890374,-0.007811422,-0.007045916000000001,7.029,0,0
0.008139556,0.0044000166,0.0008085554000000001,-0.007776248,-0.009032708,7.03,0,0
0.008909682,0.005566166000000001,0.0002258914,-0.007143682000000001,-0.009350302,7.031,0,0
0.008305414,0.00603191,-0.00017809319999999995,-0.005158698000000001,-0.0078693388,7.032,0,0
0.006719424000000001,0.005969726,-0.0010111532,-0.0025928160000000004,-0.004893638800000001,7.033,0,0
0.004389934,0.005322866,-0.00096070356,1.7495999999999874e-05,-0.0013910008000000004,7.034,0,0
0.0012504760000000006,0.004242308,-0.0006377211600000001,0.003077524,0.0015696331999999998,7.035,0,0
-0.0015722780000000003,0.0032057279999999997,-0.0008039811600000001,0.005280442,0.0034885992000000003,7.036,0,0
-0.0033205820000000003,0.0022039172,-0.00067118936,0.006035198,0.004207126,7.037,0,0
-0.00478697,0.0012138702,-8.973936000000005e-05,0.006394424000000001,0.004071662,7.038,0,0
-0.005580758000000001,0.00038659820000000006,5.772599999999997e-05,0.006111328000000001,0.004187732,7.039,0,0
-0.005574822,-0.0003755278,0.00029766779999999994,0.0043216722,0.004814784,7.04,0,0
-0.005918942,-0.0009383658000000001,0.0008809137999999999,0.002793448,0.005379644,7.041,0,0
-0.00577149,-0.001249713,0.0006141986,0.00259698,0.006083488000000001,7.042,0,0
-0.0046326228,-0.0014935900000000002,-0.0002375694,0.002234454,0.0059322360000000005,7.043,0,0
-0.0035153428,-0.001482514,-0.00037396860000000006,0.0016372922000000001,0.003630032,7.044,0,0
-0.0020696708,-0.0010839299999999999,-8.403280000000005e-05,0.001517238,0.000384082,7.045,0,0
0.00015072920000000012,-0.0007460194000000001,-0.0008949628000000001,0.0011423522,-0.002885668,7.046,0,0
0.0019835192,-0.00031737719999999994,-0.0010719968000000002,0.00029559640000000005,-0.005030204,7.047,0,0
0.003403624,0.0002711168,-0.0001415988,-1.7775999999999946e-06,-0.00374231,7.048,0,0
0.004783296,0.0004394964,-0.00039896999999999996,0.0008237662000000001,0.0007548059999999994,7.049,0,0
0.005076252000000001,0.00019548839999999998,-0.0012097800000000001,0.0023214522,0.00711349,7.05,0,0
0.0038952160000000004,-0.00012216620000000006,-0.0007973022000000001,0.0041912142000000005,0.014073618,7.051,0,0
0.0018047660000000006,-0.0012356304,-0.0006182072,0.006341896,0.018928738,7.052,0,0
-0.00025321199999999973,-0.0027746984,-0.0016376772000000002,0.007288868,0.01947032,7.053,0,0
-0.002063222,-0.003099768,-0.0012625728000000003,0.006406001599999999,0.015645462000000002,7.054,0,0
-0.0027217162,-0.00286364,3.0711999999998496e-06,0.004023687599999999,0.007588602,7.055,0,0
-0.0021291941999999997,-0.00278109,0.00022383219999999983,7.575360000000022e-05,-0.003535738000000001,7.056,0,0
-0.0016509222,-0.002136596,0.0005121151999999999,-0.0050283464000000005,-0.015385838000000002,7.057,0,0
-0.0015479182,-0.001312072,0.0014482252,-0.0098268704,-0.025423818,7.058,0,0
-0.0009332319800000001,-0.001442488,0.0012760406000000002,-0.01365508,-0.030391860000000007,7.059,0,0
-0.0001466757799999999,-0.001796622,2.54586e-05,-0.01614876,-0.029038500000000002,7.06,0,0
4.318022000000013e-05,-0.00119355,-0.0004921182,-0.01624542,-0.0229637226,7.061,0,0
0.0010250102199999998,-0.00044333200000000006,-0.0010828862,-0.015027910000000002,-0.014558474600000003,7.062,0,0
0.00255669022,0.0002317440000000001,-0.0020379922,-0.013354576000000002,-0.006135684600000001,7.063,0,0
0.003696358,0.001560722,-0.002131012,-0.011377930000000001,-0.0010277905999999998,7.064,0,0
0.004429398,0.002685094,-0.0018354722,-0.00997221,-0.0010038705999999998,7.065,0,0
0.005545824,0.003003352,-0.0019887782,-0.009552090000000001,-0.004142628,7.066,0,0
0.006659942,0.003491094,-0.0017398842000000002,-0.008921738,-0.007767896,7.067,0,0
0.006353444,0.004057822,-0.0008349802000000002,-0.006651554000000001,-0.010480772,7.068,0,0
0.0053181654,0.003873494,-0.0006046612,-0.002859928000000001,-0.01080365,7.069,0,0
0.0040259216,0.0036593479999999998,-0.0004388404,0.0022768720000000005,-0.007843192,7.07,0,0
0.0016085635999999997,0.003400144,0.0007803716,0.008607951999999999,-0.0021647719999999993,7.071,0,0
-0.0016928184000000004,0.001860544,0.0014668576,0.015081830000000001,0.004717908,7.072,0,0
-0.0040946124,-0.00022723600000000013,0.0005054796000000002,0.019960272,0.010944234,7.073,0,0
-0.0067093238,-0.0018441260000000002,-0.00012714539999999998,0.022920060000000003,0.016616278,7.074,0,0
-0.009754242000000002,-0.00356178,-2.9610400000000092e-05,0.02480366,0.021176760000000003,7.075,0,0
-0.011440206000000001,-0.005501608000000001,-0.0012405684,0.02482376,0.023774120000000003,7.076,0,0
-0.012242356000000001,-0.006340916,-0.0024293644,0.02223962,0.025739960000000003,7.077,0,0
-0.012509960000000002,-0.006192182000000001,-0.0017746238,0.018072530000000003,0.027784160000000002,7.078,0,0
-0.011312294000000002,-0.005971270000000001,-0.0014431504,0.013099167000000002,0.028533300000000004,7.079,0,0
-0.008867298000000003,-0.0049854266000000005,-0.001894614,0.006604977000000001,0.027011760000000003,7.08,0,0
-0.00680539,-0.003228152600000001,-0.0012199546,-0.001684263,0.0218211084,7.081,0,0
-0.004598546,-0.0014960726,-0.00026000660000000006,-0.010545943000000002,0.011106648399999999,7.082,0,0
-0.0016068640000000004,6.237940000000018e-05,0.0001425668,-0.019299913000000002,-0.0038275515999999987,7.083,0,0
0.0016599700000000006,0.0021960694000000003,0.0016189134000000002,-0.02680133,-0.019081551600000003,7.084,0,0
0.005125254000000001,0.00432938,0.0038323594000000006,-0.031447960000000004,-0.030880491600000004,7.085,0,0
0.008846506,0.005581801999999999,0.004773118000000001,-0.0316306,-0.03686348,7.086,0,0
0.011794082000000001,0.006135952,0.004931238,-0.026711174000000004,-0.03580866,7.087,0,0
0.01333718,0.005970700000000001,0.004986014,-0.017452706000000002,-0.028790736000000004,7.088,0,0
0.013449039999999999,0.005114296000000001,0.0038673126,-0.004013205999999999,-0.018834372000000002,7.089,0,0
0.011523416,0.0035336419999999996,0.0011523585999999996,0.011820934,-0.008964906000000002,7.09,0,0
0.008477706,0.001981637,-0.0012306374000000003,0.026877833999999996,-0.0007794260000000002,7.091,0,0
0.005334790000000001,0.0009057010000000002,-0.0028883234000000005,0.039025848,0.006219174,7.092,0,0
0.002669896,0.00013468299999999997,-0.0049242974,0.046739920000000004,0.01282061,7.093,0,0
0.00015189599999999994,-0.0008547630000000001,-0.0060346620000000005,0.0475078,0.016905886000000002,7.094,0,0
-0.0021759860000000004,-0.001782751,-0.005604978000000001,0.04075380000000001,0.017546680000000002,7.095,0,0
-0.0033520340000000003,-0.0026695860000000003,-0.004621374,0.0274503,0.017344540000000002,7.096,0,0
-0.003911024,-0.003433104,-0.002742538,0.00882316,0.016998940000000004,7.097,0,0
-0.005196294000000001,-0.0033661000000000003,0.000744818,-0.011224259999999998,0.01524758,7.098,0,0
-0.006766034000000001,-0.003708282,0.00379933,-0.028738220000000002,0.013040700000000002,7.099,0,0
-0.007440406,-0.004488634,0.005810288,-0.0395226,0.012389618,7.1,0,0
-0.008225942,-0.004690184,0.007848476,-0.04102722,0.011205486,7.101,0,0
-0.009409136,-0.004972802,0.00816355,-0.03486709200000001,0.006349940000000001,7.102,0,0
-0.009753212,-0.006089596,0.0063949348,-0.024394016799999998,-0.0014954799999999996,7.103,0,0
-0.008983340000000001,-0.006284148000000001,0.0046254367999999995,-0.0121031388,-0.0094936,7.104,0,0
-0.008362892,-0.005222244000000001,0.0032715007999999995,-0.0013311388000000006,-0.015889538,7.105,0,0
-0.007828548,-0.004338990000000001,0.0014398568,0.004793581200000001,-0.018589132,7.106,0,0
-0.006437020000000001,-0.0031627546,-0.0002231471999999999,0.0072346452000000006,-0.01623882,7.107,0,0
-0.005133171999999999,-0.0012322406,-0.00122142,0.007494787800000001,-0.009160940000000003,7.108,0,0
-0.0032981300000000002,0.0007452894,-0.0028767940000000002,0.0066101338,0.0020753599999999996,7.109,0,0
-0.00011569200000000014,0.0021957574,-0.00512463,0.0045372218,0.01337704,7.11,0,0
0.0029518900000000004,0.0038539014,-0.006484868,0.0011686178,0.019834506000000002,7.111,0,0
