bandpass 1,bandpass 2,bandpass 3,bandpass 4,bandpass 5,time,onset,mark
0.0003651438,0.001974538,-0.0016273239999999999,-0.0005892536000000001,0.002181922,3.749,0,0
0.000482393,0.002538062,-0.002463798,-0.0006824298000000001,0.002650232,3.75,0,0
0.0006754512,0.0024821202,-0.00278273,-0.000589587,0.0031636660000000003,3.751,0,0
0.00021598339999999997,0.0012897541999999998,-0.0017637220000000001,-0.0011585713999999999,0.0014365240000000002,3.752,0,0
0.00012521500000000003,-2.494979999999997e-05,-0.0007595860000000002,-0.0014441454000000001,-3.5260000000000066e-05,3.753,0,0
0.0002526698,-0.0007412281400000001,2.0063599999999907e-05,-0.0011285708,-0.000492964,3.754,0,0
9.378679999999999e-05,-0.00158473414,0.0012294635999999999,-0.0014155086,-0.0019152840000000002,3.755,0,0
2.5948999999999978e-05,-0.0018333143400000001,0.0022449596,-0.0014800458,-0.0033499259999999996,3.756,0,0
0.0002203126,-0.00114189134,0.0022947356,-0.0006471938,-0.0027161078,3.757,0,0
0.000237969,-0.00079991614,0.0022129136,0.00014733420000000006,-0.0025133778,3.758,0,0
0.00010425620000000001,-0.0004753618000000001,0.0024985380000000002,0.0005261696,-0.0032835958,3.759,0,0
-2.9082000000000017e-05,0.0002584922,0.0022000628000000003,0.0011260876000000002,-0.0024316344000000004,3.76,0,0
-0.00038043040000000004,0.0009965782000000002,0.0014851788,0.0011681164,-0.0007318423999999999,3.761,0,0
-0.0006618202000000001,0.0013514972000000002,0.0009191703999999999,0.0005957625999999999,-0.0006328856000000001,3.762,0,0
-0.0007911338000000001,0.0017200600000000003,0.00030258839999999993,0.0007030046,0.0001849184000000001,3.763,0,0
-0.0007590532000000002,0.001808162,-0.00042899560000000004,0.0008441166000000001,0.0021425543999999998,3.764,0,0
-0.0005322846000000002,0.001681548,-0.0009455404000000001,0.0006349959000000002,0.002711549,3.765,0,0
-0.00042639460000000007,0.0014437666,-0.0012917644,0.0007595831000000001,0.002395141,3.766,0,0
-0.0005502546,0.0012312629200000001,-0.0017681540000000003,0.0010771023,0.0025500116000000002,3.767,0,0
-0.0007099294,0.0009426449200000001,-0.0016241688000000001,0.0009908883,0.0027520896,3.768,0,0
-0.0005815256,0.00012847091999999995,-0.0009944087999999998,0.0004570116999999999,0.0003892256000000002,3.769,0,0
-0.0005957844000000001,-0.00048080708,9.957720000000007e-05,0.0005142666,-0.0003425424,3.77,0,0
-0.0006781303999999999,-0.0006956496800000001,0.00037287500000000005,0.0002550018,-0.0017310504000000002,3.771,0,0
-0.000196676,-0.0004527220000000001,0.001267153,0.00035281439999999993,-0.002182252,3.772,0,0
0.0004020460000000001,-0.00043534471999999994,0.0014992464000000002,0.0019829664,0.005230846000000001,3.773,0,0
0.0005609142000000001,-0.00012529031999999998,-0.0026728836000000002,0.0028884710000000005,0.012591388000000002,3.774,0,0
0.0006822158,0.0011069336800000002,-0.006925855600000001,0.0021220348000000003,0.014791470000000001,3.775,0,0
0.0005352058,0.00208670568,-0.0088639094,0.00103851,0.015954320000000004,3.776,0,0
0.00013009339999999994,0.0019854132800000003,-0.010326291400000001,-0.0009675619999999999,0.012855758000000002,3.777,0,0
0.00016804540000000005,0.0012362800000000002,-0.009211150000000001,-0.005162656,-0.0006860819999999993,3.778,0,0
0.00037389540000000004,0.0005501396,-0.0029681100000000012,-0.008062922,-0.013592642000000002,3.779,0,0
0.000697718,-0.0012035144,0.0038011700000000004,-0.008881666,-0.022218642000000004,3.78,0,0
0.001509684,-0.0029311044,0.009428770000000001,-0.008702078,-0.02871394,3.781,0,0
0.002319176,-0.0034829440000000004,0.014024790000000002,-0.006699518000000001,-0.029307800000000002,3.782,0,0
0.002381382,-0.003960352,0.015830000000000004,-0.0032419960000000005,-0.025426824000000004,3.783,0,0
0.0019995110000000003,-0.0046752600000000005,0.01586342,0.0007442539999999993,-0.01841569,3.784,0,0
0.001289555,-0.0047372180000000005,0.01390914,0.0048593360000000006,-0.009281969999999999,3.785,0,0
0.00024243099999999977,-0.003486848,0.009778106000000002,0.008969896000000002,0.0022065299999999995,3.786,0,0
-0.0008077290000000001,-0.0015264859999999996,0.0038963860000000012,0.011515872,0.01315787,3.787,0,0
-0.0018371150000000003,0.001420318,-0.0025280339999999998,0.012247682,0.022083954000000003,3.788,0,0
-0.002594168,0.004508044,-0.008914874,0.011580202000000003,0.02882694,3.789,0,0
-0.003132194,0.006328806000000001,-0.014180614000000001,0.009307844000000003,0.03171804,3.79,0,0
-0.003468606,0.0066308320000000006,-0.01678618,0.005124404,0.029398140000000003,3.791,0,0
-0.003327816,0.005496437999999999,-0.01689772,0.00035511599999999994,0.023027112000000002,3.792,0,0
-0.0027806854,0.0034850019999999996,-0.015170218,-0.0037319759999999997,0.014629086000000005,3.793,0,0
-0.0017150353999999999,0.001379038,-0.011279361600000001,-0.007582406000000001,0.0037077060000000025,3.794,0,0
-0.00015326339999999997,-0.00037415799999999987,-0.0055289336,-0.010634868000000002,-0.007607053999999999,3.795,0,0
0.0012405786,-0.00241979,0.0005234463999999996,-0.011737787999999999,-0.016713854,3.796,0,0
0.0024327085999999998,-0.004521062,0.006475746400000001,-0.01120894,-0.023479786000000002,3.797,0,0
0.0035574960000000003,-0.005930386,0.011911424400000002,-0.009638382000000001,-0.02770802,3.798,0,0
0.0036813360000000008,-0.006373518000000001,0.015437688000000001,-0.00647612,-0.027451780000000002,3.799,0,0
0.0031855660000000004,-0.0056105370000000005,0.0157571,-0.0025449080000000002,-0.022747692,3.8,0,0
0.002699908,-0.004019877,0.013783078000000002,0.0013793079999999999,-0.016337572,3.801,0,0
0.0018581048,-0.001332327,0.010712914000000002,0.005390648,-0.008077452,3.802,0,0
0.0007013564,0.0017142430000000003,0.005930184,0.00872881,0.002360028,3.803,0,0
-0.0005611236,0.003827275,0.000359804,0.010409008,0.011887488000000002,3.804,0,0
-0.0013113676,0.004728520000000001,-0.0044156560000000004,0.010759068000000002,0.01896482,3.805,0,0
-0.0020612676,0.004568009400000001,-0.008676554,0.010100742000000003,0.02416326,3.806,0,0
-0.0031388204,0.0044060634,-0.01226455,0.007819284000000001,0.025804999999999998,3.807,0,0
-0.0033533960000000002,0.0047028794,-0.013905260000000003,0.004302886,0.022431740000000002,3.808,0,0
-0.00289824,0.0053343054,-0.013622762,0.0005981700000000001,0.016433186400000004,3.809,0,0
-0.0026690240000000003,0.0054757554,-0.011742846,-0.003044802,0.0087551304,3.81,0,0
-0.001521088,0.004661742,-0.007965868,-0.0066467720000000004,-0.0008680295999999995,3.811,0,0
0.00011049000000000014,0.00298086,-0.0029277140000000014,-0.009005214000000001,-0.0095763296,3.812,0,0
0.0006146104,0.0012619349999999996,0.0024279259999999995,-0.009784998000000001,-0.0161688496,3.813,0,0
0.0011172084,-0.001101469,0.0072792280000000004,-0.009409412000000002,-0.021258016,3.814,0,0
0.0020241624,-0.004842183,0.011138472,-0.007439884400000001,-0.023321440000000002,3.815,0,0
0.0026437184,-0.0067507850000000005,0.013059374000000002,-0.004204746400000001,-0.02117286,3.816,0,0
0.0028892303999999997,-0.006867955,0.012594036000000001,-0.0008715824000000004,-0.016607588,3.817,0,0
0.003199498,-0.007724278,0.01060289,0.0021953356000000003,-0.010626674000000003,3.818,0,0
0.0030997652,-0.007879818000000002,0.0074670806,0.0052407876,-0.0024590939999999998,3.819,0,0
0.0017669412,-0.005585472,0.0032711706000000005,0.007172332000000001,0.006261206000000001,3.82,0,0
-4.223480000000021e-05,-0.0027265899999999997,-0.0011717494000000005,0.007832690000000002,0.013113766000000002,3.821,0,0
-0.0016321048,-0.000624128,-0.005002485400000001,0.007986208,0.017956574000000003,3.822,0,0
-0.0032544828000000007,0.0009835360000000001,-0.0083646194,0.007032064,0.020966940000000003,3.823,0,0
-0.004139254,0.002305304,-0.01082919,0.0046591,0.020553320000000003,3.824,0,0
-0.0034926134180000004,0.004021618,-0.011469982,0.0017543880000000004,0.016661664,3.825,0,0
-0.002682909938,0.0057245360000000006,-0.010547368000000001,-0.0008447839999999997,0.011484208,3.826,0,0
-0.0016916851380000002,0.007064088,-0.008530932,-0.0038358619999999998,0.005123913999999999,3.827,0,0
-7.584513800000016e-05,0.006878780000000001,-0.005072162,-0.006425114,-0.002726806,3.828,0,0
0.000904924862,0.004530196,-0.0006461560000000002,-0.007469472,-0.009493766,3.829,0,0
0.00125943628,0.0017505600000000004,0.003433546,-0.007795244,-0.014445330000000001,3.83,0,0
0.0019314528,-0.002140548,0.007041112,-0.0076388440000000005,-0.018250834,3.831,0,0
0.002287088,-0.006599418000000001,0.009997796,-0.006019968600000001,-0.01905966,3.832,0,0
0.001919488,-0.008094966000000002,0.011026428000000001,-0.0031869705999999997,-0.016339804,3.833,0,0
0.0018353561999999999,-0.007213097999999999,0.010308834,-0.0007286786000000002,-0.0122113166,3.834,0,0
0.0016749228,-0.006010934,0.008636267999999999,0.0020860734,-0.007094918599999999,3.835,0,0
0.0009120602,-0.0036469659999999997,0.005755926,0.0049393874,9.280140000000013e-05,3.836,0,0
4.639220000000004e-05,-1.292200000000028e-05,0.002041446,0.006280244,0.0068108414,3.837,0,0
-0.0005591118,0.002882708,-0.0014384579999999999,0.006437176,0.0117219254,3.838,0,0
-0.001199708,0.005002558,-0.004594330000000001,0.006087842,0.016093398000000002,3.839,0,0
-0.0020734926,0.00613253,-0.007515944,0.004969612,0.018567140000000003,3.84,0,0
-0.002187994,0.0055320222,-0.008915328,0.0028028000000000003,0.01720002,3.841,0,0
-0.0016732621999999999,0.0035882941999999993,-0.008875282,0.0005131100000000002,0.013542302,3.842,0,0
-0.0012600092,0.0012113221999999998,-0.008288552000000001,-0.0014149359999999999,0.009391936,3.843,0,0
-0.000696914,-0.0006727738,-0.006469704000000001,-0.003186848,0.0029897159999999995,3.844,0,0
2.436160000000002e-05,-0.0018159398000000002,-0.003248092,-0.004698122000000001,-0.004239784,3.845,0,0
0.00043949360000000004,-0.0018800488000000003,0.00010596999999999972,-0.005317856000000001,-0.009543784000000001,3.846,0,0
0.0007833158,-0.0019863528,0.0030745400000000006,-0.0053349,-0.013587906,3.847,0,0
0.0015318028000000001,-0.0011650008,0.005845266,-0.005121950000000001,-0.016531460000000005,3.848,0,0
0.0019929996000000003,0.0004565312000000001,0.007298210000000001,-0.0038638558,-0.016735580000000003,3.849,0,0
0.0024301419999999997,0.000873181,0.007298426000000001,-0.0017499358000000005,-0.014039646000000003,3.85,0,0
0.002708314,0.0004838218000000001,0.006947948,0.00023609619999999994,-0.010336637400000001,3.851,0,0
0.0019675739999999997,-0.00016648819999999997,0.005918738,0.0022863502000000004,-0.005290641400000001,3.852,0,0
0.0006447919999999998,-0.0010249382,0.0037556920000000006,0.004381728200000001,0.0011958586,3.853,0,0
-0.000208678,-0.0011377422,0.0010915739999999999,0.005586806000000001,0.006694878600000001,3.854,0,0
-0.000494675,-6.193600000000007e-05,-0.0015581100000000004,0.00576849,0.010701584600000001,3.855,0,0
-0.0010671298,0.00047678060000000004,-0.004621896,0.0054225540000000004,0.013782376,3.856,0,0
-0.0015499998,0.0008007245999999999,-0.007377026,0.0044433778,0.014362214000000002,3.857,0,0
-0.0015450338,0.00028617659999999995,-0.008366252000000001,0.0027922818000000005,0.011823678,3.858,0,0
-0.0016190018,-0.0012587094000000004,-0.00781772,0.0010631438,0.008643318,3.859,0,0
-0.0020698488000000003,-0.0019659114,-0.006257502,-0.0007269402,0.0047711920000000005,3.86,0,0
-0.0019326380000000002,-0.0015293000000000004,-0.003617362,-0.0026026662,-0.0008757280000000001,3.861,0,0
-0.0010339326,0.0001400939999999999,-0.0005122039999999994,-0.00386563,-0.005592902,3.862,0,0
1.6689400000000044e-05,0.002332006,0.0018583240000000002,-0.004159698000000001,-0.008666826,3.863,0,0
0.0012951234000000002,0.003160946,0.0038193080000000004,-0.004019698,-0.011245166000000001,3.864,0,0
0.0021822414000000003,0.00243466,0.00566349,-0.003514124000000001,-0.01243688,3.865,0,0
0.0022756504000000003,0.0020691154000000004,0.006429752,-0.0020821060000000002,-0.010805228000000002,3.866,0,0
0.0018685850000000005,0.0003419354000000004,0.006262782,-0.000402992,-0.007712326000000001,3.867,0,0
0.0012152130000000001,-0.0025409186,0.005972860000000002,0.00031314459999999994,-0.0048805260000000005,3.868,0,0
8.773699999999995e-05,-0.0031956746,0.0049599142,0.0011980766,-0.0009272139999999996,3.869,0,0
-0.001052979,-0.0025059605999999996,0.0025234262,0.0026835166,0.004049726,3.87,0,0
-0.0013086486000000001,-0.001907734,-0.00014860580000000006,0.0031068006,0.007899514,3.871,0,0
-0.0013124006,-7.0659999999998e-06,-0.0022603438,0.0032210606,0.010438032000000002,3.872,0,0
-0.0013698506,0.0029364000000000005,-0.0042367218,0.0037243420000000003,0.012580272,3.873,0,0
-0.0011444658,0.0037813960000000002,-0.005777246000000001,0.0029108500000000004,0.01239462,3.874,0,0
-0.0008318358000000001,0.0026758120000000005,-0.00584868,0.000786318,0.009767211999999999,3.875,0,0
-0.0006636458000000002,0.0014855800000000002,-0.004963066,-0.0009953639999999999,0.0066345226000000005,3.876,0,0
-0.0006368810000000001,0.00030357400000000014,-0.0040376784,-0.0026481200000000003,0.0023998566000000008,3.877,0,0
-0.0007359830000000001,-0.0008474172000000001,-0.0022839604000000004,-0.004304838,-0.0024002634,3.878,0,0
-0.0006341396,-0.0008347492,-7.945240000000007e-05,-0.004882976,-0.005933663400000001,3.879,0,0
-0.00022981359999999992,0.00010618680000000003,0.0016067116,-0.004363998,-0.0086226754,3.88,0,0
-3.426699999999999e-05,0.00028536480000000003,0.0030967036000000003,-0.0035583539999999997,-0.010960106,3.881,0,0
0.0005367642,-0.0006950172,0.004634518000000001,-0.0026291908,-0.011160062,3.882,0,0
0.0011608862000000001,-0.0021989699999999997,0.005240114000000001,-0.0011869848000000001,-0.009345092,3.883,0,0
0.001332298,-0.003417612,0.005094984,0.0002738732000000001,-0.007192256000000001,3.884,0,0
0.001506432,-0.00369728,0.00471569,0.0014491672000000002,-0.00458011,3.885,0,0
0.001195605,-0.001956734,0.003117194,0.0027294112000000002,-0.0004923219999999997,3.886,0,0
0.0007240216,0.0018013960000000002,0.0008322860000000004,0.00376893,0.003287,3.887,0,0
0.0005676488,0.005524298,-0.0012365599999999998,0.004193502000000001,0.0054740380000000005,3.888,0,0
0.00022247159999999995,0.006507133800000001,-0.002978048,0.0040511639999999995,0.007833882,3.889,0,0
-0.0005787924000000001,0.004739849800000001,-0.004686066,0.0033824758000000005,0.009477438000000001,3.89,0,0
-0.0008071334000000002,0.002020767800000001,-0.005565872,0.0024151458000000008,0.008721558,3.891,0,0
-0.0003369840000000001,-0.0009943222,-0.005130750000000001,0.0012376638,0.0069373920000000006,3.892,0,0
-0.00040050006000000006,-0.0034714788000000003,-0.004271363000000001,0.00015047580000000007,0.005246605800000001,3.893,0,0
-0.00017809046000000006,-0.0029406705999999996,-0.0029812188,-0.0009884382,0.0021021058000000002,3.894,0,0
0.00055327354,-0.0007375586,-0.0010465968000000002,-0.0021851860000000004,-0.0016116382000000002,3.895,0,0
0.0006998275400000001,-0.0010821266,0.0008876032000000001,-0.0029598320000000003,-0.0039088422,3.896,0,0
0.00046643334000000004,-0.0026573346,0.0022331832,-0.0035332540000000004,-0.0058306942,3.897,0,0
0.000489314,-0.003434302,0.0036406102,-0.0036055740000000007,-0.007596867999999999,3.898,0,0
0.0003288656,-0.004314686000000001,0.004291148000000001,-0.0029445020000000003,-0.007646839999999999,3.899,0,0
-0.00011595720000000002,-0.003981670000000001,0.0038239672000000002,-0.001814603,-0.006035996,3.9,0,0
-2.2992200000000007e-05,-0.0012590939999999999,0.003612357200000001,-0.0006182329999999999,-0.0047045776,3.901,0,0
5.607999999999991e-06,0.001522884,0.0030575132000000005,0.000740489,-0.0027726596,3.902,0,0
-0.0002064346,0.0033833839999999997,0.001617259,0.001910025,0.0005329663999999997,3.903,0,0
-0.00032921260000000005,0.0034807012,0.000560407,0.002373901,0.0031175563999999998,3.904,0,0
-0.0005271358,0.0017715472000000006,-0.0002584382,0.002653922,0.0047720604,3.905,0,0
-0.0007855108,0.0006352468,-0.0018665481999999998,0.002834634,0.006531236,3.906,0,0
-0.0011325166,2.4216799999999975e-05,-0.0032595342,0.002697896,0.007384668,3.907,0,0
-0.0013030538,-0.0007927824000000001,-0.0038790699999999997,0.0017489448,0.006220466,3.908,0,0
-0.0010778172,-0.0007957255999999999,-0.00429909,0.0006838248,0.004715189799999999,3.909,0,0
-0.00045645719999999997,-0.00015046960000000001,-0.004015726,-0.00031877519999999994,0.0029471478,3.91,0,0
2.3940200000000032e-05,-0.0002936952,-0.002631522,-0.0016385172,-0.00021172620000000026,3.911,0,0
0.00022172700000000004,-0.0006970596000000001,-0.000947608,-0.0025648732,-0.0031428242,3.912,0,0
0.0005799033800000001,-0.0004859144000000001,0.0005361800000000003,-0.002963306,-0.0047959802,3.913,0,0
0.0007589207800000001,0.00013135359999999995,0.0020627980000000002,-0.0027484099999999997,-0.006043968,3.914,0,0
0.0006178827800000001,0.0011618976,0.003263502,-0.0022635498000000004,-0.006671664000000001,3.915,0,0
0.00057476118,0.0025877456,0.00345281,-0.0015857812000000002,-0.005580878000000001,3.916,0,0
0.00057371818,0.0031438200000000003,0.0028870758,-0.0007400072000000001,-0.003935524,3.917,0,0
0.0006575508000000001,0.002111796,0.0023447058,0.00011044879999999997,-0.0028777204,3.918,0,0
0.0007743888,0.000715432,0.0015881635999999998,0.0010305788000000001,-0.0012472564,3.919,0,0
0.0007495342000000001,8.435660000000042e-06,0.00011850959999999992,0.0017364406,0.0013908616,3.92,0,0
0.0008077488000000002,-0.00018916034000000012,-0.0009480784000000001,0.0020374900000000003,0.0031976816,3.921,0,0
0.0005758328000000001,-0.0001441943400000001,-0.0014677942,0.002090146,0.0042924236,3.922,0,0
-0.0001937101999999999,9.487965999999994e-05,-0.0025361282,0.0021630679999999998,0.005838324000000001,3.923,0,0
-0.0007604222,0.00046348766,-0.0034670340000000003,0.0017940126,0.005894608000000001,3.924,0,0
-0.0010068963999999999,0.0003539942000000001,-0.0029735298,0.0011290926000000001,0.0041086454,3.925,0,0
-0.0015041548,-0.0010204177999999999,-0.0021011358000000003,0.000702893,0.0027972138,3.926,0,0
-0.0016607628000000001,-0.0021338758,-0.0017736187999999996,-7.411700000000001e-05,0.0012677098000000004,3.927,0,0
-0.0010411946,-0.0018151144,-0.0005343448,-0.0013668430000000002,-0.0014906522000000001,3.928,0,0
-0.0003977565999999999,-0.0013100696,0.0008973652,-0.0023368196,-0.0028456362,3.929,0,0
0.00022095620000000003,-0.0015108038,0.0013655590000000001,-0.0027567336,-0.0033296576000000004,3.93,0,0
0.0008003262,-0.0020287418,0.0018223150000000001,-0.002922836,-0.004485698000000001,3.931,0,0
0.00118195892,-0.0022765517999999998,0.0027084220000000003,-0.0023563279999999995,-0.004611662000000001,3.932,0,0
0.00131055412,-0.002048743,0.0029700000000000004,-0.0009170579999999998,-0.0033136044,3.933,0,0
0.00104528692,-0.0018002978,0.0025149586,0.000311606,-0.002350963,3.934,0,0
0.00056075088,-0.0014863320000000001,0.0023349600000000005,0.00140967,-0.0017778792,3.935,0,0
0.00010055928,-0.0002488419999999999,0.001869926,0.0027680960000000003,0.00012535280000000007,3.936,0,0
-9.572984e-05,0.000850522,0.0010328680000000002,0.003114936,0.0018538368000000003,3.937,0,0
-0.00037212244,0.0010447878,0.00029231060000000004,0.0027106214,0.0027254412000000004,3.938,0,0
-0.0008234632400000001,0.0016360578,-0.000253582,0.0025348394,0.0039721058,3.939,0,0
-0.0011114992,0.0023441399999999998,-0.0011677374,0.0019784474,0.005084886,3.94,0,0
-0.0011056676,0.0020379151,-0.0020839454000000004,0.0006360614,0.004668648000000001,3.941,0,0
-0.0009260075180000002,0.0018630013,-0.0023854954,-0.0005514506,0.003312746,3.942,0,0
-0.0005726583180000001,0.0019989873,-0.0026733580000000002,-0.0009180200000000001,0.0025104512000000004,3.943,0,0
-8.403631800000004e-05,0.0013519075,-0.0027730960000000005,-0.001404224,0.0009197031999999999,3.944,0,0
0.000297331282,0.0014339615,-0.0024340119999999997,-0.0020380899999999998,-0.0013501348,3.945,0,0
0.000796315282,0.0027509144000000003,-0.0018621328000000001,-0.0018577182,-0.0024974608000000002,3.946,0,0
0.0010117036,0.0029088962000000003,-0.0009732968000000002,-0.0013111912,-0.0030963868000000007,3.947,0,0
0.0006392036,0.0013617002000000003,0.00042240720000000004,-0.0012336774,-0.004277984,3.948,0,0
0.00035991279999999994,0.0004971219999999997,0.0017716392,-0.0007176974,-0.004516022,3.949,0,0
0.0003976136,-0.0005823660000000002,0.0025958412000000003,0.00046802659999999995,-0.003016352,3.95,0,0
0.00011652619999999999,-0.0034999040000000007,0.0028925434,0.0006696696,-0.0023129298000000003,3.951,0,0
-0.0002603212,-0.004696094000000001,0.0026659374,0.0007359866,-0.0016327254000000002,3.952,0,0
-0.00020936820000000005,-0.0032031900000000003,0.0017016216200000003,0.0016681208000000002,0.0006952906000000001,3.953,0,0
-0.00020681160000000004,-0.0026267886000000003,0.00069894982,0.0017150308,0.0020141486000000005,3.954,0,0
-0.00018226020000000002,-0.0023037324000000007,0.00033081702000000004,0.0012159672000000002,0.0021032166,3.955,0,0
-0.00017460300000000006,0.00026601360000000015,-0.00013897438,0.0014920124000000002,0.0030879364000000005,3.956,0,0
-0.00024623360000000004,0.0022108596,-0.0007102303800000001,0.0014702592,0.003823934,3.957,0,0
-3.546000000000186e-07,0.0020572988,-0.0007520490000000001,0.0003687212,0.0026858700000000004,3.958,0,0
0.0001139674,0.0019542794000000003,-0.0008769472,-0.00044630280000000004,0.0018173364000000003,3.959,0,0
-2.4997799999999993e-05,0.0015232752000000002,-0.0014460544000000001,-0.0009623992000000001,0.0014746493999999999,3.96,0,0
-3.968400000000003e-05,0.00010906120000000015,-0.0013845484000000001,-0.0018032812000000004,-0.00043278459999999996,3.961,0,0
8.90394e-05,-0.0011335388,-0.0008313743999999999,-0.0019638760000000002,-0.0020148666,3.962,0,0
0.0002793434,-0.0014203114,-0.00037586399999999984,-0.0018364308000000003,-0.0022485166,3.963,0,0
0.0003789364,-0.0007354074000000001,-9.327720000000002e-05,-0.0017075568,-0.002690797,3.964,0,0
0.0004379054,0.0005296626,0.0002462628000000001,-0.0015345028,-0.003193538,3.965,0,0
0.0006196578000000001,0.0012813646,0.0005976456000000002,-0.0013249008000000002,-0.0024439280000000006,3.966,0,0
0.0008611966,0.0007783766,0.00021300980000000006,-0.0011364328,-0.0014314546000000002,3.967,0,0
0.0005899466,0.000197116,-2.3293999999999957e-05,-0.0013386000000000001,-0.0014643466000000003,3.968,0,0
0.0003640526,-0.000436885,0.0005529352,-0.000910091,-0.0009612025200000001,3.969,0,0
0.0001526424,-0.001988487,0.0008762218,1.4002999999999954e-05,0.00044912947999999997,3.97,0,0
-0.0004109596,-0.002513671,0.0008549524,0.00010152699999999996,0.0011933194800000002,3.971,0,0
-0.0005189148,-0.0007570490000000003,0.000873547,1.0149399999999947e-05,0.00158314208,3.972,0,0
-0.0005429772,0.0015318369999999999,0.0002909068,0.0007617614,0.0026032380800000005,3.973,0,0
-0.0005823934,0.003133536,-0.0006645332,0.0007213908399999999,0.0027541366,3.974,0,0
-0.0005112352,0.003956161000000001,-0.0011882698,-4.346035999999998e-05,0.0017965666,3.975,0,0
-0.0003968572,0.003092239,-0.0015423532000000003,0.00044663164,0.0018641766000000001,3.976,0,0
-0.0006691442000000001,0.0010521189999999996,-0.0017192919999999999,0.0006781922400000001,0.0015622312000000001,3.977,0,0
-0.0010422018,-0.001010059,-0.0012626382,0.00013959784000000004,-0.00013649080000000013,3.978,0,0
-0.0011580764,-0.001999969,-0.0007519964,0.0004008534,-0.0006956574,3.979,0,0
-0.0010073346000000001,-0.0021925204,-0.00012076240000000001,0.0008253986000000002,-0.0006320254000000001,3.98,0,0
-0.00044887660000000006,-0.0029117564000000003,0.0006759096000000001,0.0006257746,-0.0016662994000000001,3.981,0,0
9.553399999999982e-06,-0.0027318524,0.0009322496,0.0004874716,-0.002117298,3.982,0,0
0.0006330434,-0.0010883984,0.0009111526000000001,0.000915576,-0.0008434100000000001,3.983,0,0
0.0010233986,0.0005470475999999999,0.0009376924000000001,0.001044132,-0.00035253359999999997,3.984,0,0
0.0010937818,0.0010367859999999998,0.0010822604,0.0007926646,-0.0010054156000000002,3.985,0,0
0.0009910478,0.0007616059999999997,0.0008660264000000001,0.0009670605999999998,-0.00051402772,3.986,0,0
0.0006989180000000001,-0.00015093400000000014,0.0006383724,0.0011895285999999998,2.9466279999999984e-05,3.987,0,0
0.0006206518000000001,-0.001949406,0.0005070582,0.0007625700000000001,-0.00040804891999999995,3.988,0,0
0.0006718746,-0.0038070799999999996,0.0004279546,0.00039479500000000003,-0.00017239331999999998,3.989,0,0
0.00044436900000000007,-0.0037201179999999993,-3.888760000000001e-05,0.0005935204000000001,0.0009363866800000001,3.99,0,0
-0.000144827,-0.0012403659999999997,-0.0010408956000000002,0.0001742078,0.001087938,3.991,0,0
-0.00014592179999999998,0.0009321780000000001,-0.0009808146000000002,-0.00040450220000000007,0.0009040570000000001,3.992,0,0
0.00012153640000000002,0.001798302,-0.0007303576,-0.00027175120000000005,0.0013736762,3.993,0,0
0.00010256879999999996,0.002062744,-0.000899927,-0.00030570212400000003,0.0010060284,3.994,0,0
0.00045666780000000007,0.0027808420000000004,-0.0006057726,-0.000630379324,4.310400000000019e-06,3.995,0,0
0.0010683298,0.0034742440000000005,6.411962000000006e-05,-0.000508233124,-0.00047572480000000007,3.996,0,0
0.0008286344000000001,0.0027959760000000004,0.0003687854200000001,-0.000248088524,-0.0006685520000000001,3.997,0,0
-0.0002356296000000001,0.001410728,0.0005126158200000001,-0.00045364692400000003,-0.0010836166,3.998,0,0
-0.0006058878000000001,0.00011936200000000024,0.00059858222,-0.00041945480000000004,-0.0009746880000000001,3.999,0,0
-0.0005792878000000001,-0.000931326,0.00032290442,4.4248400000000015e-05,-9.486199999999992e-05,4.0,0,0
-0.0008822396,-0.0016134120000000003,0.0005338662,-0.00015335919999999995,-3.631999999999995e-05,4.001,0,0
-0.0007781296,-0.0012193432,0.000537133,-0.0004120358,-0.00047169380000000003,4.002,0,0
-0.0002862764,0.0002878967999999999,6.876939999999997e-05,8.002020000000002e-05,-5.625919999999998e-05,4.003,0,0
-0.00033138060000000003,0.0012983767999999998,-6.343240000000004e-05,-3.8729999999999976e-05,2.3179200000000003e-05,4.004,0,0
-0.0006172714000000001,0.0008646167999999999,3.7959599999999974e-05,-0.0005249332000000001,-0.00027838080000000006,4.005,0,0
-0.000620536,0.00023458679999999998,-7.863740000000001e-05,-0.000179076,0.0006625232,4.006,0,0
-0.0006987779999999999,-5.396180000000002e-05,-0.00039232,2.4932999999999986e-05,0.0015470312,4.007,0,0
-0.0003207472,-0.0006243018,-0.0003405214,-0.0004077928,0.0008340692000000001,4.008,0,0
-0.00010562119999999996,-0.0006733656,-0.0001851606,-0.00020051319999999997,0.00040100199999999997,4.009,0,0
-0.0005755243999999999,-0.00021563359999999992,-0.000212053,0.000295044,0.000582574,4.01,0,0
-0.0005364246,-0.00011747699999999996,3.286999999999995e-05,0.00018585645999999998,-0.000370398,4.011,0,0
-0.0004752486,0.00011563860000000005,0.000639123,0.00030956166,-0.001042022,4.012,0,0
-0.0009051766,0.00041253380000000003,0.0006632166,0.0006955824599999999,-0.00037025800000000005,4.013,0,0
-0.0006019126,6.641520000000002e-05,0.0005251966,0.0006579750600000001,4.332320000000002e-05,4.014,0,0
0.00016239939999999995,-0.0007244028,0.0006056287999999999,0.00017775066000000003,-0.00039781180000000003,4.015,0,0
0.0002839556,-0.0010988234000000002,0.00020481200000000004,2.5053199999999992e-05,0.0001455702,4.016,0,0
0.00037726620000000003,-0.0011508392000000001,-0.0003645348,-0.00012536460000000003,0.0008330142,4.017,0,0
0.0005453338,-0.0012391684,-0.0005563094,-0.0005937276,-0.00035405180000000003,4.018,0,0
0.0006807398,-0.0005129599999999999,-0.0004598636,-0.0005178122,-0.000764231,4.019,0,0
0.0006945338000000001,0.0011602420000000001,-0.0006737728000000001,-0.00044498436000000013,-6.400000000003191e-08,4.02,0,0
0.0005809822,0.002471946,-0.0005763588000000001,-0.00043809256000000005,-0.0004592554,4.021,0,0
0.0009409116000000001,0.002799208,-0.0002780956,9.086704000000007e-05,-0.0007994202000000001,4.022,0,0
0.0010899684,0.0024896960000000004,-0.0002595316,0.0005787190400000001,0.0005241698000000001,4.023,0,0
0.0008521984000000001,0.0014860000000000003,-0.00039577739999999996,0.00030919584000000007,0.0008461936000000001,4.024,0,0
0.0008230884000000002,0.0009260620000000001,-0.0005013264,0.0001573328000000001,5.16596e-05,4.025,0,0
0.0009264182000000001,0.0002642160000000001,-0.0004835202,0.0005442248000000001,0.0003871088,4.026,0,0
0.0005750130000000001,-0.001706792,-0.00041208660000000013,0.00031960920000000006,0.00029602040000000006,4.027,0,0
-0.00010721339999999991,-0.0028845700000000004,0.00016528540000000002,-6.001979999999994e-05,-0.0003206028000000001,4.028,0,0
-0.00039136719999999996,-0.003120724,0.0005026576000000001,8.277180000000004e-05,5.0165400000000047e-05,4.029,0,0
-0.0003758091999999999,-0.0035792732,0.0004754356000000001,0.0001421846,0.0005371114000000001,4.03,0,0
-0.0005342026,-0.0026730412,0.00022254120000000005,-0.0003666094,0.0005753764,4.031,0,0
-0.0005328058,0.0004677308,-0.0003172128,-0.0005736054,0.0008251974000000001,4.032,0,0
0.00011630540000000007,0.0036179187999999998,-0.0009534108000000001,-0.0001477364,0.00100782082,4.033,0,0
0.00023332020000000004,0.004672402799999999,-0.0010127790000000001,-0.00020308640000000006,0.00026455681999999997,4.034,0,0
-0.00020826060000000003,0.0033597080000000003,-0.00018075899999999995,-0.00044177560000000003,-0.0010550091800000001,4.035,0,0
-0.00029861000000000004,0.0007859160000000002,0.0002756340000000001,-0.00022936120000000007,-0.0016848599800000003,4.036,0,0
-0.0007213596,-0.0022079860000000003,0.0007363792000000001,-0.0003061906000000001,-0.0017144497800000004,4.037,0,0
-0.0010485108000000002,-0.004488292,0.0014195632,-0.0010809586000000001,-0.00192109,4.038,0,0
-0.0007668258000000001,-0.004658310400000001,0.0015949592000000002,-0.0012720786000000003,-0.0015383898,4.039,0,0
-0.000665367,-0.0024716824,0.0011616686000000002,-0.0008411110000000001,-0.0002583158,4.04,0,0
-0.0006529227999999998,0.0013353056000000002,0.00046510260000000005,-0.0010203014,0.00021127260000000005,4.041,0,0
-0.0003286208,0.0042617276,6.448140000000016e-05,-0.0011245724,0.00017591960000000004,4.042,0,0
0.0001420052,0.0042916496,-0.00021293659999999998,-0.0007269128000000001,0.0007875136000000001,4.043,0,0
5.690519999999996e-05,0.0018010259999999994,-0.0003070254000000001,-0.0007111854000000001,0.0006468902000000001,4.044,0,0
-0.0001193884,-0.00140712,-0.00010032080000000004,-0.0007307346000000001,0.0001990982,4.045,0,0
0.0003469864,-0.003897007,0.00014813200000000004,7.563139999999997e-05,0.0007360098,4.046,0,0
0.0008231584000000001,-0.004602579,-7.606800000000004e-05,0.0009001094,0.0010993288,4.047,0,0
0.0009312204000000001,-0.0031383289999999996,-0.00045276200000000005,0.0012214478000000001,0.0009264727999999999,4.048,0,0
0.0009780584,-0.0002107630000000001,-0.0006873430000000001,0.0016432624,0.0013311479999999999,4.049,0,0
0.0009667584000000002,0.0019499178000000005,-0.001264783,0.0016300822000000002,0.0017217314,4.05,0,0
0.0005882992,0.0019941626,-0.0011539430000000002,0.0007748682,0.0009346913999999998,4.051,0,0
0.00036395960000000006,0.0009993146,-0.0005266846000000001,0.00021670020000000005,7.258939999999988e-05,4.052,0,0
4.327278000000003e-05,-8.55714e-05,-0.0005406626,2.4889700000000013e-05,-0.0001364712,4.053,0,0
-0.00013038421999999998,0.0005363686,-0.00046200254000000005,-0.0003373893,-0.0007817332,4.054,0,0
0.00023025958000000003,0.0021448098,0.00011780946,-0.00024129010000000005,-0.0015435525999999999,4.055,0,0
0.00038459958,0.002555346,0.00031418526,0.00036310190000000004,-0.0012124116,4.056,0,0
0.00041804318000000004,0.0027022202,0.00028814526,0.0005153833000000001,-0.0006338734,4.057,0,0
0.0003499012,0.0022313161999999997,0.00113452726,0.00028632780000000007,-0.0009582688,4.058,0,0
-1.6735799999999983e-05,-3.388779999999986e-05,0.001741299,0.0003714230000000001,-0.0008483908,4.059,0,0
-0.000785416,-0.0024347718,0.0014912670000000001,0.0004481376000000001,0.00011514319999999997,4.06,0,0
-0.0014605268,-0.0036118357999999997,0.0014365882,0.0004089276,0.00020075819999999995,4.061,0,0
-0.0016421026,-0.0038571739999999997,0.0012780526000000002,0.0007003202,0.00016336400000000004,4.062,0,0
-0.0016037202,-0.002906782,0.0004400106,0.0012770282,0.0009587500000000001,4.063,0,0
-0.0013086544000000002,-0.0015591280000000001,-0.00046007740000000006,0.001098304,0.0013813060000000001,4.064,0,0
-0.0004477824,-0.0004966405999999999,-0.0007728794,0.000464848,0.0008228106,4.065,0,0
0.0002365146,0.0010318334000000001,-0.0013014512,0.00039033000000000004,0.0008463886,4.066,0,0
0.00019484260000000002,0.0021072814,-0.001947706,-2.0983399999999932e-05,0.0011534726,4.067,0,0
0.000461377,0.0019070162000000002,-0.0017311535999999998,-0.0008063554,-5.081940000000015e-05,4.068,0,0
0.0007486952,0.0015334358000000001,-0.0011344276000000001,-0.0007063524,-0.0008362394,4.069,0,0
0.0005391646000000001,0.0015027672000000002,-0.0006611315999999999,-0.00028413660000000003,-0.0007106296000000002,4.07,0,0
0.0005941922000000001,0.0010334288000000001,-2.8315400000000112e-05,-0.0005982725999999999,-0.0014115396,4.071,0,0
0.0007893048000000001,0.000382799,0.0007410582,-0.0007349797999999999,-0.0019219262,4.072,0,0
0.0005952712,0.0003018982,0.0007374408000000001,-0.00020474300000000001,-0.0008893201999999999,4.073,0,0
0.0005935732000000001,0.0005639926,0.00014663479999999998,0.00032610600000000005,-0.0003175162,4.074,0,0
0.0006683596000000001,0.0003088786,0.00010562880000000003,0.0004105478,-0.0007554986,4.075,0,0
0.00020316100000000004,-0.000557005,0.00027516260000000006,0.00044271579999999994,-0.00020593880000000005,4.076,0,0
-0.00022382179999999997,-0.0010417752,0.00031613280000000006,0.00046027319999999994,0.0001506698,4.077,0,0
-0.0005289622000000001,-0.0009995938,0.0007044378000000001,0.00014645839999999992,-0.000280038,4.078,0,0
-0.0007922890000000001,-0.0005309258,0.0011233452,-3.899360000000001e-05,0.00028886399999999995,4.079,0,0
-0.0009635832000000001,0.0003936214000000003,0.0008374236000000001,-4.551900000000005e-05,0.001268056,4.08,0,0
-0.0008061054000000002,0.0020576874,0.0003223984000000001,-0.0004728550000000001,0.00122114838,4.081,0,0
-0.00035560280000000006,0.0033358733999999998,-0.00010082139999999994,-0.0007995458000000001,0.00117248638,4.082,0,0
-0.00022440920000000003,0.0029683920000000003,-0.0005762746,-0.0006053998000000001,0.00158396418,4.083,0,0
-0.00034564700000000003,0.001366496,-0.0006531853999999998,-0.0010196144000000002,0.00093919718,4.084,0,0
-0.00016639520000000005,-0.0008333920000000001,-0.00034896380000000004,-0.0015195966000000002,-0.00010772481999999999,4.085,0,0
0.00015372999999999998,-0.0030599420000000004,-5.306239999999999e-05,-0.0010404788000000001,-0.000168751,4.086,0,0
0.0001837236,-0.0045850000000000005,0.000164832,-0.0003046148,-0.0003115384,4.087,0,0
0.0006491820000000001,-0.004634288,0.0003901676,-0.0004354268,-0.0011894184,4.088,0,0
0.0011048926,-0.0035310908000000005,0.0002072714,-0.00045015020000000003,-0.0014959034,4.089,0,0
0.0007997654000000002,-0.0010459448000000003,-0.0002480726,0.00021868380000000004,-0.0008180594,4.09,0,0
0.0004295080000000002,0.0018299952000000003,-0.00038246680000000004,0.0003405386,-0.0010147554,4.091,0,0
0.0004778272000000002,0.0036893792000000005,-0.0002294776,-3.742560000000003e-05,-0.0016793,4.092,0,0
0.00032753360000000007,0.0041364532,-0.00020107220000000002,-5.943599999999999e-05,-0.0010590778000000001,4.093,0,0
-0.00039811840000000007,0.0028355440000000006,0.00010994140000000005,-6.088199999999995e-05,-0.0006457406,4.094,0,0
-0.0005553246,0.0009521460000000004,0.0005970334000000001,-0.000565346,-0.0010032386,4.095,0,0
-0.00035087402000000007,-0.0009497740000000001,0.0005146842000000001,-0.0005766345999999999,0.0001273254,4.096,0,0
-0.0005048074200000001,-0.002583630000000001,0.00021872860000000005,-0.0003228508,0.0017873254000000003,4.097,0,0
-0.0006088398200000001,-0.0033400960000000007,-0.00024662519999999995,-0.00010958560000000002,0.0018841640000000002,4.098,0,0
-0.00056574382,-0.0029058340000000004,-0.0007770852,0.0003414444,0.0021799348000000004,4.099,0,0
-0.00050100782,-0.0012990060000000006,-0.0012706612,0.0007504202,0.0029490048,4.1,0,0
-0.000485546,0.0004452759999999999,-0.001435302,0.0005647968000000001,0.0021013092000000005,4.101,0,0
-0.000470266,0.001490844,-0.0009430860000000001,0.00023776779999999998,0.0005068292,4.102,0,0
-0.00039004099999999993,0.0024398,-9.359199999999993e-05,0.000513291,0.00021498020000000002,4.103,0,0
-0.00016215959999999998,0.0027747680000000004,0.0004352700000000001,0.0006714690000000001,-0.0003832598,4.104,0,0
-3.85188e-05,0.0015788080000000006,0.0009041120000000001,0.0006073386,-0.0019027038000000002,4.105,0,0
0.0002899872,3.591840000000007e-05,0.0015683420000000001,0.0006413438000000001,-0.0022108702000000003,4.106,0,0
0.0006173732,-0.0014714096000000001,0.0015107440000000003,0.0007074204000000001,-0.0014243282000000002,4.107,0,0
0.00039390899999999996,-0.0025862296,0.0011401198,0.0003796344,-0.0015008640000000002,4.108,0,0
0.00048347312000000006,-0.0023169814000000006,0.001100091,0.0001153534,-0.0015259660000000001,4.109,0,0
0.0006836629199999999,-0.0017954492000000002,0.0007042470000000001,0.00035449,-1.3975999999999962e-05,4.11,0,0
0.00042955512000000004,-0.0017940186000000003,-4.973499999999997e-05,0.0008040982,0.000619018,4.111,0,0
0.00028731252,-0.0011702866000000002,-0.0003525516,0.0013491290000000001,0.000694384,4.112,0,0
0.00021809992,-0.00035859140000000004,-0.0007771094,0.001765751,0.0018563420000000002,4.113,0,0
8.58400000000012e-07,1.2463999999999683e-06,-0.0012031986000000001,0.001848252,0.002783458,4.114,0,0
-0.00011964319999999999,0.0006981002,-0.0012491266000000001,0.0015021770600000001,0.002569146,4.115,0,0
-0.0002571478,0.0027384712,-0.0015455406,0.0010702046600000001,0.0024533040000000003,4.116,0,0
-0.0002954056,0.0047812772,-0.001772602,0.0005776026599999999,0.0022523316000000004,4.117,0,0
-0.00021920639999999998,0.004472892,-0.0013300766000000001,-0.00020779533999999998,0.0004778696,4.118,0,0
-0.0003284804,0.0031428339999999997,-0.0006860006,-0.00063817534,-0.0009529404,4.119,0,0
-0.0002693474,0.0020056659999999997,-0.00012613860000000007,-0.00046463759999999994,-0.0014893144,4.12,0,0
0.00014597100000000006,0.00010520200000000018,0.0007170514,-0.0006233272,-0.0026704104,4.121,0,0
0.00036099740000000003,-0.001972038,0.0014833254,-0.0008735732000000001,-0.003466334,4.122,0,0
0.000570849,-0.002043936,0.0017980860000000002,-0.0006113862000000001,-0.0027316058,4.123,0,0
0.0011516750000000002,-0.0011352500000000002,0.0014554422000000002,-0.0008798802,-0.0022442398,4.124,0,0
0.0015479690000000002,-0.001295386,0.0011205872800000001,-0.0017457990000000001,-0.0022887918,4.125,0,0
0.0015546630000000002,-0.001849248,0.0011729332799999999,-0.0018442110000000001,-0.0009523498,4.126,0,0
0.0010954380000000002,-0.0020399980000000003,0.0008004892800000001,-0.0015807270000000003,0.00015255219999999999,4.127,0,0
0.0005475230000000003,-0.0014778424000000002,-4.537671999999996e-05,-0.0014533742400000002,-3.352600000000003e-05,4.128,0,0
0.00034000080000000013,-0.0006486724,-0.00066303092,-0.0006904502400000001,0.0006089159999999999,4.129,0,0
-0.00018285539999999992,-0.00013577020000000019,-0.000928462,0.00014834255999999997,0.0017004440000000002,4.13,0,0
-0.0011204494,0.0008903678,-0.0011806543600000002,0.00027513456,0.0017424139999999999,4.131,0,0
-0.0015289544,0.0023846178,-0.0013928187599999999,0.00014160296,0.0014726312,4.132,0,0
-0.0013869884000000002,0.0034316482000000003,-0.0014096247600000002,0.00020045019999999998,0.0019991272,4.133,0,0
-0.0015787952000000003,0.0035151162000000005,-0.00130708076,-0.0001182568,0.0018397356,4.134,0,0
-0.0014755316000000004,0.0018742980000000002,-0.00118048696,-0.0005839835999999999,0.0003507136000000002,4.135,0,0
-0.000826022,-0.0005539819999999995,-0.0008940466000000001,-0.00038390220000000005,-0.0005004544,4.136,0,0
-0.00042772959999999994,-0.002454952,-0.00040204419999999996,-0.0002978888,-0.0010243936,4.137,0,0
-0.00021887400000000003,-0.004465988,0.0005277837999999999,-0.0006339918,-0.0020337136,4.138,0,0
-0.00017964,-0.005597272,0.0016404618,-0.0006360806000000001,-0.0022312384,4.139,0,0
-4.702900000000003e-05,-0.003897579,0.002050938,-0.00023537059999999998,-0.0011007544000000001,4.14,0,0
0.00014717540000000001,-0.0016255070000000002,0.0018184052,-8.643720000000007e-05,-0.0006238087999999998,4.141,0,0
0.00026696988000000005,-0.00058197,0.0013498206,6.531499999999997e-05,-0.0005682808,4.142,0,0
0.00023766588000000003,0.00034047980000000003,0.0006261626,0.000640669,0.0005198052000000001,4.143,0,0
0.00027169668000000003,0.0009469197999999999,6.994839999999999e-05,0.000822164,0.0006648588000000001,4.144,0,0
0.00042315428000000004,0.0011709208,-8.439999999999999e-05,0.00048224000000000004,-0.00013065719999999994,4.145,0,0
0.00027940788,0.0011894268,-0.0002116516,0.0006004092,0.0007670512000000001,4.146,0,0
0.00017823420000000003,0.0012910158,-0.000421975,0.0008653012000000001,0.0020920912,4.147,0,0
0.00024620940000000003,0.0017834500000000002,-0.000509383,0.0003218672,0.0018975374,4.148,0,0
0.0004387748,0.002330982,-0.0007371728000000001,-1.5231399999999991e-05,0.0021923922,4.149,0,0
0.0005770568000000001,0.0023680420000000003,-0.0009193922000000001,4.41556e-05,0.0030394602000000004,4.15,0,0
0.0006370332,0.0018043952,-0.0007888882,-0.0006419184000000001,0.0017466422,4.151,0,0
0.000596419,0.0011784672000000002,-0.0004949766,-0.0012973624,-0.0003123277999999999,4.152,0,0
0.0005145262,0.0006793256,2.7922000000000103e-06,-0.0012838764000000003,-0.0010454140000000002,4.153,0,0
0.0004732692000000001,0.0006297176000000001,0.0004458042,-0.001351605,-0.002018446,4.154,0,0
5.167199999999998e-05,0.0011601756,0.0006735542,-0.0013025238000000001,-0.0031483820000000004,4.155,0,0
-0.000535474,0.0023208724,0.0006297959,-0.0008278402,-0.003074424,4.156,0,0
-0.000626739,0.0027779712000000002,0.0007600065000000001,-0.00038612100000000007,-0.0020723486,4.157,0,0
-0.0005568330000000001,0.0010305068,0.0011971997,-0.000173195,-0.0014278568000000002,4.158,0,0
-0.0007759384,-0.0014386752000000002,0.0015056497,0.0002745594,-0.0009820282,4.159,0,0
-0.0007521932,-0.0030319912000000004,0.0013030193,0.0010898052000000002,-0.0001088582,4.16,0,0
-9.460120000000005e-05,-0.0041974402,0.0011846460000000001,0.0013533796,0.0002661488,4.161,0,0
0.00039808679999999997,-0.004929943,0.0010526598000000001,0.0015483404,0.0007023614,4.162,0,0
0.00046189099999999997,-0.004354401,-2.488220000000001e-05,0.0021026044000000002,0.0018495756000000002,4.163,0,0
0.0009523682,-0.0029153290000000004,-0.0010993682000000002,0.0020757866000000002,0.002844005,4.164,0,0
0.0012752882,-0.0010564409999999995,-0.00162625,0.0013161106,0.0029578330000000004,4.165,0,0
0.0009771932000000002,0.0009506100000000004,-0.00226273,0.0009709322000000002,0.0031033980000000003,4.166,0,0
0.0007176949400000001,0.0020938800000000002,-0.0025289440000000004,0.0008796402,0.0028493176,4.167,0,0
0.00037068674000000003,0.001990208,-0.0019429852,8.502199999999927e-06,0.0006923996,4.168,0,0
-0.0006729872600000002,0.0013979879999999995,-0.0015015774000000002,-0.0004778804000000001,-0.0012647703999999998,4.169,0,0
-0.0015584032600000001,0.0001899199999999999,-0.0007924470000000002,-0.0005123538000000002,-0.0020597544,4.17,0,0
-0.00139453926,-0.0010721340000000002,0.000399127,-0.0008516774000000001,-0.0035037344000000002,4.171,0,0
-0.0010929250000000002,-0.0011197740000000005,0.001031611,-0.0010680582000000003,-0.004516712000000001,4.172,0,0
-0.001012471,0.0002624582,0.0012180962000000002,-0.0006334600000000001,-0.0034559508,4.173,0,0
-0.0006339989999999999,0.0023656462,0.0013626968,-0.00018605440000000003,-0.0022981167999999996,4.174,0,0
-2.3631999999999953e-05,0.0033808922,0.00121799812,3.8791799999999976e-05,-0.0019660100000000002,4.175,0,0
-7.600179999999991e-05,0.0032824742,0.00069275952,0.0005577276,-0.000397846,4.176,0,0
-0.00019732120000000002,0.0020619022,0.00027198771999999995,0.0005967500000000001,0.001141812,4.177,0,0
0.0004297728000000001,0.0002492979999999998,1.0244719999999988e-05,0.00038233259999999997,0.0012143408000000002,4.178,0,0
0.0010507208,-0.0005623100000000001,-0.00034771768000000004,0.00041299479999999997,0.0019280128000000003,4.179,0,0
0.0012847138,0.000334296,-0.0008837854,0.0003846158,0.0032581300000000006,4.18,0,0
0.0011289881999999999,0.0006353360000000001,-0.0012758168000000002,0.000102184,0.0036121580000000003,4.181,0,0
0.0005511756,-0.0008092100000000003,-0.0015875850000000003,-0.00011958119999999998,0.00332431,4.182,0,0
-0.0004753404000000001,-0.0011768220000000001,-0.0015845708,-0.00012586999999999999,0.0036054480000000002,4.183,0,0
-0.0013259424000000002,-0.001965746,-0.0010328268000000002,-0.0005369678,0.0027848136000000003,4.184,0,0
-0.0013920624,-0.004565138000000001,-0.0002824727999999999,-0.0011670836,0.0004936556,4.185,0,0
-0.001105052,-0.005673164000000001,0.0007143872000000001,-0.0013134936,-0.0007722864,4.186,0,0
-0.0008957859999999999,-0.003690452,0.0013447552,-0.0012314288000000002,-0.0013545632,4.187,0,0
-0.00021589219999999993,-0.0017726252,0.00130244108,-0.0013617168,-0.0027283152000000003,4.188,0,0
0.0005436498000000001,-0.0011297932000000003,0.00119265648,-0.0010772496199999999,-0.0035475848,4.189,0,0
0.0004295502000000001,-0.00014418920000000004,0.0012525184800000002,-0.0002476576200000001,-0.0027162628,4.19,0,0
0.00048345420000000004,0.0005331768000000001,0.00100500048,0.00022928837999999996,-0.0024655788,4.191,0,0
0.0010727022,0.0007434482000000001,0.0008287286800000001,0.00042778138,-0.0024652196,4.192,0,0
0.0009604306000000001,0.0008714270000000001,0.0008925808000000001,0.0009268133800000001,-0.0010286535999999998,4.193,0,0
0.0006419356,0.0015755950000000002,0.0005006442,0.0012785902,0.0002254984,4.194,0,0
0.0007817292,0.0028328570000000003,0.00018034940000000006,0.0011644028,0.0005811134,4.195,0,0
0.00048797760000000005,0.0038078570000000004,8.83688e-05,0.0011658888000000002,0.0016529093999999999,4.196,0,0
0.00017513839999999998,0.004536399600000001,7.4319e-05,0.0010533296,0.002855451,4.197,0,0
0.00023634258,0.0043393356,-9.94288e-05,0.0003289776000000001,0.003033159,4.198,0,0
-0.0003597184200000001,0.0029046796000000005,-0.0005561556,-0.00015970899999999998,0.003157589,4.199,0,0
-0.00113982242,0.0013080162000000002,-0.0011996168,-0.00014256039999999994,0.003332004,4.2,0,0
-0.00111311198,-0.00032801779999999995,-0.0017407502,-0.0005986804,0.002277924,4.201,0,0
-0.0010362327800000001,-0.0016295578,-0.0018500208,-0.0011617474,0.00012566200000000013,4.202,0,0
-0.0008916009600000002,-0.0014418444000000004,-0.0017391104,-0.0009714274000000001,-0.0012078879999999998,4.203,0,0
0.00016802704000000012,-0.00029455440000000007,-0.0011174483999999998,-0.0010655268,-0.00221911,4.204,0,0
0.00115482504,0.000624419,-0.0002579532,-0.0014138294,-0.00363847,4.205,0,0
0.0012097228000000002,0.0013407850000000002,0.0004916008000000001,-0.0012103476,-0.003703156,4.206,0,0
0.0009260798000000002,0.0018677650000000004,0.001163273,-0.0007745694,-0.0025157202000000004,4.207,0,0
0.0006170005999999999,0.0006291600000000001,0.0018395192,-5.5175399999999946e-05,-0.0021080642000000003,4.208,0,0
0.00019231660000000004,-0.002258352,0.0024911132,0.0006851146000000001,-0.0017695708,4.209,0,0
-0.0002551554,-0.004457372,0.002515488,0.001295272,-0.0004547428000000001,4.21,0,0
-0.00040461359999999994,-0.00531602,0.0019277024,0.0017445222000000002,0.00018511319999999997,4.211,0,0
-0.00039483720000000006,-0.0051648172000000004,0.0012732584,0.0020582200000000004,0.0005469674,4.212,0,0
-0.0005675562,-0.0034437572,0.0003464404000000001,0.0021286620000000003,0.0016825634,4.213,0,0
-0.0008114502000000001,-0.0006992232000000002,-0.0008538856,0.001980226,0.0023448360000000003,4.214,0,0
-0.0009190100000000002,0.0010412228,-0.0018532476000000001,0.0015970804000000002,0.0020672268000000004,4.215,0,0
-0.0008506256,0.0015690629999999999,-0.002511456,0.0010830114,0.0020696628,4.216,0,0
-0.000621689,0.0017304522,-0.002842528,0.0007351227999999999,0.0021122968000000003,4.217,0,0
-2.7017000000000002e-05,0.0019592082,-0.00258796332,-0.0003522772,0.0007874208000000001,4.218,0,0
0.00044965660000000003,0.0028602182000000004,-0.00166791332,-0.0013194591999999999,-0.00024270720000000006,4.219,0,0
0.0004575446,0.0033183362,-0.0005499733200000001,-0.0016676936,-0.0002932498000000001,4.22,0,0
0.0005352534,0.00228539,0.0005913746800000001,-0.0021731306000000003,-0.0014418458,4.221,0,0
0.0006668014,0.0010794959999999999,0.00137773268,-0.0021877054,-0.0027215778,4.222,0,0
0.0006078094000000001,0.00030392319999999974,0.0015331982000000002,-0.0015333071999999999,-0.0023101648000000002,4.223,0,0
0.0002178558,-0.0008665708000000002,0.0013521218,-0.0010980138,-0.0016317197999999998,4.224,0,0
-5.599239999999991e-05,-0.0013578308000000002,0.0013140258000000002,-0.0008284478,-0.002019664,4.225,0,0
0.0001715960000000001,-0.0007303328,0.0011931906,4.41722e-05,-0.001427254,4.226,0,0
4.640420000000004e-05,-0.0009304088,0.0009313576,0.0005768176000000001,6.804e-05,4.227,0,0
-0.00040183380000000004,-0.0015442379999999999,0.0008183296000000001,0.00061937,0.00010804113999999996,4.228,0,0
-0.0002391888,-0.0017534325999999999,0.000347972,0.0008132958000000001,0.00027777814,4.229,0,0
0.00023883660000000004,-0.0018297406,-0.00040732200000000006,0.0011393918,0.00188170414,4.23,0,0
9.795260000000001e-05,-0.0012445166000000002,-0.0011503808000000002,0.0009550856,0.00290850214,4.231,0,0
3.4368200000000035e-05,-0.0002442186,-0.0015988478000000003,0.0003250676,0.0027468221399999998,4.232,0,0
0.00040642680000000004,0.0001314914,-0.0017507232000000003,0.000469193,0.00321873,4.233,0,0
0.00046114074000000004,7.632493999999997e-05,-0.0017895752000000003,0.0003563308,0.0031903419999999997,4.234,0,0
0.00039265814000000003,4.012293999999995e-05,-0.0012651266,-0.00041591120000000005,0.0014197920000000004,4.235,0,0
0.00018587774000000003,0.00045967093999999995,-0.0002717566000000001,-0.0005737502,0.00017459600000000012,4.236,0,0
0.00012153931999999998,0.00165426894,0.0003562314,-0.00036439600000000007,-0.000539544,4.237,0,0
0.00031673072000000004,0.00255791094,0.0007665346,-0.000814948,-0.0020982120000000003,4.238,0,0
0.00037490878,0.0028847580000000003,0.0015733266,-0.0009763430000000001,-0.003256976,4.239,0,0
0.00012523198000000005,0.0024400850000000003,0.001751056,-0.00039166220000000005,-0.002883704,4.24,0,0
-5.484199999999842e-07,0.0013632129999999998,0.0012885248,-0.0005449970000000001,-0.002884742,4.241,0,0
0.00010120740000000005,0.0005151412,0.0014550068,-0.0005513270000000001,-0.003163244,4.242,0,0
-0.00030069440000000003,-0.00042183080000000005,0.0014109648,0.000376143,-0.0018226100000000001,4.243,0,0
-0.0006679274000000002,-0.0014755308,0.0007172628,0.0007645856000000001,-0.000537884,4.244,0,0
-0.0006990494000000001,-0.0016331278000000001,0.00048725736,0.0006183774000000001,-0.00019841179999999996,4.245,0,0
-0.0006873954000000001,-0.00119542592,0.00021906056000000002,0.0013870594,0.0010577982,4.246,0,0
-0.0008967272,-0.00131125752,-0.0009022474400000001,0.0017089172000000002,0.0026757062,4.247,0,0
-0.0010653794,-0.0010580621200000002,-0.00172624544,0.0007733890000000001,0.0027846182,4.248,0,0
-0.0008939306,-0.00043074672,-0.00193021744,0.0007180692000000001,0.0025577862000000003,4.249,0,0
-0.0009493146000000001,-0.00029697672000000006,-0.002362874,0.0009516006,0.002920216,4.25,0,0
-0.0009004178000000002,-0.00038955580000000004,-0.0022992760000000003,-5.798940000000007e-05,0.0019001760000000002,4.251,0,0
-0.00040436519999999997,-0.0005270108,-0.0016474562599999999,-0.0009575214000000002,-8.073800000000012e-05,4.252,0,0
-6.128340000000003e-05,-0.0008591262000000001,-0.00128559506,-0.0008630646000000003,-0.0007137880000000001,4.253,0,0
-0.00030976020000000003,-0.0016759376000000002,-0.00074395326,-0.0012875774000000004,-0.0011019178,4.254,0,0
2.8481800000000002e-05,-0.0018154816000000003,0.0005684867400000001,-0.0019205294,-0.0022688438000000003,4.255,0,0
0.0006626698000000001,-0.0013349044000000002,0.00166117674,-0.0015392486000000002,-0.0023872758000000006,4.256,0,0
0.0003403738,0.00014875200000000004,0.001961857,-0.0009464928,-0.0015046862,4.257,0,0
0.00034775539999999997,0.003246506,0.0025252538000000006,-0.0007016128000000001,-0.0017349942,4.258,0,0
0.0009449394,0.006198106,0.0026231038,-0.00015301680000000004,-0.0019089024,4.259,0,0
0.0012441034,0.008139190000000001,0.0016953392000000002,0.0006713292000000001,-0.0008160424000000002,4.26,0,0
0.0010879694000000002,0.008616722,0.0010420634000000001,0.000863748,-0.0002464984,4.261,0,0
0.0008710289999999999,0.006617145999999999,0.0005509050000000002,0.0005624482000000002,0.00018866199999999987,4.262,0,0
0.0006949020000000001,0.001541266,-0.000522269,0.0003722216,0.0019051660000000002,4.263,0,0
0.0005503622000000002,-0.0038291740000000007,-0.0014271008,0.0003570316,0.00328361,4.264,0,0
0.0005060542,-0.007594464,-0.0015794048,0.0001734696,0.0032670160000000006,4.265,0,0
0.0004641282,-0.009536296,-0.0018312040000000001,0.000341274,0.0034101800000000005,4.266,0,0
0.00041367939999999994,-0.00890200616,-0.0020019356,0.000764737,0.0034209540000000004,4.267,0,0
7.513899999999995e-05,-0.006008182160000001,-0.0013721200000000001,0.000463047,0.0018439300000000001,4.268,0,0
1.9798999999999964e-05,-0.0018890581599999992,-0.0007608997999999999,9.830039999999995e-05,8.839799999999995e-05,4.269,0,0
1.5998999999999994e-05,0.00114708584,-0.00037966620000000003,-0.00021186780000000008,-0.000536296,4.27,0,0
-0.0003683030000000001,0.00221940514,0.00025851080000000005,-0.0009139618000000001,-0.0016590700000000001,4.271,0,0
-0.0003056608000000001,0.0013792472999999998,0.0009222088,-0.001113091,-0.003245234,4.272,0,0
0.00017647599999999998,0.0002641092999999999,0.0013486332,-0.0006138776,-0.003616168,4.273,0,0
0.00024591159999999996,-0.0007633707000000002,0.0014067652,-0.000243219,-0.0035797520000000003,4.274,0,0
-3.87604e-05,-0.0025049027000000005,0.0012106502,-4.788539999999995e-05,-0.004050288,4.275,0,0
-0.00013021620000000002,-0.0030519160000000004,0.0009811362000000001,0.0005652644000000001,-0.00352761,4.276,0,0
-0.00033836520000000004,-0.0021045496000000005,0.0006872236,0.0011479426,-0.0020621260000000005,4.277,0,0
-0.000623508,-0.0011480016,0.0004984434,0.0012157332,-0.0010606679999999999,4.278,0,0
-0.0008410754000000001,-0.00045767160000000003,0.0006398352,0.0011060768,0.0004219439999999999,4.279,0,0
-0.0010162650000000001,0.0010455364,0.0002943451999999999,0.0012045554000000003,0.002516134,4.28,0,0
-0.0010685652000000001,0.0026756684,-0.0002932548,0.0012977016,0.003426688,4.281,0,0
-0.0010181892000000001,0.0036262620000000003,-0.0009022722,0.0008252109400000001,0.0030029764000000002,4.282,0,0
-0.0009281436000000002,0.00414794,-0.0019099580000000002,0.0004894007399999999,0.0031049624,4.283,0,0
-0.0007767774000000001,0.0038168188,-0.0022300900000000005,0.00026867654,0.0028069544000000005,4.284,0,0
-0.00025042779999999995,0.0025915668,-0.0019179562,-0.0002732954600000001,0.0006864864000000002,4.285,0,0
0.0004880022,0.0013704685999999999,-0.0014764942000000001,-0.0007929294600000001,-0.0005560176,4.286,0,0
0.0011611962,0.0008424486,-0.0005096322,-0.0008616872000000002,-0.000453625,4.287,0,0
0.0015530006000000001,0.00027622059999999997,0.0008099978000000001,-0.001097925,-0.001489645,4.288,0,0
0.0016288236000000002,-6.248020000000003e-05,0.0017377618,-0.0014801724,-0.002506595,4.289,0,0
0.00110913,0.00013066180000000002,0.0021979540000000002,-0.0013761264,-0.0017972656,4.29,0,0
0.000490397,-0.0005813700000000001,0.0018747832,-0.0014481084000000002,-0.001331001,4.291,0,0
0.0001698418,-0.002101996,0.0013375272000000003,-0.001425079,-0.0017160320000000001,4.292,0,0
-0.0002503922,-0.002822956,0.0011727492,-0.0011599838,-0.0008014559999999999,4.293,0,0
-0.0004822714,-0.0026234080000000003,0.00039631560000000004,-0.0008723118000000001,0.0006288159999999999,4.294,0,0
-0.0004848168,-0.0020141860000000003,-0.0001959684,-0.0009132658000000001,0.0010187026,4.295,0,0
-0.00029459260000000003,-0.0006364420000000002,-0.00013625159999999998,-0.0007668342,0.002041794,4.296,0,0
-0.0002344132,0.001394332,-0.0004351876,-0.0006384344,0.0035880040000000005,4.297,0,0
-0.0003065752,0.003110372,-0.0011632596,-0.0008227875999999999,0.0036412220000000004,4.298,0,0
-0.00014566280000000002,0.004291428,-0.0015968920000000004,-0.0005798480000000001,0.003072416,4.299,0,0
0.0003176622,0.0042809622,-0.0016729100000000001,-0.00039571000000000007,0.003378664,4.3,0,0
0.00020815499999999996,0.0027179942000000006,-0.0012821720000000003,-0.0007942796000000002,0.002766786,4.301,0,0
-0.00023092120000000005,0.0008368682000000001,-0.0006327476000000001,-0.0011968844000000002,0.001059806,4.302,0,0
-6.858560000000004e-05,-0.0008913698000000003,-0.00045859960000000006,-0.0008520766000000001,0.0004889639999999999,4.303,0,0
-6.676980000000003e-05,-0.0025581218,0.000121533,-0.0008643704000000001,-0.00026754,4.304,0,0
-0.00010736780000000003,-0.0032020320000000005,0.000964607,-0.0009255318000000001,-0.0020726440000000002,4.305,0,0
0.0003256642,-0.002550646,0.0011841070000000002,-0.0003014224,-0.0028738480000000005,4.306,0,0
0.0008233804,-0.00198921,0.0012150946,0.0006182196,-0.0023642500000000005,4.307,0,0
0.0010434114,-0.0016893334000000002,0.0015234168,0.0011408618,-0.0022528370000000006,4.308,0,0
0.001054342,-0.0012519336,0.0016899942000000003,0.0011990246000000001,-0.0019896526000000004,4.309,0,0
0.0006466330000000002,-0.0005871576,0.0010881262,0.0018761760000000002,-0.00037961860000000007,4.31,0,0
0.00017741440000000006,2.6704400000000035e-05,0.0005062104,0.0023081005999999998,0.0006244294,4.311,0,0
-1.1209800000000006e-05,0.00029547051600000004,0.0004125706,0.0020810366,0.0010727234000000002,4.312,0,0
-0.0004065784,0.000691263916,-0.00010440359999999997,0.0021334206,0.0024367784000000003,4.313,0,0
-0.0009484596,0.001063596116,-0.0009622056,0.002475764,0.0033555600000000005,4.314,0,0
-0.0010982186,0.001132898116,-0.0014521396,0.00234538,0.0029126144,4.315,0,0
-0.0011085957999999998,0.001613504116,-0.0019913758000000004,0.0018239324000000005,0.00239996496,4.316,0,0
-0.0013118398,0.0019698,-0.0024521100000000004,0.0013125426000000003,0.00189475096,4.317,0,0
-0.0013831698,0.0011794719999999998,-0.0020218500000000004,0.00048797080000000006,-0.00016457304000000005,4.318,0,0
-0.001068369,0.00015392399999999973,-0.0013880034000000002,-0.0002696352,-0.0018824830400000002,4.319,0,0
-0.0006270208000000001,-0.0009515980000000003,-0.0008950894000000001,-0.000560422,-0.00220277944,4.32,0,0
-0.0005050598000000001,-0.002459796,0.00023861260000000007,-0.0006638574,-0.003660208,4.321,0,0
-0.00012671179999999997,-0.003429852,0.0012224266000000002,-0.0004657666,-0.005294958000000001,4.322,0,0
0.0005919902000000001,-0.0028735670000000005,0.0015045506,9.691319999999997e-05,-0.005016540000000001,4.323,0,0
0.0011135974000000002,-0.0016994750000000004,0.0018586220000000003,0.0005351166,-0.004602138,4.324,0,0
0.0012970972000000002,-0.0003780750000000002,0.0022037080000000004,0.0004934840000000001,-0.004951022,4.325,0,0
0.001190389,0.0010812410000000001,0.0017973856000000003,0.000755957,-0.0035033018400000004,4.326,0,0
0.0007343050000000002,0.0017307213999999999,0.0009331336000000001,0.0011028260000000001,-0.0010816718400000003,4.327,0,0
0.00026337020000000004,0.0019006064000000001,0.0003199076000000001,0.0007465636000000001,-0.00014393384000000006,4.328,0,0
-0.00011381500000000005,0.0020942504000000003,-0.0002821483999999999,0.0007155012000000001,0.00127134016,4.329,0,0
-0.000703569,0.0022289104,-0.0008932483999999999,0.0012178786000000001,0.00340961016,4.33,0,0
-0.0005506886,0.0020186564,-0.0012845620000000002,0.0012253256,0.004067164,4.331,0,0
-6.166860000000006e-05,0.001672864,-0.0012293172,0.00016297959999999993,0.0036124420000000004,4.332,0,0
-0.00022229780000000005,0.0014732206,-0.0011332952,-0.0004945400000000001,0.0034950040000000003,4.333,0,0
-0.0003140338000000001,0.0009893108,-0.0013987252,-0.000656656,0.0025663128,4.334,0,0
-6.645620000000003e-05,-0.00030939720000000006,-0.0011392912,-0.00161179,1.0346799999999892e-05,4.335,0,0
-0.0002898932,-0.0015356632000000001,-0.00044387920000000006,-0.002170317,-0.0014997532,4.336,0,0
-0.0006332942,-0.0015599252,-3.204999999999999e-05,-0.0017975450000000002,-0.0020048192,4.337,0,0
-0.00016826819999999997,-0.0019806058,0.0007521800000000001,-0.0017810190000000002,-0.0032919612000000004,4.338,0,0
0.000309163,-0.002584662,0.001832424,-0.002085244,-0.004006954,4.339,0,0
0.0007034814000000001,-0.0018930076000000004,0.002089666,-0.001720212,-0.0028844320000000006,4.34,0,0
0.0009068780000000001,-0.0013506896000000002,0.0019010040000000002,-0.0014580770000000001,-0.0021107960000000003,4.341,0,0
0.000492181,-0.0010770600000000001,0.0017768202000000002,-0.0012217584,-0.0020532172,4.342,0,0
2.2487000000000125e-05,-0.001019184,0.0013594838,-0.0001877704000000001,-0.0005488252,4.343,0,0
-0.0002333826,-0.0009262160000000001,0.0009177079999999999,0.0007534956,0.0009892348000000001,4.344,0,0
-0.00039037060000000006,0.0012577055999999998,0.000674118,0.0012248736,0.0016201468,4.345,0,0
-0.0004920396,0.0040770536,6.116199999999997e-05,0.0021193686,0.0028484408,4.346,0,0
-0.00026509959999999996,0.005197808,-0.0007554662000000001,0.0030044240000000003,0.004295750000000001,4.347,0,0
-5.300759999999996e-05,0.006115284,-0.0016383658,0.0027569434,0.004284584000000001,4.348,0,0
-4.634659999999998e-05,0.006618602800000001,-0.0027033300000000003,0.0019910154,0.0037647160000000004,4.349,0,0
-0.00020852940000000002,0.004021398800000001,-0.003375578,0.0016404759999999999,0.0038738440000000004,4.35,0,0
-0.00025893060000000003,7.212679999999989e-05,-0.0033740140000000003,0.00064468,0.0028116026000000005,4.351,0,0
-0.00014975459999999998,-0.0020480152000000003,-0.0030761980000000005,-0.000877692,0.00047165460000000016,4.352,0,0
9.416940000000001e-05,-0.0033961472,-0.0022566288000000004,-0.001249775,-0.0005499013999999999,4.353,0,0
0.00043375200000000003,-0.005606632,-0.0002076748000000002,-0.001348759,-0.0011192533999999999,4.354,0,0
0.00026563160000000005,-0.007244808,0.0015061032,-0.0017465716,-0.0027855354,4.355,0,0
0.00018930340000000004,-0.006814908,0.0023866612,-0.001613129,-0.003239196,4.356,0,0
0.0003426574000000001,-0.006005188000000001,0.0033468791999999997,-0.001286501,-0.0023327800000000004,4.357,0,0
-9.248999999999996e-05,-0.005155254200000001,0.003759524,-0.0014782834,-0.0019539930000000002,4.358,0,0
-0.0004787637999999999,-0.0027797842,0.00312744,-0.0013431854000000001,-0.0016920728,4.359,0,0
-8.436260000000003e-05,-0.0003898042,0.001851424,-0.0008884956000000002,-0.0005040828000000002,4.36,0,0
0.00031262280000000003,0.0008972378,0.00067134,-0.0007140198000000001,0.0001931592,4.361,0,0
0.0004658368,0.0016011978000000002,-0.00022442600000000006,-0.0002303338000000001,0.000255001,4.362,0,0
0.0005848402000000001,0.002024174,-0.0010699080000000003,0.0005186882000000001,0.00147916,4.363,0,0
0.0004791608,0.00220977,-0.002015592,0.0009343802000000001,0.0027476478,4.364,0,0
0.0001879948,0.0019863798,-0.00217773,0.000607822,0.0026801594000000002,4.365,0,0
0.00014283480000000002,0.0017082558,-0.001821094,0.0004233750000000001,0.0025464394,4.366,0,0
0.00010154000000000003,0.0013565843999999998,-0.001774496,0.0002171400000000001,0.0030714496,4.367,0,0
-0.00021502,0.0011042484,-0.00138637314,-0.000655512,0.0018861622000000003,4.368,0,0
-0.0002625392,0.0011374844,-0.00073473314,-0.0010478666,-9.067180000000012e-05,4.369,0,0
-0.0002475244940000001,0.0018264726000000002,-0.00030213594,-0.0008611483400000001,-0.00042305500000000014,4.37,0,0
-0.0004266582940000001,0.0025543866000000003,5.966286e-05,-0.0010498317400000003,-0.0011958070000000001,4.371,0,0
-0.000252509494,0.0024155772000000004,0.00068179886,-0.0011089877400000002,-0.002610365,4.372,0,0
0.000337783106,0.0024196972000000002,0.001107468,-0.00056607114,-0.0029275496,4.373,0,0
0.000730081506,0.0024136812000000005,0.0009579938,-0.00055854134,-0.0024429036000000004,4.374,0,0
0.0007641391999999999,0.0019443152000000001,0.0011789666,-0.0007462458,-0.0026620640000000004,4.375,0,0
0.0006448716,0.0012080562000000002,0.0014898758,1.1338199999999965e-05,-0.0020958515160000002,4.376,0,0
0.0004083316,-7.107700000000012e-05,0.0012636758,0.0006531252000000001,-0.0002728675159999999,4.377,0,0
0.00016357460000000003,-0.0017297630000000003,0.000840432,0.0006637508,0.0003154036840000001,4.378,0,0
0.00011417859999999998,-0.0028315310000000004,0.00043538619999999986,0.0011561816,0.001014193684,4.379,0,0
-1.8127400000000012e-05,-0.0034449050000000003,-1.8075800000000075e-05,0.0016867842,0.0025367876840000003,4.38,0,0
-1.0148200000000012e-05,-0.0036221362000000003,-0.0006728418,0.0013891290000000002,0.0030410032,4.381,0,0
0.0001712016,-0.0026665622000000004,-0.0009785092,0.001033733,0.0023688600000000004,4.382,0,0
-0.00023151400000000005,-0.0013562119999999999,-0.0012540574,0.0010533812000000002,0.0025115768000000004,4.383,0,0
-0.000925846,0.00020608999999999992,-0.0015575994,0.0007542816,0.0023471048000000003,4.384,0,0
-0.0009517848000000001,0.001951352,-0.0014457063999999999,0.00012475160000000003,0.00025006279999999995,4.385,0,0
-0.0007826294000000001,0.0029616522,-0.0010053236,-0.0003413412,-0.0011413311999999998,4.386,0,0
-0.0008146416,0.0032497302,-0.0006686444000000001,-0.0007303652,-0.0014254158,4.387,0,0
-0.00023599740000000003,0.0027128660000000004,-0.00014755640000000005,-0.0011293876000000001,-0.0026659078,4.388,0,0
0.0005940686000000001,0.0015182562,0.0009264496,-0.0012584058,-0.0039462538000000005,4.389,0,0
0.000976827,-0.00015850820000000006,0.0012840625999999999,-0.0008448346,-0.0032549638,4.39,0,0
0.0007648002000000001,-0.0017315882000000001,0.0013504438,-0.00032629360000000006,-0.0025967138,4.391,0,0
0.00045869680000000003,-0.001804386,0.0017764880000000001,3.5354000000000407e-06,-0.002881224,4.392,0,0
0.00022787340000000005,-0.00118148094,0.0017196815999999998,0.0003664316,-0.001354552,4.393,0,0
-0.0005107186,-0.00122963514,0.0010884836,0.0004877404,0.0007154519999999999,4.394,0,0
-0.000958211,-0.00097423894,0.0007350537999999999,0.0004640924,0.0013452179999999998,4.395,0,0
-0.0004963274,-0.00028693314000000005,0.0004988293600000001,0.0005659254,0.00282986,4.396,0,0
-0.0004585054,-0.0006703713400000001,-0.00033505464000000004,0.000529552,0.004542814,4.397,0,0
-0.0007968662000000001,-0.0009997684,-0.00087177424,0.00017594579999999994,0.003933588,4.398,0,0
-0.0005819368,-0.00045063840000000003,-0.00093435424,-0.00031903120000000007,0.0028488598000000003,4.399,0,0
-0.0006499004,3.5439799999999904e-05,-0.00136381444,-0.0005241376,0.0028600018000000003,4.4,0,0
-0.0007796664,0.0013938560000000002,-0.001896384,-0.0010492616,0.0014122943999999998,4.401,0,0
-4.604599999999946e-06,0.00330159,-0.0017107306,-0.0017261212000000002,-0.0009397596,4.402,0,0
0.0007383114000000001,0.0034538776,-0.0013069108,-0.001539245,-0.0014628775999999998,4.403,0,0
0.001151642,0.0020063496,-0.0008736172,-0.0011965160000000001,-0.0017764354,4.404,0,0
0.001638584,0.0001655395999999999,0.00046980280000000007,-0.0014623388,-0.0029392593999999998,4.405,0,0
0.0013255514000000003,-0.0023681104,0.0015455008,-0.0014147012,-0.003238404,4.406,0,0
0.00046562139999999997,-0.0041113064,0.0016855232000000003,-0.00046940919999999996,-0.0023654334000000003,4.407,0,0
2.564199999999944e-06,-0.003175348,0.0020999074000000004,-0.00016645120000000004,-0.0022316854000000003,4.408,0,0
-0.00016566180000000005,-0.0010900460000000001,0.0021463618,-6.443820000000002e-05,-0.0023643454,4.409,0,0
-0.0003930904400000001,-1.866000000000004e-05,0.0010886297999999999,0.0008674818000000001,-0.0011499734,4.41,0,0
-0.00061543784,0.0003895039999999998,0.0003998396,0.0015503162,-7.712340000000004e-05,4.411,0,0
-0.00073693984,0.0004005639999999999,0.00014245599999999995,0.0016006802,0.000314728,4.412,0,0
-0.00103010664,-0.00047232320000000015,-0.000618462,0.001823526,0.0015144300000000002,4.413,0,0
-0.00136090064,-0.0011836772000000002,-0.0010651240000000002,0.002331318,0.002884256,4.414,0,0
-0.0013457894,-0.0005453172000000001,-0.0012832920000000001,0.0019120066000000002,0.003029482,4.415,0,0
-0.0008453886000000002,0.0004395788,-0.0017162458000000002,0.0012498148,0.002950916,4.416,0,0
-0.0001252806,0.0006341109999999999,-0.001897148,0.0010028634,0.003180768,4.417,0,0
0.0004941292,0.0003018221999999999,-0.0016867638000000003,0.0005411654000000001,0.0020513239999999998,4.418,0,0
0.0006317868,-0.0003896478,-0.0011514058000000001,4.497339999999998e-05,0.00018748399999999991,4.419,0,0
0.0004412232000000001,-0.0008475676,-0.00045964580000000017,7.451999999999969e-06,-0.000758688,4.42,0,0
0.00046736600000000004,-0.0008461656000000001,0.00024115979999999993,-0.00014553420000000002,-0.001812746,4.421,0,0
0.000521518,-0.0002935418,0.0007947838,-0.0006474148000000001,-0.00293884,4.422,0,0
0.0007883782,0.0009323822000000002,0.0010323038,-0.0005771548,-0.0027450124000000004,4.423,0,0
0.0011703026,0.0022985182000000003,0.0010657418,-0.00048563440000000006,-0.0021395444000000003,4.424,0,0
0.0014774454000000001,0.0029267880000000005,0.0011554718,-0.0003801496,-0.0022913724,4.425,0,0
0.0016659878000000001,0.0030559040000000008,0.0010627116,0.00012309299999999995,-0.0017422384,4.426,0,0
0.0012562666,0.0035400540000000004,0.0008355996,0.0007517870000000001,-0.0003999384,4.427,0,0
0.0005137446,0.0035391880000000004,0.0005922484,0.0010938090000000003,0.000225024,4.428,0,0
0.00013171660000000003,0.00240003,-4.415959999999998e-05,0.0011088912000000002,0.0009025559999999999,4.429,0,0
7.452080000000001e-05,0.0006094660000000003,-0.0008764456,0.0010158216,0.002245322,4.43,0,0
-0.00029507716,-0.0009859959999999998,-0.0010076428,0.000814017,0.0029465940000000003,4.431,0,0
-0.00043620596,-0.0018590327,-0.0007711996,0.0004796712,0.0025883560000000004,4.432,0,0
-0.00034106996,-0.0025602473,-0.0009003266,-0.0001289668,0.00257064,4.433,0,0
-0.00057322996,-0.0030183453,-0.0008912066000000001,-0.0004645614,0.0024099448000000005,4.434,0,0
-0.00109655996,-0.0021326053,-0.0006859366,-0.0010047038,0.0009414648000000001,4.435,0,0
-0.001496072,-0.0005536653000000002,-0.0007977028000000001,-0.0015296898000000001,-0.00029987519999999986,4.436,0,0
-0.001199182,-0.0006665678,-0.0008051564000000002,-0.001470856,-0.0009017232,4.437,0,0
-0.000739988,-0.0023332112,0.00024734759999999996,-0.0014821,-0.0021544252000000002,4.438,0,0
-0.0003087714,-0.0030527332000000003,0.0014238336000000002,-0.0014081564,-0.0030397740000000003,4.439,0,0
-1.9569600000000003e-05,-0.0031306972,0.0021160956,-0.0007063044,-0.0025482824000000004,4.44,0,0
0.00028744199999999995,-0.0037185671999999995,0.0027489496,0.00016932759999999997,-0.0021844602,4.441,0,0
0.000465176,-0.0033179419999999995,0.0027809540000000004,0.0003571604,-0.0023425942000000004,4.442,0,0
0.0002609622,-0.000924518,0.0019417130400000001,0.0009520684000000001,-0.0014739798,4.443,0,0
0.00013678479999999999,0.000960238,0.0007078650400000001,0.0016079568,-0.00026229780000000015,4.444,0,0
0.0002649256,0.0011421062,-0.00016661296000000002,0.0013125528,-0.00020421820000000006,4.445,0,0
0.0003153184,0.0013729242,-0.0008983229599999999,0.0011169644000000002,0.0006607256,4.446,0,0
-0.00023723420000000003,0.0010826539,-0.00166607696,0.0010064574,0.0023574216000000004,4.447,0,0
-0.00045314400000000005,0.00034249149999999995,-0.002028882,0.0005294348,0.0026015292000000005,4.448,0,0
-0.00029505800000000006,0.0006088715,-0.0021378639999999997,0.0001456208,0.0024122232000000003,4.449,0,0
-0.0003449676000000001,0.0016928133000000001,-0.002275328,0.0001396408,0.0027482280000000006,4.45,0,0
-0.00059261,0.0023947193,-0.00233771,-0.0004813608,0.00181233,4.451,0,0
-0.0005217102000000001,0.0024783424000000003,-0.0017765069600000002,-0.0013290226,-4.5117999999999916e-05,4.452,0,0
-0.0001102326,0.0023223440000000005,-0.0008172609600000003,-0.001669424,-0.0004952818,4.453,0,0
-0.00031630380000000004,0.0015228642,-0.00011903096000000007,-0.002015048,-0.0008518752000000002,4.454,0,0
-0.00021290660000000005,0.0005119848,0.0007949550399999999,-0.0021625076000000003,-0.0019022492000000002,4.455,0,0
0.00031761340000000004,-0.00017986346,0.0017972470400000001,-0.0015189196,-0.0021400232,4.456,0,0
0.0003811468,-0.00047436026000000005,0.002069814,-0.00027940160000000007,-0.0018329811999999999,4.457,0,0
0.00031017720000000004,-0.0008194134600000001,0.0017749640000000002,0.00038374620000000004,-0.0021673753999999997,4.458,0,0
0.0006846212,-0.00098987166,0.001801094,0.0007207572000000001,-0.002445226,4.459,0,0
0.0005990198000000001,-0.00046914425999999994,0.0014867220000000002,0.0012851208000000001,-0.0011162320000000002,4.46,0,0
0.00011729580000000001,-9.584999999999997e-05,0.000585236,0.0013808768000000001,8.13439999999999e-05,4.461,0,0
0.00020440760000000002,0.00030902480000000003,0.00033862880000000005,0.001132516,0.0004772366000000001,4.462,0,0
0.0001610014,0.0016025088000000002,-0.00016708920000000003,0.0013589602,0.0021591246000000003,4.463,0,0
0.00018726940000000003,0.0027233908000000003,-0.0011602972,0.0014753992000000001,0.0038103786000000003,4.464,0,0
0.00048769460000000004,0.0025588168,-0.0015783772,0.00108650416,0.0037789106,4.465,0,0
0.0007799568,0.0024264128,-0.0014279646,0.0006688137600000001,0.0036567006000000003,4.466,0,0
0.0005243604,0.002555776,-0.0016474060000000003,0.00030857456000000003,0.0037744939999999998,4.467,0,0
-0.00018903979999999995,0.002361378,-0.0016881880000000002,-0.00017027564,0.002132168,4.468,0,0
-0.0008837458000000001,0.002671112,-0.0007768920000000001,-0.0006975516400000001,-0.000261236,4.469,0,0
-0.0015315938,0.0022754458,-7.187999999999986e-06,-0.0010951546,-0.0014122239999999997,4.47,0,0
-0.0015386908,0.00012494779999999987,0.0004951834000000001,-0.0015798222000000001,-0.002622836,4.471,0,0
-0.0008954848000000003,-0.0017160522000000003,0.0010294380000000001,-0.0016311662,-0.003900604,4.472,0,0
-7.160080000000001e-05,-0.0028137142000000006,0.00169894,-0.0012501099999999998,-0.003964629999999999,4.473,0,0
0.00034016380000000004,-0.003869219,0.002185414,-0.0009886723999999998,-0.0030823079999999997,4.474,0,0
0.0005497028,-0.0041736188,0.0021829840000000002,-0.0007933447999999999,-0.002825674,4.475,0,0
0.000641965,-0.0033826488000000005,0.00168208,-0.00034900059999999996,-0.0023292140000000005,4.476,0,0
0.000419787,-0.0024891108,0.001101112,-2.574599999999994e-06,-0.000584574,4.477,0,0
0.00031080400000000003,-0.0025226548,0.0004898040000000002,-0.0003453388,0.00020746600000000006,4.478,0,0
0.0005141814,-0.002669678,-0.00018205199999999996,-0.00041661540000000004,0.000875436,4.479,0,0
0.0008890682,-0.0022354716000000004,-0.0006030788,0.0003839550000000001,0.0026159980000000005,4.48,0,0
0.0007437831,-0.0017869976,-0.0010562488,0.0009857508000000001,0.003494374,4.481,0,0
0.0003507411,-0.0016249436,-0.0011687968,0.0009225460000000001,0.0030827700000000003,4.482,0,0
4.673829999999999e-05,-0.001256072,-0.0012362308000000001,0.0012575962,0.0032617,4.483,0,0
-0.00022801110000000003,-0.0010527594,-0.0017510128,0.0013696392000000003,0.0032436720000000004,4.484,0,0
-8.930689999999997e-05,-0.00044770580000000023,-0.00166770302,0.0001321012,0.0013079380000000002,4.485,0,0
-6.799939999999997e-05,0.00022798950000000006,-0.0007001210200000001,-0.0007873348,-0.00027063400000000007,4.486,0,0
-0.0004886694000000001,0.00034800550000000003,-0.0001941464199999998,-0.0007325852000000001,-0.0008403200000000001,4.487,0,0
-0.0006470996000000001,0.0012762619000000002,0.00028413758000000013,-0.0010466593999999998,-0.002334356,4.488,0,0
-0.0005794548000000001,0.0021432853000000005,0.00136846358,-0.0012200741999999999,-0.0037832960000000002,4.489,0,0
-0.0007162614000000001,0.0022181613000000003,0.0017586106,-0.00045989880000000004,-0.0034560420000000003,4.49,0,0
-0.0004149452000000001,0.0020909808000000004,0.0013020836,3.344160000000001e-05,-0.0028160326,4.491,0,0
0.00043334280000000014,0.0026084368000000003,0.0010282914,8.852019999999999e-05,-0.0028487126,4.492,0,0
0.0008589474,0.0033689048,0.0008886398000000002,0.0007122704,-0.0015973426,4.493,0,0
0.0009110944,0.0041023708,0.00043274520000000007,0.0012426232,-0.0001557266,4.494,0,0
0.000842093,0.004309850800000001,0.0002868732,0.0011395594,-5.3741600000000095e-05,4.495,0,0
8.725700000000009e-05,0.0037705739999999996,0.0004200978,0.0014852370000000001,0.000864077,4.496,0,0
-0.000693391,0.002055024,0.00020802739999999993,0.0017129976000000002,0.002464167,4.497,0,0
-0.0010773096,-0.0014987480000000007,-0.000398207,0.0011053656,0.0029075530000000007,4.498,0,0
-0.00156408,-0.004467326000000001,-0.0011032823999999998,0.0004989536,0.0028779330000000005,4.499,0,0
-0.0016290368,-0.005438551600000001,-0.0020780044,0.0001338240000000001,0.0036184600000000004,4.5,0,0
-0.0007975947999999999,-0.004606374200000001,-0.002881434,-0.0004980200000000001,0.0033339200000000006,4.501,0,0
0.00032924919999999995,-0.0035163082,-0.0025673600000000003,-0.0014691020000000003,0.0015803540000000002,4.502,0,0
0.0010346672,-0.0018966722000000004,-0.0020089602000000002,-0.0017299800000000003,0.000398452,4.503,0,0
0.0014943328000000002,-0.00036806220000000007,-0.0015833568,-0.0013729368,-0.000538374,4.504,0,0
0.0016733196000000001,-0.0009039526000000002,-0.0004906768000000001,-0.0011816746,-0.002096892,4.505,0,0
0.0015108636,-0.0016578,0.0009671712,-0.0010302220000000001,-0.00340092,4.506,0,0
0.0009269876000000001,-0.0011040846000000002,0.0014581192,-0.00041753860000000005,-0.003289388,4.507,0,0
0.00034406240000000004,-0.0005686614000000002,0.001486472,3.85978e-05,-0.0029401216,4.508,0,0
0.00026259080000000005,-0.0005945454,0.0019626926,-9.865500000000001e-05,-0.0026232916,4.509,0,0
-0.00010231019999999999,0.0006022446,0.0019473786,0.0004331748,-0.0009480536000000001,4.51,0,0
-0.000420872,0.0020457226,0.0013374264,0.0011229002,0.0006195603999999999,4.511,0,0
-0.00025709219999999996,0.0029927392000000004,0.0006288903999999999,0.0010984692,0.0008488778,4.512,0,0
-0.00025955739999999997,0.004036922,4.723579999999991e-05,0.0012958728,0.0020304033999999998,4.513,0,0
-0.00041184139999999995,0.004297952,-0.0005563442000000001,0.0014694044,0.0037849194,4.514,0,0
-9.627259999999999e-05,0.0031700380000000005,-0.0010454966000000001,0.0005889064000000001,0.0033473074,4.515,0,0
5.883260000000004e-05,0.0014342540000000003,-0.0011987550000000001,-0.00011272359999999995,0.0027223186000000003,4.516,0,0
-0.0001439858,6.187999999999799e-06,-0.001202931,-0.00015671999999999998,0.0028981354,4.517,0,0
9.368460000000002e-05,-0.0014777400000000002,-0.000912995,-0.000804756,0.0010159894000000003,4.518,0,0
0.0002566086,-0.0016741219999999997,-0.0005258002000000001,-0.0011105722,-0.0016002666000000001,4.519,0,0
9.358518000000002e-05,1.520600000000003e-05,-7.397979999999995e-05,-0.0008115896,-0.0023430106,4.52,0,0
-0.00026011222,0.0016146320000000002,0.0004622768000000001,-0.0010041796,-0.0029401598,4.521,0,0
-0.00059593562,0.0014416999999999998,0.0010309428,-0.0013590876,-0.0038231380000000002,4.522,0,0
-0.0008352204200000001,0.00015106599999999983,0.0013795381999999999,-0.0013777916000000002,-0.0034101020000000004,4.523,0,0
-0.00086009002,-0.0009648120000000003,0.0012619342,-0.0013132094000000002,-0.0022912126,4.524,0,0
-0.0006574443999999999,-0.0019012824000000004,0.001032615,-0.001137014,-0.0020920846,4.525,0,0
-0.00040920599999999996,-0.0019973944000000006,0.00038970259999999995,-0.0005561280000000001,-0.0017583762000000001,4.526,0,0
-0.00010975800000000006,-0.0012495704000000001,-0.00045633140000000006,0.00025571800000000005,-0.00017507219999999993,4.527,0,0
5.40268e-05,-0.0007519604000000001,-0.00046706520000000003,0.000967354,0.0005948018000000001,4.528,0,0
5.315599999999999e-05,-0.0011011844,-5.9039999999999896e-06,0.0013034820000000003,0.0009832284000000002,4.529,0,0
-0.000241937,-0.001581164,-0.00023776900000000003,0.0016180960000000003,0.0024169484,4.53,0,0
-0.0004655794,-0.0018422720000000003,-0.0005572946,0.0014531160000000002,0.003371494,4.531,0,0
-0.0005481404,-0.0013282899999999998,-0.00022824280000000006,0.0006734600000000001,0.0033266800000000003,4.532,0,0
-0.00048768440000000003,0.00024775000000000025,-0.00037261000000000005,0.0004128798,0.003605384,4.533,0,0
-0.00031590759999999997,0.0014904360000000001,-0.000969592,0.0004419398,0.003337072,4.534,0,0
-0.00026488980000000003,0.0021346720000000002,-0.0009995922,-0.00032913620000000007,0.0014423919999999998,4.535,0,0
-8.823480000000001e-05,0.0021543540000000003,-0.0005527122000000001,-0.0008811042000000001,-0.0001585340000000001,4.536,0,0
0.000230956,0.001889562,-0.00035808120000000007,-0.0006513536000000001,-0.0012057840000000001,4.537,0,0
0.0006377819999999999,0.0016411080000000003,-0.0001367718,-0.0012339234,-0.00287632,4.538,0,0
0.0009818316,0.0007741860000000002,0.00046599020000000007,-0.0016681912000000001,-0.0038725960000000003,4.539,0,0
0.0011565612000000002,-0.00053555,0.00066324348,-0.0008886312,-0.0030869502000000003,4.54,0,0
0.0012085656000000002,-0.0015711660000000001,0.0007413254800000001,-4.629119999999997e-05,-0.0022941766000000004,4.541,0,0
0.0010922492000000003,-0.002422484000000001,0.0013297306800000002,0.00022775040000000012,-0.0022531186000000003,4.542,0,0
0.00034364919999999987,-0.0028361426000000005,0.00151804888,0.0007823728000000001,-0.0009121386,4.543,0,0
-0.0004192848,-0.002182914,0.00118763228,0.0012724806000000003,0.0005826134,4.544,0,0
-0.00031645919999999996,-0.0011702858000000003,0.0013035064,0.0009914172000000001,0.0004885352000000001,4.545,0,0
-0.00032124300000000003,-4.499780000000013e-05,0.0010360827999999999,0.0010483471999999999,0.0009448116,4.546,0,0
-0.0006724724000000002,0.0011355802,-8.769319999999998e-05,0.0013154310000000002,0.0022209696,4.547,0,0
-0.00032304120000000005,0.0015973268,-0.0009575192,0.001182240266,0.0026117236,4.548,0,0
0.00012266659999999994,0.0018669302,-0.0013854666,0.0008596182660000001,0.0025766416,4.549,0,0
2.714919999999998e-05,0.002810744,-0.0018495316000000002,0.000701622066,0.003077352,4.55,0,0
0.0002585276,0.00292981,-0.0020601,6.843806599999994e-05,0.0025773024,4.551,0,0
0.0007874075999999999,0.0015578520000000002,-0.0015560799999999998,-0.0008302359340000001,0.0005269524000000002,4.552,0,0
0.0009131772000000001,0.0005895639999999999,-0.000961391,-0.0011456056,-0.0009390816,4.553,0,0
0.00038414140000000004,0.00043921580000000007,-0.0005566046000000001,-0.0013341012000000001,-0.0018186736,4.554,0,0
-0.00011392920000000004,0.00016944380000000008,-3.058699999999997e-05,-0.0015148176,-0.0032628636000000006,4.555,0,0
-0.0003884054,0.0003941178000000001,0.0005135176,-0.0013307426000000002,-0.003934062,4.556,0,0
-0.0006001353999999999,0.00100456586,0.0008055276,-0.0005402186000000001,-0.0030902220000000005,4.557,0,0
-0.0005915986,-0.00019993614000000004,0.0010092166,-0.00010842620000000008,-0.0025086140000000006,4.558,0,0
-0.00036801000000000005,-0.00229971994,0.0011369482,6.776939999999998e-05,-0.0022507740000000005,4.559,0,0
7.847919999999999e-05,-0.0032336639399999996,0.0010387134,0.0010435154000000002,-0.0006834420000000003,4.56,0,0
0.00033251900000000003,-0.0038985577400000005,0.0008857588000000001,0.0017471864,0.00072112,4.561,0,0
0.00048021040000000004,-0.003749474,0.0005661604000000002,0.0019445184000000003,0.0011307630000000001,4.562,0,0
0.0007279248000000001,-0.0012080859999999997,0.00014754740000000002,0.0024542599999999998,0.0026862630000000004,4.563,0,0
0.0006343862,0.0014851040000000001,-0.0003652946,0.0024398998,0.004100475000000001,4.564,0,0
-3.460500000000005e-05,0.002437342,-0.0008080474,0.0016060442000000001,0.0036924774000000006,4.565,0,0
-0.0003504818000000001,0.0024130170000000004,-0.0011049074000000002,0.0007643191999999999,0.0033676914000000005,4.566,0,0
-0.0005077732000000001,0.0013075672,-0.001433685,-0.0003639028,0.0037589704000000005,4.567,0,0
-0.0010035188000000002,-4.280280000000026e-05,-0.0016666,-0.0017421808000000001,0.0022317344,4.568,0,0
-0.0007305322000000001,-0.0010663808000000003,-0.0011483740000000002,-0.0023908926,-0.0002727716000000002,4.569,0,0
-0.00033424280000000006,-0.0022335268000000003,-0.00028768999999999995,-0.0028213830000000002,-0.0011852340000000003,4.57,0,0
-0.0004886835999999999,-0.0023592973200000007,0.00034100000000000005,-0.0032349740000000003,-0.002444976,4.571,0,0
-0.000339461,-0.0012546423200000003,0.0012962120000000001,-0.002843274,-0.0039073400000000005,4.572,0,0
-7.485139999999999e-05,-0.00036764231999999997,0.0018973420000000002,-0.0020733689,-0.0037695018000000005,4.573,0,0
4.6012800000000035e-05,0.00075192768,0.00208575,-0.0014422021000000003,-0.0028109756,4.574,0,0
0.0005026974,0.0018908296800000002,0.002502986,-0.0006014441,-0.0024628216,4.575,0,0
0.0010202354000000001,0.0021320230000000003,0.0025869440000000003,0.0006480999,-0.0016638722000000001,4.576,0,0
0.000825381,0.001992195,0.0021420720000000005,0.0016895359000000001,-3.171620000000006e-05,4.577,0,0
0.00019046100000000006,0.001042153,0.00187105,0.0021926188,0.0005329096,4.578,0,0
-0.0004048658000000001,-0.00048449699999999997,0.0011175439999999998,0.0023826880000000004,0.0012376074,4.579,0,0
-0.0008672510000000001,-0.0012730228,-0.00041261799999999996,0.002672072,0.0029192594,4.58,0,0
-0.0011470966,-0.0006930307999999999,-0.0016649,0.0024602160000000003,0.003826508,4.581,0,0
-0.0010082622,0.00032750620000000005,-0.00254083,0.0014910242000000002,0.0034719800000000004,4.582,0,0
-0.00041277800000000004,0.0012344982000000002,-0.0030386660000000006,0.0010578756000000002,0.0034077440000000007,4.583,0,0
1.524000000000001e-06,0.0016863342000000003,-0.003065258000000001,0.0008510208,0.0030887220000000008,4.584,0,0
0.00024469600000000003,0.00037973,-0.0026167474,-7.462720000000003e-05,0.001015312,4.585,0,0
0.0005111776,-0.002152942,-0.0019394106000000001,-0.0007943392000000001,-0.0006422199999999999,4.586,0,0
0.000669859,-0.0033847376,-0.0011532544,-0.0010020054000000002,-0.001325536,4.587,0,0
0.000622592,-0.0023737296,-0.0001906144,-0.0016134848000000004,-0.002871822,4.588,0,0
0.0006713632,-0.0007844696000000001,0.00035723879999999996,-0.0020285500000000005,-0.004303912,4.589,0,0
0.0004888504,0.0013863684,0.0006918212,-0.001653526,-0.00400627,4.59,0,0
5.634440000000003e-05,0.0037061083999999998,0.0013182903999999999,-0.0012664446,-0.0035968980000000003,4.591,0,0
-7.879999999999931e-07,0.0038871519999999996,0.0014314408,-0.0010024922,-0.003853704,4.592,0,0
-0.00022590919999999998,0.001820124,0.0008892276,-8.548019999999999e-05,-0.0026326598,4.593,0,0
-0.0003905032,-0.0009833580000000001,0.0007363386,0.0008966838000000002,-0.0006624998000000003,4.594,0,0
-0.0003234646,-0.0032759720000000003,0.0009917456,0.0010554204000000002,0.0005570982,4.595,0,0
-0.00041322460000000006,-0.0040960702,0.0007350242,0.001329075,0.0023191682,4.596,0,0
-0.0005580852000000001,-0.0031801082,0.00017925760000000004,0.0017422046,0.0042021142,4.597,0,0
-0.0005209644000000001,-0.0014422461999999997,-0.0002990152000000001,0.0014573288000000002,0.004649984,4.598,0,0
-0.00044968380000000004,0.0007732498,-0.0009231414000000001,0.0011474202,0.00442429,4.599,0,0
-0.00030880260000000004,0.0027366538,-0.0017669474000000002,0.0009551297999999999,0.004909674000000001,4.6,0,0
-4.640279999999999e-05,0.0032765500000000005,-0.002289078,0.00027416779999999997,0.004628070000000001,4.601,0,0
-9.12138e-05,0.00240784,-0.001908262,-0.00039540620000000007,0.0029914440000000002,4.602,0,0
8.22764e-05,0.0008752160000000002,-0.0013739742,-0.0007629664,0.0021293320000000003,4.603,0,0
5.304700000000001e-05,-0.0002881539999999999,-0.0007394267999999999,-0.0011480012000000001,0.0015839408400000002,4.604,0,0
-0.00021107120000000003,-0.0010557779999999998,-1.944080000000002e-05,-0.0012630746000000003,-0.0003243971600000001,4.605,0,0
8.7733e-05,-0.001630706,0.0002924192,-0.0008360578000000001,-0.00196057316,4.606,0,0
0.00027116740000000003,-0.0017966294,0.000389907,-0.00022788380000000007,-0.0011721811600000002,4.607,0,0
0.00028857000000000004,-0.0013395071999999998,0.0005211828,0.0008408782,-0.0007588299600000001,4.608,0,0
0.0005466386000000001,-0.0005437212000000001,0.0008652794000000001,0.0013137176,-0.0007791628,4.609,0,0
0.0007484830000000001,0.00041830279999999996,0.0005308094000000001,-0.0004087311999999997,-0.0005028468000000001,4.61,0,0
0.0006825348000000001,0.0009013188,-1.729859999999989e-05,-0.00310115,-0.0034664668,4.611,0,0
0.0007376884000000002,0.0005243762000000001,0.0004830076,-0.005586728,-0.0088906668,4.612,0,0
0.0008979188,0.0002783,0.002174552,-0.008153858,-0.014346476,4.613,0,0
0.0011702198,-0.00040689599999999996,0.004789672,-0.009308058000000001,-0.019747295999999998,4.614,0,0
0.0017822398,-0.0017706459999999999,0.007852992,-0.007238986,-0.0230463,4.615,0,0
0.0021148960000000002,-0.002754328,0.010726280000000001,-0.0032964560000000006,-0.020599764,4.616,0,0
0.0020777226,-0.00257673,0.011897636000000001,0.0010012840000000005,-0.014307480000000001,4.617,0,0
0.0017945245999999998,-0.001825676,0.010659278,0.00539943,-0.0056985000000000004,4.618,0,0
0.0007918245999999999,-0.0007807819999999998,0.006669656,0.009422846000000002,0.0058335600000000015,4.619,0,0
-0.0006715434,0.0009305720000000001,0.0008573560000000001,0.011946270000000002,0.017183860000000002,4.62,0,0
-0.0019260514,0.0027245000000000004,-0.005226944000000001,0.01266982,0.025951064000000003,4.621,0,0
-0.0030415980000000004,0.0044775100000000005,-0.011035354,0.012186138000000001,0.031999520000000004,4.622,0,0
-0.00399938,0.005973724,-0.015889942,0.01012407,0.034907640000000004,4.623,0,0
-0.004106948,0.00713188,-0.019004660000000003,0.0061154519999999995,0.0322461,4.624,0,0
-0.00329608,0.007402004,-0.01943664,0.0012983319999999997,0.025136026000000002,4.625,0,0
-0.002323354,0.006273927800000001,-0.017378942,-0.003196068,0.016161672000000002,4.626,0,0
-0.0012782976000000003,0.0036104258000000007,-0.012969526,-0.007373426000000001,0.004421312000000001,4.627,0,0
-2.3095999999999685e-06,-0.0007094282000000001,-0.0065285659999999995,-0.010504378,-0.008343788,4.628,0,0
0.0011675824,-0.005011300200000001,0.000593414,-0.011472962,-0.018372488,4.629,0,0
0.0020383504,-0.007451178200000001,0.007388034,-0.010653972000000001,-0.025692994,4.63,0,0
0.0027276084,-0.007946024000000001,0.012707135999999999,-0.009061324,-0.03053892,4.631,0,0
0.003387338,-0.006981844000000001,0.01562514,-0.0062102960000000006,-0.030210880000000002,4.632,0,0
0.003562982,-0.00494285,0.016347360000000002,-0.0024060860000000004,-0.025343618,4.633,0,0
0.0031317766000000004,-0.002750212,0.015377740000000003,0.001039238,-0.018677380999999996,4.634,0,0
0.0022442156,-0.0008138359999999999,0.012616130000000001,0.004386428,-0.009313160999999999,4.635,0,0
0.0010943136000000002,0.001748344,0.008211914,0.00759896,0.0020047790000000004,4.636,0,0
-0.0001403704,0.0039261899999999995,0.0029386160000000002,0.009390692,0.011564879,4.637,0,0
-0.0015335164,0.004349341,-0.0026752040000000005,0.009621088,0.019060837000000004,4.638,0,0
-0.0025712810000000003,0.004448405,-0.008306524000000001,0.008589566,0.02495762,4.639,0,0
-0.0031349980000000004,0.004538585,-0.012769694000000002,0.006166288000000001,0.026924220000000006,4.64,0,0
-0.0031962040000000002,0.003792167,-0.014364398,0.0029669479999999996,0.023859400000000003,4.641,0,0
-0.0030555060000000004,0.002767545,-0.013652582,-0.0004268780000000003,0.018107148,4.642,0,0
-0.00286465,0.0015447599999999998,-0.011583521999999999,-0.0038259240000000005,0.010507458,4.643,0,0
-0.0020993260000000003,-0.0005224019999999997,-0.00738554,-0.006802624,0.00020815799999999995,4.644,0,0
-0.00109319,-0.0026548559999999997,-0.0019448139999999998,-0.008540946,-0.009971202000000002,4.645,0,0
-0.00037038600000000006,-0.0040452686,0.0027323860000000007,-0.009358172000000001,-0.017252322,4.646,0,0
0.00056787,-0.0051052172,0.006900708,-0.009248646000000001,-0.02240073,4.647,0,0
0.002001108,-0.0052520732,0.010813588,-0.0076157279999999996,-0.0251881,4.648,0,0
0.002879396,-0.0043472292,0.012694486000000001,-0.004551456,-0.02351046,4.649,0,0
0.002969542,-0.0034996392000000006,0.012578544,-0.000966104,-0.018891332,4.65,0,0
0.0027403519999999997,-0.0035202274,0.011534385999999999,0.002241654,-0.013109712,4.651,0,0
0.0021216174600000005,-0.0030227648,0.008681667399999999,0.005405480000000001,-0.004766212000000001,4.652,0,0
0.0011441094599999998,-0.0004702288000000003,0.0040995834000000005,0.007845682,0.004494988,4.653,0,0
0.00010462345999999987,0.0013668732,-0.0002908486000000002,0.008683172000000001,0.011843028000000002,4.654,0,0
-0.0007546605400000001,0.0013921152,-0.0041604526,0.008432776000000001,0.017799060000000002,4.655,0,0
-0.00146255454,0.0015553463599999998,-0.0079367746,0.007444,0.02204826,4.656,0,0
-0.002002396,0.00167036236,-0.010804776000000002,0.0051202140000000005,0.02215634,4.657,0,0
-0.002203076,0.00100543436,-0.011569012,0.0017886480000000003,0.018895406,4.658,0,0
-0.0019991484,0.0010441963600000001,-0.010593476000000001,-0.001230706,0.014414241999999999,4.659,0,0
-0.0014604214,0.00216028036,-0.008875028000000002,-0.0038596920000000005,0.0076338,4.66,0,0
-0.0007815108000000001,0.0022227384000000003,-0.005675482,-0.0063527440000000004,-0.0012181599999999998,4.661,0,0
-6.324020000000007e-05,0.0013138544,-0.0011800399999999998,-0.007700074000000001,-0.008710059999999999,4.662,0,0
0.0007608038000000001,-5.174760000000009e-05,0.0029663000000000007,-0.007606082000000001,-0.014445506000000002,4.663,0,0
0.0015439082000000002,-0.0018670696000000003,0.0061359560000000014,-0.006792536000000001,-0.019320982,4.664,0,0
0.0020867812000000003,-0.0032256356,0.008972568000000002,-0.005248046000000001,-0.020724839999999998,4.665,0,0
0.0021767626000000003,-0.0030991000000000005,0.010677902000000001,-0.0027128420000000005,-0.017553228000000004,4.666,0,0
0.0022971800000000002,-0.0019706140000000003,0.010520352000000002,0.00026553000000000015,-0.0129495436,4.667,0,0
0.002449634,-0.0007108220000000003,0.009256956,0.0029970780000000002,-0.007749647600000001,4.668,0,0
0.001578956,0.001771336,0.00674605,0.005095756,-0.0002433875999999992,4.669,0,0
0.0004826299999999999,0.0052089960000000005,0.0027683739999999997,0.006129422000000001,0.0071477524,4.67,0,0
5.651419999999993e-05,0.008791774,-0.0017172459999999997,0.006639472,0.0120810204,4.671,0,0
-0.0006357038,0.011424265999999999,-0.005553518,0.006409360000000001,0.015907616,4.672,0,0
-0.0017071858,0.010391126,-0.008769182,0.004943241399999999,0.0182715,4.673,0,0
-0.0020246238,0.005760302,-0.010339442,0.0027687154000000003,0.017216176,4.674,0,0
-0.0021498478,0.0002660620000000005,-0.009732798,0.0005893993999999999,0.013410698000000002,4.675,0,0
-0.002466606,-0.00483134,-0.008321808,-0.0015923686,0.008468429999999999,4.676,0,0
-0.0019733278000000003,-0.00857535,-0.0061463334000000005,-0.0040085445999999995,0.0022186699999999994,4.677,0,0
-0.0010777958,-0.008557032000000001,-0.0029174454,-0.0057743180000000005,-0.004441250000000001,4.678,0,0
-0.00012266179999999998,-0.005814112,0.0003595025999999998,-0.006052452000000001,-0.009639426,4.679,0,0
0.0007157702000000001,-0.0039004580000000003,0.0032555466,-0.005420058,-0.013447148,4.68,0,0
0.0015014262,-0.003316298,0.0062723966,-0.004645186,-0.016138760000000002,4.681,0,0
0.0019919460000000005,-0.003341996,0.008604442,-0.0028803979999999997,-0.01611954,4.682,0,0
0.0017578274000000001,-0.003009562,0.009267324,-0.0004234819999999999,-0.013101024000000001,4.683,0,0
0.0012226136000000002,-0.0024183938,0.008881996,0.001341784,-0.009452344000000001,4.684,0,0
0.0006661116000000001,-0.0019436698000000001,0.007513156000000001,0.002766312,-0.00479742,4.685,0,0
0.00014502760000000003,-0.0010738298,0.004590136,0.004432178,0.0017050999999999998,4.686,0,0
-0.000606733,-0.00018262379999999998,0.0012465180000000003,0.005048586000000001,0.0072542200000000005,4.687,0,0
-0.0010394404000000001,0.0007944022000000001,-0.00180412,0.005031252000000001,0.010964104000000002,4.688,0,0
-0.0010219634,0.0021810220000000003,-0.004993994,0.005103688,0.014296684,4.689,0,0
-0.0009471896000000001,0.003759422,-0.0077707060000000005,0.003955445199999999,0.015673080000000002,4.69,0,0
-0.0008163558,0.004421332,-0.009129479999999999,0.0018014632000000002,0.013468946,4.691,0,0
-0.0005191686,0.00434079,-0.009029032,-0.00021952280000000026,0.0100197794,4.692,0,0
-0.000121558,0.0039010040000000005,-0.007710828,-0.0020281768000000003,0.005778879400000001,4.693,0,0
4.508e-07,0.0026093206000000002,-0.004999498,-0.0040053748,-0.00042008059999999996,4.694,0,0
0.0002456272,0.0012037126,-0.0017739080000000005,-0.005117918,-0.0061803606,4.695,0,0
0.0006632674000000001,0.00015621259999999996,0.0012872119999999998,-0.005161594,-0.0097962666,4.696,0,0
0.0008685408000000001,-0.0006595054,0.0038272280000000002,-0.004833184,-0.01248864,4.697,0,0
0.0011655342,-0.0016103814,0.005567064000000001,-0.004243012000000001,-0.014033260000000002,4.698,0,0
0.0014098842000000002,-0.0021476520000000003,0.006593772000000001,-0.0027906800000000002,-0.012739124000000003,4.699,0,0
0.0011331040000000002,-0.0021473016,0.006837136,-0.00072106,-0.009647307800000001,4.7,0,0
0.0006929494,-0.0020141868,0.006431330000000001,0.0012039119999999997,-0.0063732858000000005,4.701,0,0
0.0003823894000000001,-0.001455398,0.005183512,0.003314392,-0.0019683358,4.702,0,0
-0.0002354826,-0.0008287264,0.003137844,0.005012518,0.0030490042,4.703,0,0
-0.0007162386,-0.0004612758000000001,0.0004692800000000001,0.005661504,0.0069458082,4.704,0,0
-0.0004998918,0.0004238038,-0.002093258,0.005496124,0.009903932,4.705,0,0
-0.00047703540000000003,0.0020545830000000005,-0.004566518,0.004819588,0.01236773,4.706,0,0
-0.0006982096000000001,0.0030632202000000002,-0.006630564,0.0033904888000000004,0.01281632,4.707,0,0
-0.0007679256,0.0032972956,-0.006866456,0.0014210328000000003,0.01078366,4.708,0,0
-0.0009244376000000001,0.003205031000000001,-0.006044712000000001,-0.0004000192,0.0082160184,4.709,0,0
-0.0013364664,0.0023715012000000008,-0.0048021482,-0.0022918472000000006,0.004443786399999999,4.71,0,0
-0.0014664162,0.0009283298000000001,-0.0026329901999999996,-0.004177291200000001,-0.0008885735999999999,4.711,0,0
-0.000911486,-9.782200000000001e-05,-3.238220000000014e-05,-0.005186054,-0.0050426936,4.712,0,0
-0.0005563898000000001,-0.0006614090000000001,0.0018711577999999999,-0.005358102,-0.0076586936000000005,4.713,0,0
1.0743200000000084e-05,-0.001420063,0.0033078038,-0.00504919,-0.009962392,4.714,0,0
0.0011341032,-0.0022675792,0.00456446,-0.0040034154,-0.010709236,4.715,0,0
0.0017520912,-0.0031366618,0.005042266,-0.0019929993999999998,-0.00910083,4.716,0,0
0.0017102132,-0.0038925599999999998,0.0049021740000000005,8.533659999999986e-05,-0.007219212000000001,4.717,0,0
0.0016569290000000001,-0.0038025,0.004324276,0.0015422186,-0.0051445250000000005,4.718,0,0
0.0013538978,-0.0027112194,0.0031650036,0.0030795226,-0.001375461,4.719,0,0
0.00043425280000000004,-0.0013238733999999999,0.0013462216,0.004349169999999999,0.0024415950000000004,4.72,0,0
-0.0002490992,-3.835939999999988e-05,-0.0005310904000000001,0.004302838,0.0050336750000000005,4.721,0,0
-0.0006973411999999999,0.0015238526000000002,-0.0022172564,0.0035884460000000003,0.0073940970000000005,4.722,0,0
-0.000851455,0.0035120046,-0.0039317524,0.0029944843999999997,0.009453389999999999,4.723,0,0
-0.0006295712000000001,0.004136652,-0.005005996,0.0018672480000000002,0.009149054,4.724,0,0
-0.00046082258000000007,0.003267134,-0.0049158000000000006,0.000289582,0.0069798324,4.725,0,0
-0.00052073458,0.002554232,-0.004432272,-0.0010385099999999999,0.005017638400000001,4.726,0,0
-0.00058463258,0.0012321160000000003,-0.0037552020000000005,-0.002139676,0.0018771344,4.727,0,0
-0.00027027538,-0.0012009640000000001,-0.0020852400000000004,-0.0029374824,-0.0023128856,4.728,0,0
-0.00045726398000000006,-0.002753994,-0.0001795359999999999,-0.003334268,-0.0050001996,4.729,0,0
-0.0006845916,-0.002905864,0.0012496940000000002,-0.0034599419999999997,-0.006181580000000001,4.73,0,0
-0.00030547979999999994,-0.0016716140000000003,0.0028690300000000003,-0.002980234,-0.007625753999999999,4.731,0,0
4.121640000000001e-05,0.0004663159999999998,0.0042072640000000005,-0.0021520862,-0.0080865,4.732,0,0
-1.971379999999998e-05,0.0015409720000000003,0.0041881520000000005,-0.0012536612,-0.00639239,4.733,0,0
5.743460000000001e-05,0.0008992200000000005,0.00399324,-0.00019419519999999994,-0.005057829800000001,4.734,0,0
0.00038270639999999994,-0.0013035719999999998,0.003933822000000001,0.0009511248000000001,-0.0035145978,4.735,0,0
0.00026089879999999997,-0.003878904,0.0028941532,0.0020957968000000003,-0.00027863979999999985,4.736,0,0
1.960019999999999e-05,-0.005892635999999999,0.0015754652000000004,0.003005495,0.0027006882,4.737,0,0
4.94322e-05,-0.005870853999999999,0.00036042720000000036,0.003441682,0.0048170882,4.738,0,0
2.651659999999999e-05,-0.0029705459999999993,-0.0012762148,0.0032911780000000005,0.007093714000000001,4.739,0,0
-0.0002820612,0.001149132,-0.0031121548,0.002856972,0.008408808000000002,4.74,0,0
-0.0001293518,0.0037501040000000006,-0.004110152,0.0018775452,0.007337588000000001,4.741,0,0
-0.00029284540000000005,0.005052190000000001,-0.004499718,0.0007736054,0.00559673,4.742,0,0
-0.0007034686,0.005958614000000001,-0.0042760720000000006,-0.00012290659999999998,0.0037925186000000006,4.743,0,0
-0.00042608040000000015,0.005207126,-0.003066606000000001,-0.0011491086,0.00048200460000000006,4.744,0,0
4.114159999999998e-05,0.0037927182000000005,-0.0015466800000000004,-0.0019370446000000002,-0.0028437714000000003,4.745,0,0
0.000422614,0.0023091862000000005,0.00019988199999999997,-0.0022459558000000003,-0.0042102594,4.746,0,0
0.001091478,0.0010013462000000002,0.0017256480000000002,-0.002306196,-0.0051273994000000005,4.747,0,0
0.00199313,0.00035639220000000004,0.003019762,-0.0021161458,-0.006466708,4.748,0,0
0.0018258001999999999,-6.27518000000001e-05,0.003910302,-0.0012782992,-0.006046448,4.749,0,0
0.0010460921999999998,-0.001352644,0.0040023260000000005,-0.00019046320000000005,-0.004356558040000001,4.75,0,0
0.00023067219999999987,-0.002727912,0.003558462,0.0005155268,-0.00350739484,4.751,0,0
-0.0001738388,-0.00333016,0.0029071062,0.0011116048000000003,-0.00211850484,4.752,0,0
-0.000609679,-0.004354314,0.0016711202,0.0018522826000000002,0.00074072316,4.753,0,0
-0.0011686912,-0.005066678,-2.51037999999999e-05,0.00203777,0.0031077011600000003,4.754,0,0
-0.0008641332,-0.0037101760000000004,-0.0010631218,0.0018172380000000003,0.004511945200000001,4.755,0,0
-0.0004061214,-0.00019029400000000014,-0.0020430718,0.0018668040000000003,0.005988336,4.756,0,0
-0.0005440936,0.00340002,-0.002864212,0.0015694134,0.006425590000000001,4.757,0,0
-0.0007450966000000001,0.005195436,-0.0031229680000000003,0.0006765674000000002,0.0052070548,4.758,0,0
-0.00017563620000000002,0.004408922,-0.0032011980000000006,0.00019371660000000007,0.004078848800000001,4.759,0,0
-0.00019463220000000002,0.0019808819999999998,-0.0029176862,-0.0002169274,0.0026152164000000006,4.76,0,0
-0.0005617840000000001,-0.0008770099999999999,-0.0021264178,-0.0012748154,4.997839999999992e-05,4.761,0,0
-0.0004717976,-0.0036568986,-0.0011560818,-0.0020121528,-0.0015549436,4.762,0,0
-0.00043722282000000005,-0.0050761492,-0.0001271658,-0.0019282686000000001,-0.0026821984,4.763,0,0
-0.00031725342,-0.0038664998000000005,0.0012604002000000001,-0.0018696716,-0.0047605584,4.764,0,0
0.00021283258,-0.0010181317999999999,0.0023783684,-0.0019101696000000002,-0.0059773280000000005,4.765,0,0
0.00088273058,0.0009234462,0.002781574,-0.0009816873999999999,-0.005575936,4.766,0,0
0.00118354938,0.0020319888,0.002956274,-0.00029593839999999996,-0.005121684000000001,4.767,0,0
0.0014969658000000001,0.0031409414000000005,0.0027898998000000005,-0.0004989046,-0.004278214400000001,4.768,0,0
0.00151051,0.0032322568,0.0017861738,-0.0002697677999999999,-0.0020052644000000002,4.769,0,0
0.001085497,0.0018227967999999998,0.0008528614799999999,-2.2364539999999968e-05,0.00025038760000000023,4.77,0,0
0.0003570570000000001,0.00043198879999999974,0.0002524866799999999,-0.00026054514,0.0016499216000000001,4.771,0,0
-0.000149651,-0.0002869171999999999,-0.0006786533199999999,-0.00020996034,0.0030788916000000005,4.772,0,0
-0.000209861,-0.0009001591999999999,-0.00162844112,0.00017014766,0.004524046,4.773,0,0
-0.0003421942,-0.0010227748,-0.00210636312,9.765846000000001e-05,0.004502152000000001,4.774,0,0
-0.0005649692000000001,-0.0005333608,-0.0022402406,-3.622360000000001e-05,0.0033727314000000005,4.775,0,0
-0.00046414519999999997,-0.00021948279999999996,-0.0023498437999999997,0.0001098204,0.0027022398,4.776,0,0
-0.00025328119999999996,-0.0006597953999999999,-0.0020012088000000003,0.0003912246,0.0015528798000000003,4.777,0,0
-0.0006086086,-0.0013708274,-0.0008316747999999998,0.0003726586,-0.0004898962,4.778,0,0
-0.0007930528,-0.0014589336000000001,0.0004339572,0.00025331919999999996,-0.0014284922,4.779,0,0
-0.0005157683999999999,-0.0005839155999999999,0.000943433,0.0004733324,-0.0015807596000000001,4.78,0,0
-0.0005447764,0.0003093784,0.0011745474,0.0002844106,-0.002498432,4.781,0,0
-0.0007271226000000001,0.0008261850000000001,0.0017036744,0.00023165460000000002,-0.0024206928000000006,4.782,0,0
-0.0006661668,0.001603377,0.0020015403999999997,0.0008413786,-0.0009598208000000002,4.783,0,0
-0.0004534036000000001,0.00247686,0.0018225583999999999,0.0010551208,-0.0005289874,4.784,0,0
-0.000266149,0.0025961840000000005,0.0015156146,0.0012737464000000002,-8.702039999999999e-05,4.785,0,0
-0.000234837,0.0014600860000000002,0.0010490182,0.0020350166,0.0020845656000000002,4.786,0,0
-0.00011481259999999999,-5.742399999999971e-05,0.00047276739999999994,0.0020976666000000004,0.0030193764,4.787,0,0
3.001740000000001e-05,-0.00108332,-0.00022332320000000006,0.0017714506000000001,0.0025591444,4.788,0,0
-0.00038419840000000007,-0.0013428940000000003,-0.0011417672,0.0016454686000000004,0.003384241,4.789,0,0
-0.0011125494000000001,-0.0008948560000000002,-0.0018965214,0.0007268446000000002,0.003595618,4.79,0,0
-0.0011602214,0.00013682400000000013,-0.0021251734000000003,-0.0007091554000000002,0.0018312979999999999,4.791,0,0
-0.0007382515999999999,0.0010251120000000001,-0.0021129682,-0.0014516414000000002,0.00047764999999999993,4.792,0,0
-0.0003847359999999999,0.001207004,-0.0021169662,-0.0020646994000000003,-0.00015518999999999993,4.793,0,0
0.00021735400000000006,0.0006077524000000002,-0.0015668802000000002,-0.0026200620000000003,-0.001945454,4.794,0,0
0.0009409624000000002,-0.0005707716000000001,-0.0005792001999999999,-0.0021858904,-0.0033097000000000005,4.795,0,0
0.0013390706000000001,-0.0010529572,5.9741800000000045e-05,-0.0014481396,-0.0029087662,4.796,0,0
0.0012467946,-0.0005188472000000001,0.0002825122,-0.0011222413999999999,-0.0025733742,4.797,0,0
0.0007578576,-0.00033438999999999995,0.0006528548000000001,-0.0009939434,-0.0028632922,4.798,0,0
0.0003451506000000001,-0.0008806544000000001,0.0011009488000000003,-0.0002960728,-0.0021308420000000004,4.799,0,0
0.00018811660000000004,-0.0011726484,0.0014782108,0.0005423236,-0.0007771459999999998,4.8,0,0
-0.000102173,-0.0011052236,0.0019079228,0.0007874668000000001,-0.000803062,4.801,0,0
-1.990299999999999e-05,6.32244000000001e-05,0.001723026,0.0012325786,3.373999999999988e-05,4.802,0,0
0.000587106,0.0018998492,0.001012996,0.0019560826000000003,0.0021150080000000003,4.803,0,0
0.0011154250000000002,0.0029887352000000002,0.00021997,0.0017814699999999998,0.0024969058,4.804,0,0
0.0015906486,0.0020649952,-0.0007993520000000001,0.000809758,0.0022729792,4.805,0,0
0.0017883368000000002,-0.0011374080000000003,-0.0015716520000000002,6.669399999999985e-05,0.0025018742000000004,4.806,0,0
0.0012925200000000001,-0.004264354,-0.0014616488000000001,-0.00117118,0.0010786922,4.807,0,0
0.000743519,-0.0058496502,-0.0009302804,-0.0028706260000000003,-0.0015941738000000002,4.808,0,0
0.0004228012,-0.005047040200000001,-0.0008443544000000002,-0.003947168,-0.0029367678,4.809,0,0
-7.152740000000002e-05,-0.0015957522000000007,-0.0009098704,-0.004531154000000001,-0.0038399112,4.81,0,0
-8.692400000000005e-06,0.0034087978,-0.0006085044000000001,-0.004438646000000001,-0.004878432,4.811,0,0
0.0003407476,0.0064422738,-0.00020978560000000013,-0.0035068474,-0.00440547,4.812,0,0
7.681459999999999e-05,0.005522699999999999,-6.082800000000013e-05,-0.0021460536,-0.0030031456000000002,4.813,0,0
-0.0005254416,0.0033179299999999993,0.00019867799999999996,-0.0009134732000000001,-0.0021135062000000003,4.814,0,0
-0.0006349988,0.0013847412000000004,0.000938178,0.00017511079999999997,-0.0014462232000000002,4.815,0,0
-0.0004927626,-0.0009073467999999999,0.001247012,0.0013560448,-0.00035283160000000005,4.816,0,0
-0.0005613252,-0.0025117407999999996,0.0009593168,0.0019151122000000001,0.00021282240000000004,4.817,0,0
-0.0002925462,-0.0017285898,0.0012713428,0.0020031424000000004,-3.456439999999995e-05,4.818,0,0
-0.00011588819999999996,-0.0009271037999999999,0.0018322648,0.0024442640000000002,0.0004278182,4.819,0,0
-0.00039917440000000005,-0.0012871030000000002,0.0016248316000000002,0.0025939820000000003,0.0014401472000000002,4.82,0,0
-0.0010218644,-0.00035672100000000006,0.001358696,0.00185257656,0.0016582496000000003,4.821,0,0
-0.0014321390000000002,0.0012832110000000002,0.0009436172,0.0014536825600000001,0.0019739396000000003,4.822,0,0
-0.0012901572000000002,0.002009838,-0.0003787008000000001,0.0017258245600000003,0.0033014760000000002,4.823,0,0
-0.0006369892000000002,0.0018513160000000004,-0.0013286348000000003,0.0013856085600000001,0.00369945,4.824,0,0
5.672079999999988e-05,0.0010148540000000001,-0.0013634956000000001,0.00097139296,0.0028473032,4.825,0,0
-2.8465200000000047e-05,-0.0005586339999999999,-0.0014568552000000002,0.0010828648,0.0030557772,4.826,0,0
-0.00015490720000000004,-0.0026652280000000004,-0.001212291,0.0006827388000000001,0.0031412952,4.827,0,0
-0.00018710840000000007,-0.004208514,3.454300000000005e-05,-0.0002042752,0.0016465212000000003,4.828,0,0
-0.0005857939999999999,-0.004279024,0.0008063250000000001,-0.0005175868000000001,0.0009200048000000001,4.829,0,0
-0.0005450940000000001,-0.002954308,0.0005865518000000001,-0.0004156202,0.0006201596000000001,4.83,0,0
0.000214386,-0.0012298440000000001,0.0008705310000000001,-0.0005947798000000001,-0.0013478304,4.831,0,0
0.0009370380000000001,1.0799999999999287e-06,0.0012336768000000002,-0.0004903028,-0.0030858404000000004,4.832,0,0
0.0010073024,0.0006957798000000002,0.00038448080000000003,-6.506340000000002e-05,-0.0029248932,4.833,0,0
0.0007700700000000001,0.0005732578,-0.0003011032,-5.111180000000002e-05,-0.0032003687999999997,4.834,0,0
0.000965944,-1.2654200000000032e-05,0.00010023400000000004,4.4755199999999974e-05,-0.0034568628000000005,4.835,0,0
0.0019550440000000004,-7.37362000000001e-05,-2.0440000000000096e-07,0.0010798844,-0.0014596788000000001,4.836,0,0
0.0031121660000000004,4.59398e-05,-0.0004043402,0.0021028714,9.15432000000001e-05,4.837,0,0
0.003549294,0.000491266,-0.0003127882,0.002285176,0.0004049072000000001,4.838,0,0
0.003657186,0.0017341700000000002,-0.0005292242000000001,0.0025009360000000005,0.0015576472000000002,4.839,0,0
0.003172568,0.003616696,-0.0011770182000000002,0.002620854,0.0025669752000000005,4.84,0,0
0.001676724,0.006146258,-0.0012268302000000002,0.0019530600000000002,0.0021654012000000005,4.841,0,0
-0.0004687100000000001,0.008035626,-0.0009988304000000002,0.0016228080000000003,0.0024162572000000003,4.842,0,0
-0.002038966,0.007283292,-0.0010404344000000002,0.002282286,0.004189494,4.843,0,0
-0.0026736060000000002,0.003907304,-0.0007319383999999999,0.002681222,0.005578532000000001,4.844,0,0
-0.003909964,-0.0005263080000000001,-0.00035688854000000004,0.00324959,0.007073210000000001,4.845,0,0
-0.0051793080000000005,-0.005043564,-0.00028055394,0.00398506,0.009542278000000001,4.846,0,0
-0.005503348000000001,-0.007429623200000001,-0.00050661174,0.00366383,0.010832564000000001,4.847,0,0
-0.005269052000000001,-0.0064097492,-0.00042170174,0.0023893560000000005,0.009504092000000002,4.848,0,0
-0.004689928000000001,-0.0036983922000000005,-0.00027003474,0.0009277279999999997,0.007804328000000001,4.849,0,0
-0.0034732062000000005,-0.0009641582000000002,-0.0003619616,-0.000704032,0.006061364000000001,4.85,0,0
-0.0020673722,-4.212620000000009e-05,1.2452199999999996e-05,-0.0028960139999999997,0.003045716,4.851,0,0
-0.0013049082,-0.0009234850000000001,0.0005756260000000001,-0.004362806,0.0007563460000000002,4.852,0,0
-0.0010415062,-0.002012895,0.001079618,-0.004867679999999999,-0.0005909580000000002,4.853,0,0
-0.000825929,-0.0024333660000000006,0.0015972190000000002,-0.00509683,-0.003399274,4.854,0,0
-0.0004775188,-0.0020494138,0.0017009388,-0.005193756,-0.007486410000000001,4.855,0,0
-0.00018820479999999995,-0.0013245018,0.0009748808,-0.005597722000000001,-0.012723222,4.856,0,0
0.0006331272000000001,-0.0003502983999999999,0.00045765020000000005,-0.006748546000000001,-0.019434128000000002,4.857,0,0
0.0019442752000000002,0.00038788980000000004,0.00044341420000000006,-0.007916558,-0.02460876,4.858,0,0
0.0028151060000000004,0.0006855470000000001,0.0002364682,-0.00803656,-0.0256013,4.859,0,0
0.0032746880000000004,0.0007145166000000001,0.0002364964,-0.0073188078,-0.022794366000000003,4.86,0,0
0.003435482,0.0006020830000000001,0.0005607118,-0.0053598758,-0.016551418000000002,4.861,0,0
0.0030444270000000006,0.0005748342,0.0005705547999999999,-0.0018580478000000007,-0.0069252379999999985,4.862,0,0
0.0024170310000000005,0.0005902636,0.00014875019999999997,0.0019427282,0.002524422,4.863,0,0
0.0016198088000000002,0.0005847054000000001,-0.0002551936,0.0043732982,0.008544102000000001,4.864,0,0
0.0005856728,0.00042097840000000005,-0.0005755926,0.005598454,0.012236408,4.865,0,0
-4.9215200000000037e-05,0.00044364320000000004,-0.0006262450000000001,0.0066812040000000005,0.014744200000000002,4.866,0,0
-7.530920000000001e-05,0.0007796846000000001,-0.0006430908000000002,0.006602708,0.014935580000000002,4.867,0,0
-6.291719999999991e-05,0.0010955230000000002,-0.0006906922000000001,0.005136882,0.012900450000000003,4.868,0,0
-0.0002298409999999999,0.0011412126,-0.0004982144,0.004180979999999999,0.010565076000000001,4.869,0,0
0.00010061140000000002,0.0007558017999999999,-0.000203458976,0.0035560120000000003,0.007806087800000001,4.87,0,0
0.0005119652,0.0002558666,-0.00012233097600000003,0.0021678266,0.0046561697200000005,4.871,0,0
0.0004993948000000001,-0.00016779700000000007,-0.00023676157600000002,0.0011461582,0.0033076117200000004,4.872,0,0
0.0005931548000000001,-0.00023526699999999994,-0.00019584877600000003,0.0010108888,0.0035331537200000004,4.873,0,0
0.0010276808,0.00038632240000000006,-0.00024116637600000003,0.0005961720000000001,0.0029075737200000003,4.874,0,0
0.0015904624000000003,0.0016289004,-0.000314405,-0.00027302000000000007,0.00129710192,4.875,0,0
0.0021565586000000005,0.0026956464,-0.00048692080000000006,-0.0012113866,-0.0016082199999999996,4.876,0,0
0.0026733600000000005,0.0029021760000000002,-0.0005965288000000001,-0.0025857722,-0.006910702,4.877,0,0
0.0029366840000000006,0.002847618,-0.0002972272,-0.0040999888,-0.011844174,4.878,0,0
0.0029047220000000006,0.0021212514,5.473639999999992e-05,-0.004816898,-0.013211604000000002,4.879,0,0
0.0022802659000000004,0.0005076614,1.7198799999999982e-05,-0.004824398,-0.012256476000000002,4.88,0,0
0.0015039855000000002,-0.0003458457999999999,0.00015008399999999998,-0.00443455,-0.009847554000000001,4.881,0,0
0.0009844919000000002,-0.00039242180000000006,0.0006202686,-0.0034565340000000007,-0.006463380000000001,4.882,0,0
7.575589999999998e-05,-0.0007735263599999999,0.00022419219999999997,-0.0022600642,-0.003847352,4.883,0,0
-0.0007866141000000002,-0.0007809309600000001,-0.00013993400000000003,-0.0014897802,-0.0027859020000000003,4.884,0,0
-0.00098173,-0.00019915136,1.9481199999999986e-05,-0.0006779802,-0.0021398694,4.885,0,0
-0.0014472016000000002,-0.00046662816000000003,-8.290750000000002e-05,0.0007197938000000001,-0.0003085694,4.886,0,0
-0.002080558,-0.00153563816,0.0001116259,0.0019656598,0.0015493626000000003,4.887,0,0
-0.002005896,-0.0021837236000000005,0.0005273539,0.00287299,0.0032710626000000006,4.888,0,0
-0.0019961120000000004,-0.0023771563999999998,0.0005020821000000001,0.0038308580000000004,0.0055561866000000005,4.889,0,0
-0.0024427220000000005,-0.0028083260000000003,0.0003059595,0.0043254700000000005,0.0073006680000000015,4.89,0,0
-0.0027149400000000008,-0.002954312,0.00019710500000000002,0.0040193979999999995,0.007229592000000001,4.891,0,0
-0.0031213320000000005,-0.001906998,-9.865219999999998e-05,0.00368977,0.007075802000000002,4.892,0,0
-0.003115138,-0.0006668659999999998,-0.0004479528,0.0035782080000000003,0.007568010000000002,4.893,0,0
-0.002310024,-5.6801999999999976e-05,-0.0005746786,0.0029028058000000003,0.006659174,4.894,0,0
-0.0015018224000000002,0.000736562,-0.000363204,0.0019246154000000005,0.005557556,4.895,0,0
-0.00017249440000000006,0.0016265480000000002,-0.00036914520000000004,0.0014683096,0.005413456,4.896,0,0
0.0010622116,0.002088266,-0.000743154,0.0008168976000000002,0.004627876,4.897,0,0
0.0011932322,0.0020977260000000003,-0.0008262274,-0.00024565439999999996,0.0025190739999999996,4.898,0,0
0.0009622952,0.0019045118000000003,-0.0008277538,-0.0005029466,0.001061582,4.899,1,1
0.0006170863999999999,0.0016536562000000002,-0.0011141142,-0.0006875662,3.985999999999996e-05,4.9,0,0
-7.668740000000006e-05,0.0014490506000000001,-0.00098584278,-0.0015563824,-0.002264764,4.901,0,0
-0.0004415058000000001,0.0015424606,-0.0003131467799999999,-0.0019059324,-0.0038522540000000003,4.902,0,0
-0.0006382544000000001,0.0012655606,5.0503420000000044e-05,-0.0017609364000000002,-0.0033421398,4.903,0,0
-0.0006990766000000001,0.0003967628000000001,0.00062075162,-0.0017982428,-0.0030385597999999995,4.904,0,0
-0.00032763340000000005,-0.0004886276,0.0015669496200000001,-0.0012546068,-0.0027280818,4.905,0,0
-0.00019460580000000004,-0.0012223860000000002,0.0019075502000000001,-0.00012914880000000016,-0.0005349077999999999,4.906,0,0
0.0001270746,-0.002405056,0.0016444132000000002,0.0006553132,0.0015120382000000001,4.907,0,0
0.0009237005999999999,-0.00353503,0.0015229634000000001,0.0011346226,0.0020140720000000004,4.908,0,0
0.0013121658000000002,-0.003335724,0.0012335206,0.0011900626,0.003025682,4.909,0,0
0.0011959000000000002,-0.002809212,0.0004123734000000001,0.0006784025999999998,0.003915352,4.91,0,0
0.0012780272000000002,-0.002735066,4.382740000000002e-05,6.607099999999998e-05,0.002832716,4.911,0,0
0.0008278468000000001,-0.00258305,-7.869740000000001e-05,-0.00018653319999999997,0.0020033860000000002,4.912,0,0
4.355480000000001e-05,-0.0018149062,-0.0003297398,-0.0003315744,0.0014889378000000001,4.913,0,0
-0.00012727100000000004,-0.0008435282000000001,-0.0004433764000000001,-0.0008878595999999999,-4.126020000000006e-05,4.914,0,0
-2.5381399999999994e-05,-0.00013786419999999993,-0.00041604120000000004,-0.0013330415999999999,-0.0015698242000000001,4.915,0,0
-4.989999999999964e-06,0.0010563618,-0.0003374388,-0.0012761704,-0.0022852982,4.916,0,0
-3.682619999999999e-05,0.0023864938000000002,-0.0001389086,-0.0016499563999999999,-0.0033565302,4.917,0,0
-8.41262e-05,0.004249964,0.0006931014,-0.0022562726000000003,-0.004969028,4.918,0,0
-0.0003543162,0.006754548000000001,0.0014491608,-0.0017997216000000002,-0.004976408000000001,4.919,0,0
-0.0005164438000000001,0.007297134000000001,0.0018154128,-0.0010945586,-0.004537152000000001,4.92,0,0
-0.0010442042,0.00432984,0.0022236804,-0.0010405352,-0.004550640000000001,4.921,0,0
-0.0013897756,0.0004784620000000011,0.0021674938,-0.000493081,-0.0035024936,4.922,0,0
-0.0014154376,-0.0025845800000000004,0.0013589598000000001,0.000616625,-0.0012463256,4.923,0,0
