bandpass 1,bandpass 2,bandpass 3,bandpass 4,bandpass 5,time,onset,mark
-0.0016316800000000002,-0.0003594346,-0.000946256,-0.0021584660000000004,0.0002062542,6.911,0,0
-0.0014140000000000001,0.00048581940000000005,-0.0001520260000000002,-0.0007208020000000004,0.00015657559999999999,6.912,0,0
-0.0013813520000000002,0.0031562794,0.00012251599999999992,5.385999999999965e-05,-0.00024106240000000003,6.913,0,0
-0.0007682322,0.005159705400000001,0.002110846,0.003302806,-0.0014335744,6.914,0,0
0.00019083979999999997,0.0036612299999999997,0.00418989,0.006868968000000001,-0.0020305046,6.915,0,0
0.0011034138000000002,0.0007189059999999996,0.003981852,0.007354094000000001,-0.0020865326,6.916,0,0
0.0011381158000000001,-0.0017240960000000005,0.003682746,0.007076312000000001,-0.0022008098000000005,6.917,0,0
0.0017344818,-0.004376903560000001,0.00412777,0.008037988000000001,-0.0019873846000000002,6.918,0,0
0.0025542060000000003,-0.00505047756,0.002564526,0.006523074,-0.0009563006000000002,6.919,0,0
0.002718414,-0.0014776335600000003,0.00040238000000000003,0.0034863700000000004,0.0001532714000000001,6.92,0,0
0.002881214,0.0014780684400000003,8.789139999999995e-05,0.0023243338000000003,0.0005120658,6.921,0,0
0.0024520304,0.00098407644,-0.0010485886,-0.00014665819999999988,0.0011587796,6.922,0,0
0.0012270404,-0.0003615700000000001,-0.0034969626000000004,-0.0045117362,0.0020738544,6.923,0,0
-0.0005941456000000002,-0.0026857660000000005,-0.004351196600000001,-0.0064961362000000005,0.0021773904,6.924,0,0
-0.0017579776000000002,-0.004192316,-0.0046968686,-0.0070986822,0.0021984504000000004,6.925,0,0
-0.0024841196,-0.0035799657999999995,-0.005879678000000001,-0.008606544,0.002353286,6.926,0,0
-0.00323967,-0.0025203718000000003,-0.005618526,-0.007916704,0.0017886600000000003,6.927,0,0
-0.002964836,-0.0008832358000000001,-0.0032420140000000005,-0.004219736000000001,0.0007387500000000003,6.928,0,0
-0.0015387320000000001,0.0018032542,-0.0014112519999999996,-0.0015491880000000004,-0.00023969799999999994,6.929,0,0
-0.0007367259999999999,0.0039646482,0.00043849999999999987,0.0006989579999999998,-0.0012295040000000002,6.93,0,0
-0.0005774301999999999,0.00476334,0.0031635120000000003,0.0044151139999999995,-0.002102604,6.931,0,0
0.0008190618,0.00534892,0.004662206,0.006739584,-0.002487752,6.932,0,0
0.0017574718,0.004521954,0.004963774,0.006523406000000001,-0.0022632846000000006,6.933,0,0
0.0013600978,0.00063799,0.0055913180000000005,0.00657161,-0.0020489466,6.934,0,0
0.0016476278,-0.003354764,0.0057594000000000005,0.006526868,-0.0019556206,6.935,0,0
0.002362266,-0.0040892920000000004,0.0038453920000000004,0.0035065160000000003,-0.0010012966,6.936,0,0
0.0018904260000000002,-0.003331446,0.0021349180000000004,0.0005487579999999999,-0.00020051660000000002,6.937,0,0
0.001166813,-0.0022930260000000005,0.0013657042,-0.0007205000000000002,-0.00014090899999999988,6.938,0,0
0.000687299,0.00013526999999999983,-0.0009299318,-0.0035881640000000005,0.0005268450000000002,6.939,0,0
-0.00013531300000000002,0.0014176042000000001,-0.0035048858,-0.006614418000000001,0.0012398550000000002,6.94,0,0
-0.000899889,-6.279179999999981e-05,-0.0038070358,-0.0069350900000000005,0.0009877180000000003,6.941,0,0
-0.001430611,-0.0016137938000000001,-0.0038789058000000005,-0.007070268000000001,0.0007396822000000001,6.942,0,0
-0.0018587500000000002,-0.0021743020000000004,-0.005362006,-0.008213090000000001,0.0008605098000000001,6.943,0,0
-0.002076634,-0.002047038,-0.004566788,-0.0066194439999999995,0.0001638198,6.944,0,0
-0.001724136,-0.0007602202000000001,-0.0018931780000000004,-0.003082822,-0.0006045322,6.945,0,0
-0.0012160060000000002,0.0004675377999999999,-0.0006399500000000001,-0.0006225199999999999,-0.00067375356,6.946,0,0
-0.00033683199999999996,0.0004029198000000001,0.001324366,0.002490602,-0.00105833176,6.947,0,0
0.000622444,0.0002981798000000002,0.004467840000000001,0.006618932000000001,-0.00153786236,6.948,0,0
0.0010340878,-0.00034970020000000006,0.005708537999999999,0.008691086,-0.0012836857600000001,6.949,0,0
0.0007385298,-0.0026635922000000003,0.0053288580000000006,0.008440176,-0.0006858411600000002,6.95,0,0
0.00035526999999999987,-0.0031524402000000003,0.005607653999999999,0.00849658,-0.00019290680000000001,6.951,0,0
0.000711668,-0.0006264262000000001,0.004927788,0.007370104000000001,0.0007820131999999999,6.952,0,0
0.00063188,0.0009821839999999999,0.0026813640000000003,0.003914624,0.0021736672,6.953,0,0
0.0009243462,0.00226989,0.0012050740000000002,0.0013543720000000002,0.0031772006,6.954,0,0
0.0021561982000000003,0.005124962,-0.00023750600000000018,-0.0007455080000000002,0.003384294,6.955,0,0
0.0023281524,0.0065137020000000006,-0.00302992,-0.00445513,0.00325185,6.956,0,0
0.0009243184000000003,0.00570571,-0.005572966,-0.007555300000000001,0.0029094420000000004,6.957,0,0
-0.00027252159999999995,0.004706466,-0.006197408000000001,-0.008264954000000001,0.0018717822,6.958,0,0
-0.0009575336000000002,0.0031904494000000003,-0.006627238000000001,-0.009074584,0.0012924622000000001,6.959,0,0
-0.0024930696000000003,0.0007324373999999998,-0.006669482000000001,-0.009543592,0.0015399902000000003,6.96,0,0
-0.0029593640000000004,-0.0009452186000000002,-0.004390362000000001,-0.006758210000000001,0.0012246474,6.961,0,0
-0.0016213120000000002,-0.0027183666000000005,-0.001742148,-0.0032077800000000004,0.0006763734000000002,6.962,0,0
-0.0007630267999999999,-0.0062811406,-0.0003273360000000002,-0.0009502960000000002,0.00046058920000000025,6.963,0,0
-0.00039962380000000005,-0.008668986,0.0019079260000000001,0.002743466,-0.0003146067999999999,6.964,0,0
0.0003337830000000001,-0.007998104,0.004433508,0.006814282,-0.0012243848,6.965,0,0
0.0007756358000000002,-0.006324286,0.004828864,0.007669232,-0.0014617424,6.966,0,0
0.0003931218,-0.004654900000000001,0.004839894,0.008039603999999999,-0.0016681644,6.967,0,0
0.0005622376,-0.0015260614000000001,0.005639231999999999,0.009297917999999999,-0.0017842184,6.968,0,0
0.0012627606000000001,0.0019977645999999997,0.004651014,0.00768745,-0.0012491730000000001,6.969,0,0
0.0012618432000000002,0.0033083165999999997,0.0024141740000000003,0.004616178,-0.000672895,6.97,0,0
0.0010790510000000001,0.0034038526,0.0013683240000000002,0.0031542040000000007,-0.000318447,6.971,0,0
0.0009912502000000002,0.0039612106,-0.000255514,0.00045525000000000014,0.00043571500000000004,6.972,0,0
0.0005735312000000002,0.004625008,-0.002841728,-0.003965034,0.001167159,6.973,0,0
-0.0005045388000000001,0.004455902,-0.004448738,-0.0065814260000000005,0.0011513193000000001,6.974,0,0
-0.0012937222000000003,0.003985038,-0.0051337660000000005,-0.007724376000000001,0.0008392011000000001,6.975,0,0
-0.0016028548,0.0031490888000000002,-0.006137892000000001,-0.00922244,0.0005828993,6.976,0,0
-0.002185438,0.0008096728000000003,-0.006029884000000001,-0.008687760000000001,-0.00011549869999999992,6.977,0,0
-0.002189392,-0.0005152512,-0.003974088000000001,-0.005089262000000001,-0.0012702326999999999,6.978,0,0
-0.001516074,0.0005751687999999999,-0.0019620700000000002,-0.0018183920000000003,-0.0021339764000000002,6.979,0,0
-0.0010758402,0.0014709748,-2.151399999999993e-05,0.0008531620000000002,-0.0026803642,6.98,0,0
-0.00043636020000000007,0.0012784799999999998,0.0027219880000000003,0.004687168,-0.003242902,6.981,0,0
0.0004106198,0.0011058039999999997,0.0049135,0.00756368,-0.00327917,6.982,0,0
0.0006432078,0.0005744659999999998,0.004793172,0.007510974000000001,-0.0024420206000000002,6.983,0,0
0.0009190458,-0.002166706,0.004662618,0.007531348,-0.0016396859999999998,6.984,0,0
0.001831732,-0.0051926360000000005,0.005224836,0.008083276,-0.001147548,6.985,0,0
0.0021002020000000002,-0.005412074000000001,0.0038934218,0.005759052,-0.00019875000000000003,6.986,0,0
0.0017142594000000002,-0.003446004,0.0019517177999999998,0.002622788000000001,0.00038428000000000003,6.987,0,0
0.0020104634000000002,-0.0015768180000000004,0.0009886258000000004,0.0012154940000000003,0.0002652642,6.988,0,0
0.0017982334000000001,-0.00017338400000000017,-0.0011758462,-0.001963034,0.0008088396,6.989,0,0
0.0006795194000000002,0.0012800564,-0.0039966642000000005,-0.006250774000000001,0.0015526396000000002,6.99,0,0
-0.0004303425999999999,0.0015310204,-0.005069756,-0.007626162,0.0015726936,6.991,0,0
-0.0009518619999999999,0.0018138524,-0.005564304000000001,-0.008339504000000001,0.0017300596000000001,6.992,0,0
-0.00172689,0.0014801784,-0.0059559320000000015,-0.009895776,0.00182626858,6.993,0,0
-0.003232472,-0.0008035076000000002,-0.0044689078000000005,-0.008177977999999999,0.00084462058,6.994,0,0
-0.003403492,-0.001955814,-0.0020176537999999997,-0.004260208000000001,-0.0002958414200000001,6.995,0,0
-0.0026568841999999996,-0.0023878040000000003,-0.00019446779999999998,-0.0019096680000000006,-0.0008399294200000001,6.996,0,0
-0.0019559242,-0.0034577140000000006,0.0021928502,0.001661722,-0.0014262854200000003,6.997,0,0
-0.0008274501999999999,-0.0018085400000000004,0.0047100822,0.006328876000000001,-0.0017630540000000002,6.998,0,0
0.0007042498000000002,0.0026425439999999997,0.005659946,0.00832218,-0.0011342768000000003,6.999,0,0
0.0015717198000000001,0.0052482,0.00540513,0.008217074000000001,-0.0005275454,7.0,0,0
0.0017704820000000003,0.00507548,0.005370224,0.008745326000000001,-0.0007529854000000002,7.001,0,0
0.0021627,0.003571646000000001,0.00478937,0.008061314,-0.0008411154000000002,7.002,0,0
0.002122346,0.0005778520000000002,0.0028157180000000005,0.004963968,-0.0003296022,7.003,0,0
0.0020126184000000004,-0.0026994099999999997,0.001181876,0.0026204500000000003,-0.00010484740000000012,7.004,0,0
0.0020315104000000004,-0.003861418,3.45800000000002e-06,0.0005917060000000002,0.0002979652,7.005,0,0
0.0017090204,-0.002226976,-0.0027603460000000003,-0.003269174,0.0015364051999999999,7.006,0,0
0.0010305922,0.0008705519999999999,-0.005858574,-0.006972426,0.0023293392000000002,7.007,0,0
9.876619999999993e-05,0.002847634,-0.0067815340000000005,-0.008017782000000001,0.0022026294,7.008,0,0
-0.0009076262000000002,0.0033767422000000004,-0.007402798,-0.009221496000000001,0.0022004154,7.009,0,0
-0.0021766062000000003,0.0021548241999999997,-0.00778809,-0.01012531,0.0019743194,7.01,0,0
-0.0027398022,-0.0004052158000000005,-0.005304442000000001,-0.007109262,0.0008772354,7.011,0,0
-0.0022913,-0.0022057538000000002,-0.0018527920000000002,-0.0033328920000000005,0.00017656939999999998,7.012,0,0
-0.0016494699999999999,-0.0030856756000000006,0.0005600160000000002,-0.001189168,-5.9433800000000095e-05,7.013,0,0
-0.0008860103999999997,-0.0037918178000000006,0.00395069,0.0027637460000000005,-0.0007804118000000001,7.014,0,0
0.0002550956,-0.0037850238,0.0068011880000000005,0.007376340000000001,-0.0014241878,7.015,0,0
0.0013946476,-0.0014541838,0.006929985999999999,0.00822254,-0.0015379818,7.016,0,0
0.0016071016,0.0007988722,0.00666869,0.00800803,-0.0017090158000000002,7.017,0,0
0.0018091396000000002,0.001776216,0.006561742,0.008831806000000001,-0.0016842664000000002,7.018,0,0
0.002325004,0.003005108,0.0046071058000000005,0.007134482,-0.0014368384,7.019,0,0
0.0019733275999999998,0.003243146,0.0019252177999999997,0.003701036,-0.0011705318,7.02,0,0
0.0013513224000000002,0.0015927279999999999,0.0009865957999999992,0.001965932,-0.0004987018,7.021,0,0
0.0009500948000000001,-0.0003302940000000003,-0.00045252020000000016,-0.0007100819999999999,0.0004027742,7.022,0,0
2.357079999999994e-05,-0.0016170814000000002,-0.0033948462,-0.00547294,0.0013441486,7.023,0,0
-0.0011342912,-0.0026824734000000005,-0.00521866,-0.008544476,0.0019484646,7.024,0,0
-0.0015704648,-0.0023915674,-0.005416594,-0.009651778,0.002462372,7.025,0,0
-0.0017829376,-0.0012072288,-0.005989216000000001,-0.010916098,0.0029097360000000004,7.026,0,0
-0.002608842,-0.0010249736,-0.006302028,-0.010316146,0.0024008302,7.027,0,0
-0.0028600180000000006,-0.0013865582,-0.0039253940000000005,-0.0063428799999999995,0.0009420081999999999,7.028,0,0
-0.00237877,-0.0014509041999999999,-0.0011952600000000003,-0.002604304000000001,-1.8158000000002275e-06,7.029,0,0
-0.0021421440000000003,-0.0014007642,0.00031110399999999976,0.0003989340000000001,-0.0007448498000000002,7.03,0,0
-0.0014354300000000001,-0.0010211648,0.00273125,0.004923810000000001,-0.0020619518,7.031,0,0
1.84959999999999e-05,0.0003962140000000003,0.005144508000000001,0.008775032,-0.002391446,7.032,0,0
0.001499404,0.0022645060000000003,0.005267606,0.009566252,-0.001736092,7.033,0,0
0.0023294299999999995,0.0028589866,0.0054213080000000006,0.010000476000000001,-0.0012419348,7.034,0,0
0.0029433999999999997,0.0025512646000000003,0.006144546,0.010222706000000002,-0.0010860752,7.035,0,0
0.003105714,0.0022847025999999998,0.004359888,0.007282946199999999,-0.0004302582,7.036,0,0
0.0026855860000000002,0.0014377886000000002,0.0020933199999999996,0.0036662062,0.00014535779999999999,7.037,0,0
0.00215165,0.00021033400000000006,0.0008451039999999997,0.0014886022,0.0001795306,7.038,0,0
0.0009880540000000001,5.359980000000007e-05,-0.0019504000000000001,-0.0017550558000000004,0.0010418554,7.039,0,0
-7.441199999999983e-05,0.0015536958000000002,-0.0051860940000000005,-0.005739675800000001,0.0018779398000000002,7.04,0,0
-0.000916522,0.0032774658000000005,-0.00644223,-0.007549752,0.0018716666000000001,7.041,0,0
-0.0019374000000000001,0.0046636738,-0.007169728000000001,-0.008389286000000001,0.0020117846,7.042,0,0
-0.002541756,0.0056414924,-0.007937600000000001,-0.009656608,0.0023086498,7.043,0,0
-0.0021511828,0.004518492000000001,-0.006232484800000001,-0.008281858000000001,0.0013342486,7.044,0,0
-0.0015650748000000001,0.000850384,-0.003369448800000001,-0.004369564000000001,0.0001544726000000001,7.045,0,0
-0.0013388908000000002,-0.003937846,-0.0014223808,-0.0014936340000000006,-2.3308199999999893e-05,7.046,0,0
-0.0009583828000000001,-0.0077647420000000016,0.0013127112000000003,0.0014526499999999998,-0.0009929482,7.047,0,0
-0.0005229474,-0.008935665800000001,0.0047569832,0.005770470000000001,-0.0021958062,7.048,0,0
0.00041614940000000007,-0.006924873800000002,0.006576876000000001,0.008232978,-0.0022836556,7.049,0,0
0.0012292614,-0.0033571578000000006,0.006905756000000001,0.008347068000000001,-0.0020200196000000003,7.05,0,0
0.0016713374000000003,1.1778200000000442e-05,0.007709320000000001,0.008951356,-0.0020508268000000002,7.051,0,0
0.0028595714,0.0029944562,0.007426926,0.008640845999999999,-0.0012143248,7.052,0,0
0.0034325040000000003,0.0031666834,0.004794658,0.005645538,0.0002247312,7.053,0,0
0.0025848208000000005,0.0011093093999999999,0.0020114020000000007,0.0024640300000000007,0.0005051822,7.054,0,0
0.0019752268,0.0009247074,-3.9403999999999936e-05,-0.00013616799999999988,0.0007829086,7.055,0,0
0.0011041408,0.0014411554,-0.003107108,-0.004431549999999999,0.0017206528,7.056,0,0
-0.0006221392,-0.0001628386000000001,-0.006077828,-0.00874253,0.0019901628000000005,7.057,0,0
-0.0019750232000000003,-0.0017763500000000003,-0.006510606,-0.010156332,0.0014126068000000001,7.058,0,0
-0.0025729380000000003,-0.0011355980000000002,-0.0067343080000000005,-0.011060374000000001,0.0012950925600000002,7.059,0,0
-0.003205214,-0.0008164800000000002,-0.006944894,-0.01154811,0.0013073883600000001,7.06,0,0
-0.00372581,-0.0008243580000000005,-0.004720197999999999,-0.008153276000000001,0.00021675436000000002,7.061,0,0
-0.003295078,0.0017723619999999998,-0.0018323159999999996,-0.0033026220000000007,-0.00063335164,7.062,0,0
-0.0026603699999999996,0.004617128,-0.00013038600000000002,-0.00033442,-0.00078007244,7.063,0,0
-0.0019558368,0.0030188140000000003,0.002548064,0.003518362,-0.0011119366,7.064,0,0
-0.0005847287999999998,-0.000862518,0.005636871999999999,0.007610832000000001,-0.0012574490000000001,7.065,0,0
0.0011303012,-0.0026857399999999994,0.006436148,0.008858656,-0.0008069266,7.066,0,0
0.0020682012,-0.004160244,0.0064787,0.008932894000000002,-0.00036693160000000007,7.067,0,0
0.0027452832000000003,-0.005022404,0.006899274,0.009345290000000001,-0.0002459442,7.068,0,0
0.0035489960000000004,-0.0023688859999999997,0.0057160200000000005,0.0077790260000000005,6.18239999999999e-06,7.069,0,0
0.003251458,0.001172564,0.00294547,0.004341330000000001,-4.815100000000001e-05,7.07,0,0
0.002725402,0.002976426,0.0008962599999999999,0.001700478,-0.0003095996,7.071,0,0
0.002531978,0.0044810660000000006,-0.001127312,-0.001407336,-8.284060000000003e-05,7.072,0,0
0.001578452,0.004322,-0.004177750000000001,-0.005401444,0.0006222688,7.073,0,0
0.0001681880000000002,0.0020894879999999996,-0.0063736980000000006,-0.007929432,0.0011855502000000001,7.074,0,0
-0.000623368,0.001067616,-0.006929012000000001,-0.008543802,0.0012850148,7.075,0,0
-0.0014505800000000001,0.0008315699999999998,-0.007473658000000001,-0.009552632000000002,0.0011793869999999998,7.076,0,0
-0.0026140140000000004,-0.0018600560000000001,-0.007440092000000001,-0.009402721999999999,0.0005467109999999999,7.077,0,0
-0.003034808,-0.004293542000000001,-0.005010844,-0.005969008,-0.000582043,7.078,0,0
-0.0026411436000000005,-0.002997914,-0.0020199480000000006,-0.002442596,-0.001420765,7.079,0,0
-0.0021346788000000004,-0.0021448080000000002,0.0003481459999999997,0.0005298919999999999,-0.0017960380000000002,7.08,0,0
-0.0014295152,-0.0020838579999999996,0.0035722139999999998,0.005118516,-0.002305318,7.081,0,0
-0.00020393120000000004,0.0012288880000000005,0.006207106,0.009058668,-0.00247444,7.082,0,0
0.0010866708,0.005424648000000001,0.006364404000000001,0.009689846000000002,-0.00230799,7.083,0,0
0.0017063384,0.005349846000000001,0.0060795120000000005,0.009870433999999999,-0.0022731020000000004,7.084,0,0
0.0020149816,0.003893288,0.00549407,0.009932932000000002,-0.0017166554,7.085,0,0
0.002606656,0.0035299280000000008,0.0030144340000000003,0.006902618000000001,-0.0007519434000000001,7.086,0,0
0.00244531,0.000833122,0.0008114119999999999,0.0030613780000000004,0.00029048460000000013,7.087,0,0
0.0018760600000000001,-0.002268502,0.0001968882,0.0007938640000000002,0.0014525986000000002,7.088,0,0
0.0012945090000000001,-0.00296278,-0.0018012318000000002,-0.002771776,0.0026672126,7.089,0,0
2.2388999999999938e-05,-0.0028185080000000004,-0.0046762798000000005,-0.007377496000000001,0.0033873700000000002,7.09,0,0
-0.001587385,-0.00359143,-0.0054313238,-0.009566662,0.0033598916,7.091,0,0
-0.002835511,-0.0036537546000000006,-0.0058614858,-0.010309662,0.0030022036000000004,7.092,0,0
-0.003514053,-0.0027428114000000005,-0.00700224,-0.011336416,0.0024850176,7.093,0,0
-0.003975152,-0.0025883614,-0.0057655144,-0.009707687999999999,0.0013435195999999998,7.094,0,0
-0.003543192,-0.0026069234,-0.0021688204,-0.005276376,-1.392640000000007e-05,7.095,0,0
-0.0026432120000000003,-0.0018936054,0.00012989760000000055,-0.00161466,-0.00048826200000000005,7.096,0,0
-0.0016873412,-0.0008193467999999998,0.0021321936000000003,0.0021331020000000004,-0.00121783,7.097,0,0
-0.00034064719999999987,-0.0005029436000000001,0.0054007656,0.006804598,-0.002418602,7.098,0,0
0.0007779008,0.0002567503999999999,0.0069665939999999996,0.009721330000000002,-0.0026487200000000002,7.099,0,0
0.0016904668000000001,0.0016734824,0.006377652,0.009791642,-0.002250143,7.1,0,0
0.0026691648,0.0022106164,0.006464396,0.009737176,-0.001966259,7.101,0,0
0.0035228020000000002,0.0019986544,0.006238564,0.009203928000000002,-0.0013581246,7.102,0,0
0.0036691880000000003,0.002813944,0.0031895820000000003,0.005815658,-8.595460000000016e-05,7.103,0,0
0.00365105,0.004383652,0.000540202,0.0023337440000000004,0.0009267193999999999,7.104,0,0
0.0033121046,0.004159802000000001,-0.00039764200000000013,0.00014736200000000017,0.0014849304,7.105,0,0
0.0017897866000000002,0.002859328,-0.003175328,-0.003742108,0.0024217303999999997,7.106,0,0
-0.0002656234000000001,0.0015882960000000001,-0.006393583999999999,-0.008123282,0.00316197,7.107,0,0
-0.0021594034,1.8659999999999987e-05,-0.006974276000000001,-0.009425246000000002,0.0026797972,7.108,0,0
-0.0032393454000000004,-0.0012978742000000001,-0.0071634260000000005,-0.010243212,0.0017859792,7.109,0,0
-0.00410747,-0.0024481542,-0.007694352000000001,-0.011266052,0.0010224852000000003,7.11,0,0
-0.0046861260000000005,-0.0042513202,-0.005402692000000001,-0.008099666,-0.00048427079999999986,7.111,0,0
-0.0037631860000000004,-0.0048196502,-0.002202196,-0.003076204,-0.0019245008000000003,7.112,0,0
-0.0025087696000000003,-0.004349927,-0.0005655780000000002,-0.0001034940000000002,-0.002256742,7.113,0,0
-0.0016950036000000003,-0.0046872988,0.0019623799999999997,0.0037537259999999998,-0.002313354,7.114,0,0
-0.0002868056000000001,-0.0035563628,0.004447532000000001,0.008343504000000002,-0.002262492,7.115,0,0
0.0016749464000000002,-0.0006490827999999999,0.004632098,0.00957533,-0.0017549587999999999,7.116,0,0
0.0026918364,0.0018554832,0.0045578300000000006,0.00860086,-0.0011561368000000002,7.117,0,0
0.00308498,0.0030176200000000004,0.005201594,0.00819195,-0.0009342610000000001,7.118,0,0
0.0035828080000000007,0.00450953,0.0037684448,0.006015067000000001,-0.0004836656000000001,7.119,0,0
0.0030008432000000005,0.006849896,0.0007484828000000002,0.0016031690000000002,0.00017222239999999998,7.12,0,0
0.0016927212,0.00796473,-0.0011430972,-0.002021107,0.00011822420000000001,7.121,0,0
0.0004053571999999999,0.006803322,-0.0031670312000000003,-0.005412339,0.00034370220000000005,7.122,0,0
-0.0011028208,0.00471524,-0.005902865200000001,-0.009143885000000001,0.0010758844000000002,7.123,0,0
-0.0026605388,0.00291838,-0.007038654,-0.011241862,0.0011912580000000002,7.124,0,0
-0.0035134380000000002,0.0010127040000000001,-0.005991096000000001,-0.010796152,0.0011326120000000003,7.125,0,0
-0.003417502,-0.0004083500000000001,-0.0049276036,-0.009626944,0.0014492898000000001,7.126,0,0
-0.0030645226,-0.0023824880000000003,-0.0035063288000000002,-0.0071604824,0.0009268458000000002,7.127,0,0
-0.0022088036000000003,-0.003923862,-1.0028799999999873e-05,-0.0017031424,-0.0004248282000000001,7.128,0,0
-0.0007981275999999999,-0.003936024000000001,0.0034245032,0.0035963576,-0.0012731512000000002,7.129,0,0
0.00038079039999999997,-0.004284550000000001,0.0054408312,0.007025725600000001,-0.0017928976,7.13,0,0
0.0013987064000000001,-0.004901757600000001,0.0082403408,0.011294521600000001,-0.0024833504000000006,7.131,0,0
0.0026208410000000005,-0.0045437016,0.010919232000000001,0.01490086,-0.0028540704000000004,7.132,0,0
0.003670946,-0.0028492096,0.010579528000000001,0.014019654000000001,-0.0016887544000000001,7.133,0,0
0.004077796000000001,-0.0022490096,0.008851848,0.011813754000000001,-0.00013480040000000016,7.134,0,0
0.004459094,-0.0021887756,0.0073750199999999995,0.010279296,0.00055759,7.135,0,0
0.004244288,-0.0008788480000000002,0.0039140880000000005,0.005948786,0.002072618,7.136,0,0
0.0027206500000000007,0.00019434400000000016,-0.0005860199999999996,0.0006514500000000005,0.00397414,7.137,0,0
0.0014855360000000004,0.0008912648,-0.0033792500000000003,-0.0025811939999999998,0.00421556,7.138,0,0
0.0003470086,0.0015149128,-0.00625293,-0.006388414,0.0038875660000000003,7.139,0,0
-0.0013358914,0.0005109868000000001,-0.00907518,-0.010580996,0.0037717600000000003,7.14,0,0
-0.0025573574000000003,-0.0013499292,-0.009449263999999999,-0.011929066,0.00276821546,7.141,0,0
-0.0025558974,-0.0009708170000000001,-0.007931054000000002,-0.010975514,0.0015803786600000003,7.142,0,0
-0.0021536854,-0.00019560179999999995,-0.005982964,-0.009260451800000001,0.0007137126600000001,7.143,0,0
-0.001740152,0.0002626521999999999,-0.002160518,-0.004937061800000001,-0.00086179534,7.144,0,0
4.1493999999999884e-05,0.0029848062,0.003298002,0.0018611382000000003,-0.00266716734,7.145,0,0
0.002345246,0.0053055582,0.007571878,0.007561478200000001,-0.0037796168000000007,7.146,0,0
0.003498398,0.003423504,0.011149276,0.0119342022,-0.0045996760000000005,7.147,0,0
0.004118382,0.00034585599999999985,0.014245506,0.01595625,-0.004911672000000001,7.148,0,0
0.0051848680000000005,-0.0007088422000000001,0.01521636,0.017655080000000004,-0.004486614,7.149,0,0
0.0053229060000000005,-0.0024564202000000005,0.013257874000000001,0.015633102,-0.003557038,7.15,0,0
0.004436448,-0.0043170021999999995,0.010450292000000002,0.012718378,-0.0024324194000000005,7.151,0,0
0.004060154,-0.0023682868,0.00677613,0.009386298000000001,-0.0011304854,7.152,0,0
0.0032476512000000003,0.0008636252,0.0009719500000000001,0.003114758,0.00040420659999999993,7.153,0,0
0.0014575432000000002,0.0013072034,-0.00423301,-0.0031299620000000005,0.0018114806000000003,7.154,0,0
-0.0002812388,0.0011459734,-0.0077088239999999995,-0.0072623240000000006,0.0029679826000000003,7.155,0,0
-0.0019117208,0.0016003926,-0.011352141999999999,-0.012499340000000001,0.0038804840000000005,7.156,0,0
-0.0037757888,0.0011900372,-0.01434002,-0.0173115,0.004223478000000001,7.157,0,0
-0.005186182,0.0001503191999999999,-0.014115159999999998,-0.018103980000000002,0.00361383,7.158,0,0
-0.005572716000000001,-0.0003525834,-0.012830842,-0.01736148,0.0029704218,7.159,0,0
-0.005735166000000001,-0.0003495954,-0.011340724,-0.016206968000000002,0.00231698078,7.16,0,0
-0.005563030000000001,-0.000664454,-0.007006101999999999,-0.01135018,0.00071305278,7.161,0,0
-0.0038110142000000007,-0.00022035360000000002,-0.001348382,-0.00453806,-0.00104451722,7.162,0,0
-0.0017756302000000003,0.0011136664,0.0028265979999999996,0.0006393600000000003,-0.00197832722,7.163,0,0
-0.0006851222000000002,0.001923545,0.00670544,0.00606894,-0.00302661702,7.164,0,0
0.0007914418,0.0015996798,0.010370362000000001,0.011439148000000001,-0.003789308,7.165,0,0
0.0025771978,0.0013463411999999999,0.011070188,0.01339572,-0.0030798150000000005,7.166,0,0
0.003153438,0.0016768167999999999,0.009212413999999999,0.012433276000000002,-0.0022437348000000005,7.167,0,0
0.002973766,0.0014831087999999997,0.007109206979999999,0.011140198,-0.0016464592000000001,7.168,0,0
0.0031446980000000005,0.000697189,0.00432178498,0.007813035999999999,-0.0002065452,7.169,0,0
0.0024673666000000006,-0.00015633780000000005,0.0003896469799999998,0.0020751560000000003,0.0013489988,7.17,0,0
0.0008938365999999999,-0.0002091418000000002,-0.0030270950200000004,-0.0022035839999999998,0.0018654678000000003,7.171,0,0
-0.00011385140000000002,-0.00035896180000000004,-0.0056681610200000005,-0.00588514,0.0024251536000000004,7.172,0,0
-0.0012392594,-0.0013293114,-0.008546574000000001,-0.010613342,0.0031509920000000005,7.173,0,0
-0.0029579074,-0.0018150836,-0.011037512000000001,-0.013912879999999999,0.002924106,7.174,0,0
-0.004006626,-0.0011913856,-0.011732594,-0.0144493,0.0022916568000000003,7.175,0,0
-0.004088102000000001,-0.00013521160000000009,-0.011847998,-0.01492494,0.0020683088000000003,7.176,0,0
-0.004904706,-0.0005726546000000001,-0.011586872,-0.01486638,0.0017902028000000001,7.177,0,0
-0.005645888,-0.001561169,-0.0087845052,-0.011070272800000001,0.0006957808000000001,7.178,0,0
-0.0052224079999999996,-0.001252543,-0.0049974492,-0.0064235188,-0.0003670272,7.179,0,0
-0.0049082760000000005,-0.0006754570000000001,-0.0024611032,-0.0032292268000000002,-0.000911696,7.18,0,0
-0.00440353,7.148300000000022e-05,0.0007955087999999997,0.0013174071999999997,-0.001751088,7.181,0,0
-0.003009992,0.001938714,0.0045562488,0.0062945072000000005,-0.002525004,7.182,0,0
-0.001152726,0.0035099460000000003,0.005783654,0.008070034,-0.0023298528,7.183,0,0
0.00034583200000000013,0.0025328860000000007,0.006222261999999999,0.00913608,-0.0017769584,7.184,0,0
0.0014993500000000002,0.0005612500000000006,0.007398368,0.011389208,-0.0017094684000000001,7.185,0,0
0.0022412160000000003,-0.0016148700000000005,0.007026998,0.010821356,-0.0014075764000000001,7.186,0,0
0.0026422760000000003,-0.003888854,0.00571084,0.0083100294,-0.0006975592,7.187,0,0
0.002981264,-0.004118804,0.004832406,0.006782471400000001,-0.00019804040000000005,7.188,0,0
0.0031362800000000004,-0.0016926259999999998,0.00271359,0.0034353274000000003,0.00040114520000000006,7.189,0,0
0.0029242138,0.001995914,-0.0008414700000000002,-0.0019934326,0.0011287792,7.19,0,0
0.0020116158,0.0034649620000000003,-0.003873504,-0.005702074600000001,0.0016237272,7.191,0,0
0.0006501278,0.002857938,-0.0060121440000000005,-0.008074228,0.0017718400000000002,7.192,0,0
-0.0006606182,0.0018995799999999999,-0.008366662,-0.010988644,0.0016062274000000004,7.193,0,0
-0.0017141902,-0.0003276899999999996,-0.009353018000000001,-0.011329680000000002,0.0012181566,7.194,0,0
-0.002206566,-0.0031246439999999993,-0.00724156,-0.00834729,0.0005297186000000002,7.195,0,0
-0.00238162,-0.00467757,-0.004559016,-0.0054695279999999995,0.00010989100000000006,7.196,0,0
-0.0023769760000000003,-0.004665492,-0.002392814,-0.00218654,-0.00010831679999999995,7.197,0,0
-0.0018842674,-0.0037871642,0.0012359580000000001,0.0030627600000000003,-0.0007039901999999999,7.198,0,0
-0.00155958,-0.0022004102,0.0050058740000000004,0.00752388,-0.0009939714,7.199,0,0
-0.0007104959999999998,-0.0008762762000000001,0.006403304,0.00927305,-0.0009031164000000001,7.2,0,0
0.0009782839999999998,0.0003256358,0.007576228,0.010955208000000001,-0.0011358588,7.201,0,0
0.0027763500000000003,0.0015352588,0.009169978,0.0126166,-0.0012648072000000002,7.202,0,0
0.0037991114,0.0015306788,0.00841009,0.011402342000000001,-0.0005688552000000001,7.203,0,0
0.003997772,0.0013349648,0.0065118442,0.008963536000000001,-0.00020027659999999998,7.204,0,0
0.0041954,0.0018397647999999999,0.004967501400000001,0.007145214000000001,-0.0003434676,7.205,0,0
0.0035816100000000003,0.0029407167999999997,0.0015005734000000002,0.0029293600000000006,0.00024204640000000002,7.206,0,0
0.00243685526,0.0041793758,-0.0029522666,-0.0030788400000000002,0.0010689186,7.207,0,0
0.0011469252600000003,0.004999956,-0.0054378926,-0.0070043020000000004,0.0011089166,7.208,0,0
-0.0003830447400000002,0.0052432519999999995,-0.0070968708,-0.010162116,0.0010996676,7.209,0,0
-0.0024651947400000005,0.003556904,-0.008818728000000001,-0.013240334,0.0016801196,7.21,0,0
-0.00449941874,0.0006292999999999995,-0.008031528,-0.012360062,0.0011126236,7.211,0,0
-0.005301978000000001,-0.0011979780000000002,-0.005256404000000001,-0.008455355999999999,-0.00021217240000000003,7.212,0,0
-0.005133904000000001,-0.003464656,-0.0034733084,-0.005499556,-0.0007990024,7.213,0,0
-0.004126828000000001,-0.0061031,-0.0010332123999999996,-0.001632058,-0.0014485119999999999,7.214,0,0
-0.00252489,-0.0059199280000000005,0.0027252076000000005,0.0038911220000000003,-0.002256358,7.215,0,0
-0.000406662,-0.00408355,0.0050509476,0.007633944,-0.0021940320000000003,7.216,0,0
0.00112422,-0.002868870000000001,0.0061861016000000005,0.009666138000000001,-0.0019670080000000006,7.217,0,0
0.002079898,-0.0008131180000000004,0.008296788000000001,0.012299018,-0.00217253,7.218,0,0
0.0039027180000000003,0.003689402,0.009462948,0.01346028,-0.0018116154000000003,7.219,0,0
0.005300226,0.007164902000000001,0.007912440000000001,0.011478274,-0.0011241588000000004,7.22,0,0
0.005311262,0.005804786000000001,0.006633984,0.009119908,-0.00040473080000000007,7.221,0,0
0.004968082,0.001930658,0.0052579639999999995,0.0063897088,0.0005741812000000001,7.222,0,0
0.00424658104,-0.0015351499999999999,0.0018781800000000006,0.0014316828,0.0018764412000000002,7.223,0,0
0.0025626298400000004,-0.005170218,-0.001587876,-0.0034746971999999997,0.0030172326,7.224,0,0
0.00106863424,-0.006881688,-0.0034755920000000004,-0.0061652532,0.003416772,7.225,0,0
0.0003656624400000001,-0.004153510000000001,-0.005336092,-0.0089115672,0.003347034,7.226,0,0
-0.00095154156,-0.0006048699999999999,-0.007246066000000001,-0.011295768,0.003009176,7.227,0,0
-0.0020327065999999998,0.0019895458,-0.006583458,-0.009896828,0.0019766640000000004,7.228,0,0
-0.0020445226,0.0041272198,-0.004882779999999999,-0.00708433,0.0005048720000000001,7.229,0,0
-0.0022022718800000004,0.0041072418000000005,-0.0036100920000000005,-0.005138159,-0.00033584000000000006,7.23,0,0
-0.00209825848,0.0028275718,-0.001034012,-0.001051109,-0.0010791980000000002,7.231,0,0
-0.00101930408,0.0020094098,0.002587922,0.003820691,-0.00183762,7.232,0,0
0.00035028392,0.0013910040000000004,0.0049704580000000005,0.006181957000000001,-0.0019284700000000003,7.233,0,0
0.00094463912,-0.00020482999999999992,0.006257632000000001,0.008125719,-0.001899792,7.234,0,0
0.001672466,-0.00292827,0.008001832,0.010586870000000002,-0.00203657,7.235,0,0
0.0028949124000000005,-0.004516256,0.008300354000000001,0.01045343,-0.0018234258,7.236,0,0
0.0033781440000000005,-0.0044738320000000005,0.006675658,0.008318872,-0.0013537388,7.237,0,0
0.0031644500000000005,-0.0038430288000000003,0.0049731382,0.006739566000000001,-0.0010802467999999998,7.238,0,0
0.002476732,-0.0027966588,0.0026378662,0.003346494,-0.00014129680000000017,7.239,0,0
0.0011169680000000003,-0.0007574988,-0.0008681038000000003,-0.0019183460000000007,0.0011785212,7.24,0,0
-0.000845472,0.0005999972,-0.0042892598,-0.005832136000000001,0.001804097,7.241,0,0
-0.00212034,0.0005393592000000001,-0.0068684618,-0.008533078000000001,0.00214762,7.242,0,0
-0.00255526,0.00135863,-0.009560222000000002,-0.011347012000000002,0.002718622,7.243,0,0
-0.003097514,0.00261026,-0.011004686,-0.012097318000000001,0.0026358,7.244,0,0
-0.003000614,0.005060708000000001,-0.009532756,-0.009569822,0.0016347484,7.245,0,0
-0.002717698,0.007094120000000001,-0.0072361394,-0.006863908,0.0009417724,7.246,0,0
-0.002985586,0.005894238,-0.0047669274,-0.003908414,-5.019960000000011e-05,7.247,0,0
-0.0023920300000000003,0.002462854,-0.0002572014,0.0009452060000000005,-0.0011993096000000002,7.248,0,0
-0.0006924120000000001,-0.001203638,0.0044473186,0.0054697240000000005,-0.0016776080000000001,7.249,0,0
0.001046076,-0.004853886,0.0064911306000000005,0.007500402000000001,-0.0019187824,7.25,0,0
0.0025088840000000003,-0.007533132,0.008089838,0.009385668,-0.0022972544000000004,7.251,0,0
0.003948200000000001,-0.004843322000000001,0.009956866,0.011255314000000002,-0.0025373984000000003,7.252,0,0
0.004673664,1.3758000000000433e-05,0.009332486000000001,0.009595695999999999,-0.0022315444,7.253,0,0
0.004305580000000001,0.0030184080000000006,0.007196876000000001,0.0067784360000000005,-0.001835668,7.254,0,0
0.0037091120000000005,0.004882974,0.0054757288,0.0048544822,-0.0012804460000000002,7.255,0,0
0.0031583860000000004,0.0053379830802,0.0022226668,0.0006668102000000004,-3.665600000000004e-05,7.256,0,0
0.0019007600000000005,0.003015551080200001,-0.0020963331999999998,-0.0047658898,0.0015737300000000002,7.257,0,0
-0.0003059759999999999,-0.0011912289197999997,-0.004952409200000001,-0.0077842118,0.0023063700000000003,7.258,0,0
-0.0018288700000000002,-0.0037290869197999996,-0.007018981200000001,-0.0102058718,0.0024835860000000003,7.259,0,0
-0.0033013560000000005,-0.0052487209198,-0.008867504000000002,-0.013188152,0.0026647780000000005,7.26,0,0
-0.005180242000000001,-0.005853510000000001,-0.008584546,-0.012626608,0.0022001909999999998,7.261,0,0
-0.005046628,-0.0047422714,-0.006705158000000001,-0.008954604,0.001490082,7.262,0,0
-0.003926259200000001,-0.002590433,-0.005279285200000001,-0.00598805,0.0011054692,7.263,0,0
-0.0036408532000000004,-0.001240913,-0.0027167892,-0.0023452099999999995,0.0002972831999999999,7.264,0,0
-0.0028285934,-0.000691491,0.0008780827999999999,0.0031140300000000003,-0.0009785488,7.265,0,0
-0.0009864394000000001,0.0008985830000000001,0.0035674248,0.006717098000000001,-0.0020396578,7.266,0,0
0.00031541260000000004,0.0020060884,0.0053942548000000005,0.007680188,-0.0030208268,7.267,0,0
0.0013586998000000002,0.0026205440000000003,0.0074609920000000005,0.009402014,-0.0036720340000000002,7.268,0,0
0.0034761238000000005,0.003964212,0.008566322,0.010606114000000002,-0.0035151132000000003,7.269,0,0
0.004783502,0.004506994,0.007237082,0.008575494000000001,-0.0027245058,7.27,0,0
0.004664764,0.0031797219999999994,0.005619387599999999,0.005903180000000001,-0.0020458618,7.271,0,0
0.004380828,0.0016842419999999999,0.003893219599999999,0.0036583320000000003,-0.0010787709999999999,7.272,0,0
0.0031788660000000007,0.0009363856,0.0003560636000000002,-0.0009093280000000003,0.00022910100000000006,7.273,0,0
0.0008342260000000001,-0.00010661920000000003,-0.0035377104,-0.006176328,0.0011355522000000002,7.274,0,0
-0.001278464,-0.0011449332,-0.005664938400000001,-0.008843788000000002,0.0018933808000000003,7.275,0,0
-0.002504854,-0.0006911362,-0.00741714,-0.010738954000000002,0.0026436408000000003,7.276,0,0
-0.003852552,0.00017812380000000003,-0.008971934,-0.012296660000000001,0.002864448,7.277,0,0
-0.004645512,-8.495799999999967e-06,-0.007988808000000002,-0.010303768000000001,0.0023182528,7.278,0,0
-0.004459772,-0.00015669479999999998,-0.005804551999999999,-0.006412512,0.0016659002,7.279,0,0
-0.004030604,-6.0419999999999804e-06,-0.003898409,-0.0036972440000000006,0.0008034462,7.28,0,0
-0.0032345755999999997,-0.00037857900000000004,-0.0007845270000000001,0.0003699179999999999,-0.0003116298,7.281,0,0
-0.0017164855999999996,-0.000414955,0.0027309810000000004,0.0054741780000000006,-0.0009005098,7.282,0,0
0.0005059004000000002,0.001045327,0.004444525,0.008148686000000002,-0.0010700706,7.283,0,0
0.0021996704,0.0022883008000000003,0.005592979000000001,0.00968099,-0.0017595240000000002,7.284,0,0
0.0036643184,0.0022922434000000004,0.007216612,0.011871122000000001,-0.002514792,7.285,0,0
0.004989546,0.0019514393999999998,0.007135832000000001,0.011944624000000001,-0.0020925204,7.286,0,0
0.004638902,0.0015562470000000004,0.005633114,0.0092063234,-0.0012490043999999999,7.287,0,0
0.0033153986,0.0009224470000000001,0.004686662,0.0064950574,-0.0004884103999999998,7.288,0,0
0.0027108286,3.0982999999999944e-05,0.002575842,0.002979745400000001,0.0009409056,7.289,0,0
0.0016111726000000001,-0.00025672640000000006,-0.0014858239999999997,-0.0022497546,0.0028303096000000002,7.29,0,0
-0.00035181740000000006,0.00026681340000000005,-0.004782092,-0.006913818600000001,0.003814038,7.291,0,0
-0.0011317334000000001,0.0007313798000000002,-0.007093518000000001,-0.009597198000000001,0.0036095660000000002,7.292,0,0
-0.0015730140000000002,-0.0007453822,-0.00961812,-0.011971012000000001,0.003287988,7.293,0,0
-0.003117056,-0.0033421282000000003,-0.010301820000000001,-0.01316434,0.002835956,7.294,0,0
-0.00402527,-0.0044488002,-0.0078474226,-0.010782828,0.001744441,7.295,0,0
-0.0036135140000000004,-0.004823516000000001,-0.004752322600000001,-0.007310308000000001,0.0006313290000000001,7.296,0,0
-0.0033697220000000003,-0.0045919920000000005,-0.0019665866,-0.0038635720000000004,-0.00014324899999999992,7.297,0,0
-0.0028549384,-0.0013050699999999998,0.0018716034,0.0014636480000000001,-0.001323635,7.298,0,0
-0.0013056304,0.00359907,0.0052816434,0.0067087480000000005,-0.002317719,7.299,0,0
0.0002309275999999999,0.004655274,0.006426312,0.008897004,-0.0027454800000000002,7.3,0,0
0.0011809356,0.0015258979999999986,0.0072575040000000006,0.010474644000000002,-0.003117426,7.301,0,0
0.0022962656,-0.001569008000000001,0.008656548,0.011919708000000001,-0.00299112,7.302,0,0
0.0032984,-0.004302744000000001,0.0077721560000000006,0.009896518,-0.0021938634,7.303,0,0
0.003309686,-0.007395410000000001,0.005689291399999999,0.0065106400000000016,-0.0010829234,7.304,0,0
0.00301527,-0.0066312900000000015,0.004414940199999999,0.004340916,-0.00014966540000000003,7.305,0,0
0.00271206,-0.0018924440000000005,0.0012969822000000002,0.00010407600000000026,0.0010293426000000001,7.306,0,0
0.0018995092,0.0009685879999999999,-0.0025373718000000003,-0.0053715640000000005,0.0020219306,7.307,0,0
0.00040519319999999994,0.0010457759999999998,-0.0045611038,-0.008134294,0.0019023377999999997,7.308,1,1
-0.0008249208000000001,0.002073054,-0.006433737200000001,-0.010264136,0.0016317470000000002,7.309,0,0
-0.0017088208000000003,0.003731572,-0.008327636000000001,-0.01264232,0.001698415,7.31,0,0
-0.0031048488,0.0037355,-0.007638332,-0.011481266,0.0011474202,7.311,0,0
-0.003978184,0.002981832,-0.005436116000000001,-0.007778262000000001,0.0002947222,7.312,0,0
-0.003787304,0.0025043859999999995,-0.003951750600000001,-0.004959170000000001,0.00018401879999999996,7.313,0,0
-0.0029759395999999997,0.001977593999999999,-0.0015525766000000002,-0.0008449179999999998,-0.0003639724000000001,7.314,0,0
-0.0017543175999999998,-0.0002616000000000001,0.0020894054000000005,0.004419102,-0.0014555864000000002,7.315,0,0
-7.112159999999993e-05,-0.0020787820000000004,0.004770911400000001,0.007782988,-0.0020315556,7.316,0,0
0.0011379804,-0.0015585668000000002,0.0057324334000000005,0.009298004,-0.0022054956000000002,7.317,0,0
0.0018356084000000002,-0.0012108048,0.007125632000000001,0.010844492,-0.0023962560000000003,7.318,0,0
0.003054386,-0.0010120948,0.008009138,0.011458560000000001,-0.002365338,7.319,0,0
0.0037282980000000005,0.0001279012,0.005805714000000001,0.009094716000000001,-0.0015192008000000001,7.32,0,0
0.0037677320000000006,0.0017144452000000003,0.003077188,0.006368368,-0.0004670448,7.321,0,0
0.003932950000000001,0.0023557180000000006,0.0014349380000000004,0.0037352720000000004,0.0005724132,7.322,0,0
0.0035689406000000003,0.00204281,-0.001505018,-0.0012109880000000005,0.0018220452,7.323,0,0
0.0017466186,0.002061248,-0.00503904,-0.006483288,0.0027676592,7.324,0,0
-0.00044269540000000014,0.003225976,-0.006397562000000001,-0.009012824000000001,0.0028446540000000003,7.325,0,0
-0.0019946114000000004,0.00493124,-0.007419448,-0.011205836,0.0029492319999999995,7.326,0,0
-0.0036823354000000003,0.005238994,-0.008965056,-0.01313018,0.003059716,7.327,0,0
-0.004539410000000001,0.005071894,-0.0076336666,-0.010816738,0.0020035684,7.328,0,0
-0.0039814068,0.003278172,-0.0043388566000000005,-0.006637718000000001,0.0007995144000000002,7.329,0,0
-0.0032158904,-0.002344568,-0.0019093546,-0.0036404559999999994,0.00011269239999999999,7.33,0,0
-0.0025731984,-0.008523488000000001,0.0014844133999999999,0.0008364899999999996,-0.0012777556,7.331,0,0
-0.0016380164,-0.011415126000000001,0.0056588874,0.0063460700000000005,-0.0028826256,7.332,0,0
-0.0006385108000000001,-0.0106799192,0.007604934000000001,0.009064428,-0.003084132,7.333,0,0
0.00023704200000000003,-0.0079593652,0.00789781,0.010290908000000001,-0.0025643272,7.334,0,0
0.0016189616000000001,-0.0030721292000000008,0.008931333999999999,0.012509846000000002,-0.0019765580000000002,7.335,0,0
0.0034029236,0.0016226088000000003,0.008707079999999999,0.012326312,-0.00091217,7.336,0,0
0.0044064156000000005,0.0036581108000000003,0.006773096,0.00991773,0.00013220799999999998,7.337,0,0
0.0041785948,0.0029923019999999996,0.0054194099999999995,0.008410964,0.00036585099999999994,7.338,0,0
0.0032817058000000005,0.000863534,0.003614096,0.005600784,0.000501699,7.339,0,0
0.0019937204,-0.0002988667999999999,0.0007288699999999997,0.0009885099999999997,0.0009711737999999999,7.34,0,0
0.0002697204000000001,-0.0007211847999999999,-0.0019933380000000003,-0.003175082,0.0009173238000000001,7.341,0,0
-0.0010172556,-0.0001561487999999999,-0.003598702,-0.0049391240000000005,0.0006858782000000001,7.342,0,0
-0.0012446784,0.0010255452000000002,-0.0058742560000000004,-0.0076069480000000005,0.0009434114000000001,7.343,0,0
-0.0016452074,0.0021056362,-0.006530146,-0.00762698,0.0008015744000000001,7.344,0,0
-0.0019494260000000002,0.002380159,-0.004871478,-0.0027953260000000003,0.0007001784,7.345,0,0
-0.0019219988,0.002036033,-0.005630255999999999,-0.0030725460000000002,0.0020427044000000004,7.346,0,0
-0.0019080028,0.0025514070000000003,-0.008847808,-0.008957882,0.00397936,7.347,0,0
-0.0020342128000000004,0.0038888490000000006,-0.012977238,-0.015685112,0.006062773800000001,7.348,0,0
-0.0031312888000000006,0.0061394660000000005,-0.01871564,-0.025948200000000005,0.007861306000000002,7.349,0,0
-0.0050777428,0.008225028,-0.02482386,-0.0379701,0.007774504000000001,7.35,0,0
-0.0068987380000000015,0.00719956,-0.02587672,-0.04033606000000001,0.0057006420000000006,7.351,0,0
-0.008206304000000001,0.0022976199999999994,-0.021827484,-0.034590804,0.002487142000000001,7.352,0,0
-0.009595210000000002,-0.0036293140000000007,-0.013397204000000001,-0.022673864000000002,-0.001978698,7.353,0,0
-0.008470516,-0.008681014,-0.00015778399999999936,-0.002639123999999998,-0.00680572,7.354,0,0
-0.004840684000000001,-0.011802534,0.013721316,0.017864596,-0.010237948,7.355,0,0
-0.0010690500000000004,-0.009971623999999998,0.026054316,0.035817176,-0.012574214,7.356,0,0
0.00352168,-0.00445058,0.03623934000000001,0.051061220000000004,-0.01398212,7.357,0,0
0.009020968,-0.0008430179999999997,0.04215202,0.060234220000000005,-0.013443694,7.358,0,0
0.013341106000000002,0.00025591000000000004,0.0415447,0.06005808000000001,-0.010884172000000001,7.359,0,0
0.015403034000000001,0.0010163776,0.03642936,0.05336106,-0.007450424000000001,7.36,0,0
0.01695558,0.0014567416000000003,0.027596748,0.04127277200000001,-0.0033381260000000003,7.361,0,0
0.01628572,0.0011784356000000002,0.014173688,0.022765592000000005,0.001734794,7.362,0,0
0.012176020000000003,0.0014276596,-0.0006494319999999984,0.0015708519999999993,0.006210108000000001,7.363,0,0
0.006816536000000002,0.0028039016,-0.013994392,-0.018523708000000003,0.009310726,7.364,0,0
0.0013143559999999996,0.003196076,-0.025423832,-0.03587480800000001,0.011440318000000001,7.365,0,0
-0.005013824,0.0010416240000000001,-0.03409202000000001,-0.049217540000000004,0.012016884000000002,7.366,0,0
-0.010859864,-0.001271414,-0.03720280000000001,-0.05482234000000001,0.010365648000000002,7.367,0,0
-0.013663984,-0.0005178779999999999,-0.03444370000000001,-0.05221236,0.0075918848,7.368,0,0
-0.01478376,0.00015811400000000005,-0.028051386,-0.043864639999999996,0.0043629608,7.369,0,0
-0.014751220000000002,-0.001363594,-0.017888108,-0.029206420000000007,7.781879999999974e-05,7.37,0,0
-0.012143218,-0.001962324,-0.004306707999999999,-0.00967274,-0.0038810252000000003,7.371,0,0
-0.007817462,-0.001994966,0.008383912,0.00901456,-0.0064127832,7.372,0,0
-0.0032460260000000004,-0.0025196260000000005,0.018604612,0.02488688,-0.008099244,7.373,0,0
0.001736454,-0.0015641720000000006,0.027076998,0.03845958000000001,-0.008898402000000001,7.374,0,0
0.0066058340000000005,0.001623174,0.03094092,0.04541126000000001,-0.008087104000000001,7.375,0,0
0.010102172,0.004770056,0.02922808,0.044287940000000005,-0.0060971712,7.376,0,0
0.012253496000000001,0.006038946000000001,0.024882832,0.03886122,-0.0037875132000000002,7.377,0,0
0.012924778000000001,0.006421106,0.017441492,0.028678184000000006,-0.0007561351999999999,7.378,0,0
0.011490064000000001,0.0056463139999999995,0.005898312000000002,0.012609064000000005,0.0027252268000000006,7.379,0,0
0.0085341982,0.0030186600000000003,-0.005572387999999999,-0.004255396,0.0055688248,7.38,0,0
0.0045199822,0.0007788900000000001,-0.015248068,-0.018891016,0.007885512,7.381,0,0
-0.00013603979999999975,0.00032015319999999996,-0.02404974,-0.032294956,0.009450208000000002,7.382,0,0
-0.0049809178,-0.0007351668000000002,-0.0294553,-0.04130754,0.009320338000000001,7.383,0,0
-0.0090235838,-0.0026365108,-0.0292321,-0.04265304,0.007652064000000002,7.384,0,0
-0.010984658,-0.0027463128,-0.0257096,-0.03863936,0.0054063800000000006,7.385,0,0
-0.011749204,-0.0030691268,-0.019819628000000002,-0.030569436000000002,0.002606296,7.386,0,0
-0.011040958,-0.004138668,-0.009702428,-0.016668076000000004,-0.0010768560000000002,7.387,0,0
-0.0081909464,-0.003812896,0.0016674520000000011,-0.00040953600000000114,-0.00413599,7.388,0,0
-0.0045183103999999995,-0.0034689160000000007,0.010872232,0.013537523999999999,-0.006176884,7.389,0,0
-0.0010246584,-0.003960448,0.018804292,0.025562564000000003,-0.007704704000000001,7.39,0,0
0.0027801436000000003,-0.0034341440000000005,0.02489946,0.0350843,-0.008137606,7.391,0,0
0.006565039599999999,-0.0010638040000000002,0.026091959999999997,0.03840138,-0.0070736919999999995,7.392,0,0
0.008878707999999999,0.0007797940000000001,0.02307988,0.035671760000000004,-0.0052115419999999996,7.393,0,0
0.01024777,0.00197833,0.01873191,0.030280724000000002,-0.003126288,7.394,0,0
0.010497472,0.0035972880000000006,0.011787476000000002,0.020426818,-0.0002473499999999999,7.395,0,0
0.0084943364,0.0043364,0.0020847160000000008,0.005963838000000002,0.002901176,7.396,0,0
0.0052396144,0.0035371820000000003,-0.006718424000000001,-0.007650522,0.0053893660000000005,7.397,0,0
0.0017575684,0.00265013,-0.014053464000000002,-0.019277242,0.006787528,7.398,0,0
-0.0018934295999999998,0.0029040560000000003,-0.020656934000000002,-0.029798166,0.0075104740000000005,7.399,0,0
-0.0054900556,0.0022917948,-0.024138620000000003,-0.03527596000000001,0.007110358000000001,7.4,0,0
-0.00784168,2.4916799999999883e-05,-0.023281660000000003,-0.033966500000000004,0.0049656484,7.401,0,0
-0.00881554,-0.0019432192000000002,-0.019922496000000005,-0.029756880000000006,0.0025661124000000003,7.402,0,0
-0.008922682000000001,-0.0028605292,-0.014085682,-0.021849814,0.00044653439999999976,7.403,0,0
-0.007489748000000001,-0.0027180632000000002,-0.005211581999999999,-0.008838014000000002,-0.0020487296,7.404,0,0
-0.004987456,-0.0021073780000000005,0.0035741780000000003,0.003904826,-0.0042573356,7.405,0,0
-0.002231634,-0.0025819120000000004,0.010892358000000001,0.014334646000000001,-0.005411,7.406,0,0
0.00038205400000000005,-0.003920468000000001,0.017181674,0.023989405999999998,-0.006457458000000001,7.407,0,0
0.003284796,-0.004269218000000001,0.021099140000000002,0.03009552,-0.006865844000000001,7.408,0,0
0.005644082,-0.004175858,0.0212091,0.03004808,-0.0055171364,7.409,0,0
0.006543184000000001,-0.004100726000000001,0.018826268000000004,0.026877460000000002,-0.0036687964,7.41,0,0
0.007448320000000001,-0.0012773840000000005,0.015091526000000001,0.021723230000000003,-0.0019972024,7.411,0,0
0.007771208000000002,0.003007272,0.008270928,0.01218443,0.0004488556000000001,7.412,0,0
0.006431150000000001,0.005917292000000001,3.2488000000000655e-05,0.0008216700000000018,0.0029974156,7.413,0,0
0.0044010781200000005,0.008269304000000002,-0.007045532,-0.008614130000000001,0.004146914,7.414,0,0
0.00228300012,0.009687778000000001,-0.01308712,-0.017319110000000002,0.004836630000000001,7.415,0,0
-0.0007009818800000002,0.007754878000000001,-0.018108178000000003,-0.02514168,0.005260878000000001,7.416,0,0
-0.004353175880000001,0.0028941620000000005,-0.01976758,-0.02793214,0.004839746000000001,7.417,0,0
-0.006888031879999999,-0.001066568,-0.017828978000000002,-0.025982960000000003,0.0037945680000000003,7.418,0,0
-0.00825613,-0.0048657959999999995,-0.01459789,-0.022365028000000002,0.0023157020000000006,7.419,0,0
-0.00842977,-0.007864614,-0.009085578,-0.015136965999999998,0.0005751920000000004,7.42,0,0
-0.0066139779999999995,-0.0063608020000000005,-0.0015684379999999993,-0.004492826,-0.001438038,7.421,0,0
-0.003707442,-0.0017772480000000002,0.004980082000000001,0.005004194,-0.002880654,7.422,0,0
-0.0006978020000000003,0.0017392360000000001,0.00999208,0.012886214,-0.003588468,7.423,0,0
0.0016347080000000003,0.003624482,0.014479592,0.020169962,-0.00356027,7.424,0,0
0.003669148,0.005587014,0.016563420000000002,0.02417976,-0.0025149560000000005,7.425,0,0
0.005236314000000001,0.004773244000000001,0.015354678,0.02343494,-0.000924682,7.426,0,0
0.005874792000000001,0.0006120499999999998,0.01350572,0.02096233,-0.000190526,7.427,0,0
0.006438344,-0.002863308,0.010716768,0.016454115999999998,-0.000121894,7.428,0,0
0.006334366,-0.003912059400000001,0.0049771519999999994,0.007894356,0.0007612979999999999,7.429,0,0
0.004728390000000001,-0.004438541400000001,-0.0012596280000000007,-0.001314284000000001,0.001253156,7.43,0,0
0.0019135080000000002,-0.0041321012,-0.006025666000000001,-0.008909864,0.001216562,7.431,0,0
-0.000558596,-0.0009500012,-0.010845888000000001,-0.016016594000000002,0.0019483019999999998,7.432,0,0
-0.002897714,0.0013781248,-0.014765336,-0.021272980000000004,0.002909806,7.433,0,0
-0.005197632000000001,0.0005524242000000002,-0.015218820000000001,-0.021823300000000004,0.002856628,7.434,0,0
-0.005971580000000001,-0.00013932819999999994,-0.013308738000000002,-0.019528836,0.0020543167999999994,7.435,0,0
-0.006049996000000001,0.0007190776000000001,-0.0105894506,-0.015677313999999998,0.0011581427999999999,7.436,0,0
-0.005914848,0.0010408616000000001,-0.0056523346,-0.008433134000000002,-0.0001321492000000001,7.437,0,0
-0.0049194184,-2.0399999999909206e-08,0.0004498654000000004,-6.947399999999992e-05,-0.0015131872,7.438,0,0
-0.0031243504000000003,-0.0013884264,0.0050122454,0.006465806,-0.0026952332,7.439,0,0
-0.0009966563999999995,-0.003722386,0.0085742834,0.012068822,-0.0036067620000000003,7.44,0,0
0.0017843876000000001,-0.0062743899999999995,0.012074916,0.017044240000000002,-0.004022558000000001,7.441,0,0
0.0043597656,-0.00721552,0.013239260000000001,0.018309540000000003,-0.00387278,7.442,0,0
0.0053695520000000005,-0.00557992,0.011574436,0.016494440000000003,-0.0034306640000000004,7.443,0,0
0.005985322,-0.0010557799999999992,0.009995058000000001,0.014373046,-0.0029822480000000003,7.444,0,0
0.005847702,0.0037107399999999997,0.007286232000000001,0.010093566,-0.0019730622000000003,7.445,0,0
0.004324036999999999,0.006763064000000001,0.0016940520000000001,0.0030016860000000004,-9.541820000000007e-05,7.446,0,0
0.002889561,0.008300926,-0.0032073880000000003,-0.0033388339999999997,0.0017298798000000004,7.447,0,0
0.0015608949999999999,0.007718956000000001,-0.006388324000000001,-0.008171914,0.0031340738,7.448,0,0
-0.000336137,0.005062667999999999,-0.009857566,-0.013668820000000002,0.0043696958,7.449,0,0
-0.002548527,0.0027501572000000005,-0.01176814,-0.01698318,0.004775766000000001,7.45,0,0
-0.004079402,0.0015869918,-0.010423136,-0.016067258,0.004010647,7.451,0,0
-0.0046277440000000005,8.914779999999993e-05,-0.008640528,-0.014155702000000001,0.0028206638,7.452,0,0
-0.004919405999999999,-0.0020119622,-0.006672988,-0.011039812000000001,0.0010140298000000003,7.453,0,0
-0.004241572,-0.0026846102,-0.002223116,-0.004610072,-0.0014148761999999999,7.454,0,0
-0.0024423360000000002,-0.0010595793999999999,0.002073684,0.002048588,-0.0028412322,7.455,0,0
-0.0009939368000000004,0.0008686220000000003,0.0049017520000000005,0.006905946,-0.0036317772,7.456,0,0
7.939519999999997e-05,0.002083822000000001,0.0077368440000000005,0.011528150000000001,-0.0047146720000000005,7.457,0,0
0.0016393792000000001,0.0020527800000000006,0.009773494,0.014816700000000002,-0.004804598,7.458,0,0
0.0027953712,1.7036000000000655e-05,0.009554468,0.014637832000000002,-0.003633656,7.459,0,0
0.0029033272,-0.0025376259999999994,0.007950354000000001,0.012614794000000002,-0.0029203339999999997,7.46,0,0
0.003295302,-0.0029112419999999996,0.006165893,0.010636752000000001,-0.00231132972,7.461,0,0
0.003586804,-0.0024188599999999992,0.0030829790000000004,0.006413202000000001,-0.0003812077200000001,7.462,0,0
0.0025773384,-0.0019482779999999993,-0.0005353909999999999,0.0007706219999999995,0.0014312222800000002,7.463,0,0
0.0011611723999999997,-0.00044580399999999995,-0.0032888350000000004,-0.003075876000000001,0.0024311962800000002,7.464,0,0
0.0002731303999999998,0.000117814,-0.0057815850000000005,-0.006689198,0.0036015382800000002,7.465,0,0
-0.0010501116,-0.0016838856000000002,-0.008080236,-0.011214636,0.004442368,7.466,0,0
-0.0026945236,-0.0032401094,-0.008460698,-0.012932526,0.00376127,7.467,0,0
-0.003097808,-0.0022942366000000005,-0.007104409999999999,-0.011561858000000001,0.0026030276,7.468,0,0
-0.0031928040000000005,-0.0012111666000000003,-0.006120316000000001,-0.010552530000000001,0.0018945102000000004,7.469,0,0
-0.0035202400000000004,-0.0008684036,-0.003836626,-0.007540570000000001,0.0005777522,7.47,0,0
-0.00295693,-0.00042747000000000005,-6.955800000000016e-05,-0.0017388299999999998,-0.0010044858000000001,7.471,0,0
-0.001803154,-0.00020853359999999994,0.0022887999999999997,0.00230171,-0.0015643458,7.472,0,0
-0.0007803040000000003,0.00015149280000000003,0.0039602479999999995,0.0047154020000000005,-0.001651214,7.473,0,0
0.0004216220000000001,0.0006877548000000001,0.006003054000000001,0.0080712,-0.0021608606,7.474,0,0
0.001964816,0.0010764758000000002,0.006897808,0.00974373,-0.0020927406,7.475,0,0
0.002851966,0.0010620838000000002,0.005881188000000001,0.008370478,-0.0013820846000000002,7.476,0,0
0.0029018200000000003,0.0010377390000000002,0.004973278000000001,0.007617558000000001,-0.000971391,7.477,0,0
0.0028938120000000004,0.0014532498,0.0038948000000000003,0.006893112000000002,-0.0005481384,7.478,0,0
0.0025282160000000002,0.0018401538000000005,0.001057582,0.0034189399999999997,0.00035763360000000004,7.479,0,0
0.0016847260000000003,0.0019408978000000003,-0.001640614,-0.00027354599999999995,0.0011312276,7.48,0,0
0.0013118320000000002,0.0031176258,-0.003413014,-0.0028166980000000003,0.0015579716,7.481,0,0
0.0010619096,0.005695244,-0.0053849760000000005,-0.006390038,0.00220161,7.482,0,0
-0.00018209240000000005,0.006650604,-0.007306104,-0.009858632,0.002811656,7.483,0,0
-0.0013827104,0.00490324,-0.00695065,-0.010018338,0.002951436,7.484,0,0
-0.0017556464000000002,0.002429235999999999,-0.005226722,-0.0083929594,0.0026704714,7.485,0,0
-0.0027277884000000002,-0.0006930240000000002,-0.0039298184,-0.006878721600000001,0.0021166948000000004,7.486,0,0
-0.0036705780000000003,-0.005230412,-0.0013226764000000002,-0.003264773600000001,0.0012859818000000001,7.487,0,0
-0.0026572880000000003,-0.00837779,0.0019733656,0.0013088624,0.0002506913999999999,7.488,0,0
-0.00103776,-0.007475268000000001,0.0035284856000000007,0.0037876684000000002,-0.0006474246000000001,7.489,0,0
-6.298200000000006e-05,-0.0050847060000000005,0.003983947600000001,0.005491395800000001,-0.001258422,7.49,0,0
0.000947108,-0.0033361470000000007,0.004854466,0.007640742000000001,-0.0016333214000000002,7.491,0,0
0.001805514,-0.0017234550000000005,0.004591218000000001,0.008012708,-0.0016224186,7.492,0,0
0.0017513366,-0.000495421,0.0032538136000000006,0.006573582,-0.0013059414,7.493,0,0
0.0014666826000000002,0.0008227250000000001,0.0032088436000000005,0.005971376,-0.0009773954,7.494,0,0
0.0015677446000000002,0.002250019,0.0030107316,0.0047543460000000004,-0.0003730274,7.495,0,0
0.0013307560000000004,0.002607382,0.0012577195999999998,0.0014736740000000003,0.0008398186,7.496,0,0
0.0008649640000000002,0.00232348,1.9999599999999808e-05,-0.0008157440000000004,0.0014922828,7.497,0,0
0.0003411274000000002,0.0018514360000000001,-0.0006239880000000001,-0.0023480300000000005,0.001529606,7.498,0,0
-0.00034703859999999997,0.0008504197999999999,-0.002437704,-0.005335352000000001,0.0017237544,7.499,0,0
-0.0010859502,0.00017165579999999978,-0.0038955379999999996,-0.007634908000000001,0.0013187604000000001,7.5,0,0
-0.0012461085999999999,-1.863420000000016e-05,-0.00338007,-0.007281330000000001,0.0004754566,7.501,0,0
-0.0006904433999999999,0.0003099857999999999,-0.0028032613999999997,-0.006656634000000001,-7.454100000000002e-05,7.502,0,0
-0.0002472124,0.0017244878,-0.0023595281999999997,-0.0056576384000000006,-0.00032535960000000004,7.503,0,0
-0.00016836040000000002,0.0025026220000000004,-0.00046034219999999994,-0.0021857504000000003,-0.000523288,7.504,0,0
-6.569119999999998e-05,0.0018152600000000002,0.0014435697999999999,0.0007540956000000002,-0.0006255140000000001,7.505,0,0
-0.00016879219999999998,0.000696938,0.0021298078,0.0020318256,-0.0009654242000000002,7.506,0,0
-0.0006340494000000001,-0.000314272,0.0025917232000000003,0.0034705576,-0.0013915626,7.507,0,0
-0.00020467840000000005,-0.001465492,0.0031053440000000003,0.004880494000000001,-0.0014818794,7.508,0,0
0.0006812636,-0.0026078320000000005,0.0023753292,0.004525202,-0.0013847640000000001,7.509,0,0
0.0009095959999999999,-0.0024320920000000003,0.0012192446000000002,0.0039011560000000007,-0.0011235518000000002,7.51,0,0
0.00141925,0.00041896399999999997,0.0011311446,0.004641192000000001,-0.0009178217999999999,7.511,0,0
0.001965118,0.003609114,0.0005176706000000001,0.003860786,-0.000429091,7.512,0,0
0.001145388,0.0030110499999999995,-0.0009405594,0.001608604,-1.932159999999992e-05,7.513,0,0
-3.1559999999999813e-06,0.0008684379999999992,-0.0017163766000000001,0.0004358639999999998,-8.559339999999992e-05,7.514,0,0
-0.0004897059999999999,-0.000848342,-0.002009918,-0.0006178640000000002,0.0001548932000000001,7.515,0,0
-0.000806638,-0.003651978,-0.0034193080000000002,-0.0033043740000000005,0.0005602726000000001,7.516,0,0
-0.00120801,-0.005958466000000001,-0.00399392,-0.004556684,0.0004906186000000002,7.517,0,0
-0.001268096,-0.004742390000000001,-0.002523348,-0.0034767348000000003,0.00019182640000000006,7.518,0,0
-0.0009476284,-0.0015784380000000004,-0.001999196,-0.0033969207999999997,0.00021941959999999998,7.519,0,0
-0.0009638044000000001,5.725599999999989e-05,-0.0015443152000000002,-0.0030030367999999996,7.4356792e-05,7.52,0,0
-0.0009460917500000001,0.0007880766,0.0005431148000000002,-0.0005598988,-0.00028008060800000005,7.521,0,0
-0.00075022775,0.0008081326,0.0015243296000000003,0.00043431319999999993,-7.607800800000001e-05,7.522,0,0
-0.00045127755000000006,0.00042945660000000014,0.0009504771999999999,-0.00013385200000000011,-0.000198771008,7.523,0,0
-0.00017687515,0.0005272226,0.0016224852,0.0007580079999999999,-0.0007862858080000001,7.524,0,0
9.579625e-05,0.0011393106,0.0021699564,0.0014104319999999999,-0.0007125170000000001,7.525,0,0
-1.2767399999999996e-05,0.001455455,0.0011944436,0.0006115992000000001,-0.00024128700000000002,7.526,0,0
-0.0004663834,0.001220021,0.0014064548,0.0011196952,5.475599999999999e-06,7.527,0,0
-0.00023099959999999998,0.002151311,0.0022787552,0.0023920412,0.0005561708,7.528,0,0
-0.000154516,0.003209181,0.0012808312,0.0016104886000000002,0.0013445208000000001,7.529,0,0
-0.00033685940000000004,0.003861745,0.00010166720000000001,0.0007613986000000001,0.0013654298,7.53,0,0
0.0002510036000000001,0.0037467058000000006,-0.00019128799999999996,0.0008632653999999999,0.0010847872,7.531,0,0
0.0013330056000000002,0.0022216097999999997,-0.0012635620000000002,-8.716599999999963e-06,0.000835438,7.532,0,0
0.0014875556,-0.0003841121999999999,-0.002508536,-0.0018744666000000002,0.0006676780000000001,7.533,0,0
0.0008835660000000001,-0.0037126862000000007,-0.0018882158000000002,-0.002240646,0.0002564092,7.534,0,0
0.0005463320000000001,-0.0056857202,-0.0008243038000000002,-0.0016320894000000001,-0.00048459260000000004,7.535,0,0
-1.2699400000000063e-05,-0.004336202,-0.0009402318000000002,-0.0021831934,-0.0007388100000000001,7.536,0,0
-0.0006767737999999999,0.00018599800000000015,-0.00038345900000000006,-0.0014163574000000002,-0.0011331848,7.537,0,0
-0.0007080838,0.0037237500000000005,0.000521203,0.0007891306000000002,-0.0015862588000000002,7.538,0,0
0.00016643819999999994,0.004961576,-0.0002244752000000001,0.0010550666,-0.0013166472,7.539,0,0
0.000776541,0.004228052,-0.0013344392,0.00041300400000000024,-0.0008810612,7.54,0,0
0.0008726145799999999,-0.0003175419999999992,-0.0008249214000000001,0.001246024,-0.0007933412,7.541,0,0
0.00108308518,-0.005863382,-0.00019611820000000008,0.0008174290000000002,-0.0003593496,7.542,0,0
0.0004386751799999999,-0.008658624,-0.0004383618000000001,-0.0009437030000000001,0.0002182144,7.543,0,0
-0.00041066882,-0.00889377,0.0004506042,0.00012470699999999994,0.00011278242000000002,7.544,0,0
-0.00046272962000000006,-0.007074042000000001,0.0016940562000000003,0.001583383,1.0382420000000026e-05,7.545,0,0
-0.0006421030000000001,-0.002910414000000001,0.0013098544,0.0006147130000000001,9.880642000000003e-05,7.546,0,0
-0.0008177452000000001,0.000829186,0.0009987184,0.0008271246,-0.00036861318,7.547,0,0
-0.0005024472,0.002579416,0.001399694,0.0017838706,-0.00078052658,7.548,0,0
4.549999999999989e-06,0.0035642300000000003,0.0010403576,0.0003770945999999999,-0.0005809494,7.549,0,0
0.00010419239999999998,0.003244746,0.0004333452000000001,-0.0008404974000000001,-0.0004267638,7.55,0,0
0.0002102448,0.0023637379999999998,0.0009449612000000002,5.594599999999921e-06,-0.0003492964,7.551,0,0
0.0005718988,0.002172892,0.0007722880000000001,-0.00023474060000000003,0.00014491359999999997,7.552,0,0
0.00018751880000000007,0.0017192344,-0.000655338,-0.0010992686000000002,0.00015882879999999997,7.553,0,0
-0.00036598840000000006,0.0005713084,-0.0008155615999999999,-0.00046826839999999996,-0.0006700932,7.554,0,0
-0.0002892888,0.0004574804000000001,-0.0006851846,-0.00047158439999999996,-0.0008030168000000001,7.555,0,0
2.9683999999999955e-05,0.0011891724,-0.0014580486000000002,-0.0017500264000000001,-0.0005161682000000001,7.556,0,0
-0.00018206659999999995,0.0023790104,-0.0017057534,-0.0020214898,-0.0005446677999999998,7.557,0,0
-8.856660000000003e-05,0.004115532,-0.0005953014,-0.0010538578000000003,-0.000524475,7.558,0,0
6.418740000000008e-05,0.0045432644,-0.00030194339999999997,-0.0013322180000000002,0.0001637146,7.559,0,0
-0.0007168945999999999,0.0033242063999999994,-0.00048197659999999994,-0.0014327720000000001,0.0006906246,7.56,0,0
-0.0007392885999999999,0.0015175383999999998,0.0008343054000000001,0.000537334,0.0005128366,7.561,0,0
0.00016359799999999993,-0.0006572856000000003,0.0012989754,0.001589004,0.0007379702,7.562,0,0
0.0004635359399999999,-0.0032913176000000004,0.0006801554000000001,0.0008834019999999999,0.0011888856,7.563,0,0
0.0004040879399999999,-0.004072466,0.0012696194000000002,0.0018520520000000003,0.001365714,7.564,0,0
0.0008031685400000002,-0.0033520044000000006,0.002063558,0.0031111940000000003,0.0012265854,7.565,0,0
0.00025024454000000006,-0.0025721172,0.0012144200000000001,0.0020911294000000003,0.0009239374,7.566,0,0
-0.00098486866,-0.0018245460000000002,0.0008332190000000001,0.0018345814000000002,0.0002311894,7.567,0,0
-0.0006443466000000001,-0.00031581800000000015,0.001542819,0.0027097334000000003,-0.0003634438,7.568,0,0
0.0001897434000000001,0.0011740560000000001,0.0008400247999999999,0.0014594134,-0.0005060366000000001,7.569,0,0
0.0004510044000000001,0.0007072464000000002,-0.00014123720000000002,-0.00038818260000000003,-0.0005279608,7.57,0,0
0.0010968704000000001,0.0012973052000000002,0.0001658688,-0.0002609778000000001,-0.0003853612,7.571,0,0
0.0014180754000000001,0.0026013980000000004,-0.00035777820000000007,-0.0012543898000000001,0.00020970680000000004,7.572,0,0
0.0005895474000000001,0.0026897440000000004,-0.0016539382,-0.0030348418,0.00043523940000000005,7.573,0,0
-0.0009213666000000001,0.0018150180000000003,-0.0017786014,-0.0026832144000000003,-0.00012452379999999997,7.574,0,0
-0.0014554382000000002,0.0022337258000000005,-0.0018168694,-0.0021078244,-0.00016740219999999994,7.575,0,0
-0.0011826302000000001,0.0031182438,-0.0029850793999999996,-0.0029708706000000002,0.00023950220000000007,7.576,0,0
-0.001639718,0.0017421004,-0.0029218834000000003,-0.0025037142000000003,0.00028799620000000007,7.577,0,0
-0.0013217950000000002,-8.318159999999987e-05,-0.0013566174,-0.00034435819999999997,0.00029440300000000005,7.578,0,0
-0.0001211634,-0.0022707156000000006,-0.0009519600000000001,0.0003534784,0.0008572212000000001,7.579,0,0
0.00015173640000000003,-0.0049979914,-0.0004197159999999998,0.0009011713999999999,0.000760101,7.58,0,0
-3.0760000000005106e-07,-0.0070695974000000005,0.0013018400000000003,0.0026576554000000002,-3.4555000000000024e-05,7.581,0,0
0.0009087084,-0.007376433200000001,0.002150734,0.003195661,-0.00039656506000000007,7.582,0,0
0.0013160294,-0.006224050600000001,0.0013446076,0.0019281950000000002,-0.00020563326,7.583,0,0
0.0012410508,-0.0026944186000000003,0.0014552396,0.001945293,-0.00018681646000000008,7.584,0,0
0.0022904870000000003,0.0018754414,0.0020221436,0.0028182140000000003,-8.598246000000001e-05,7.585,0,0
0.002438013,0.0042825473999999995,0.0010622220000000003,0.0017228114,0.00075987554,7.586,0,0
0.001484127,0.0058082626,0.0006405186000000001,0.0010445954,0.0007336536,7.587,0,0
0.0011891395999999999,0.006147888000000001,0.000914003,0.0014541474,0.00050619614,7.588,0,0
0.0007198426,0.0034688439999999996,2.3249000000000034e-05,-0.0005495566,0.00092762514,7.589,0,0
-0.0011468174000000002,-0.0003466760000000002,-0.0013138850000000003,-0.0033324986,0.00111604654,7.59,0,0
-0.0023581054000000002,-0.002744734,-0.0012692684000000002,-0.0037848140000000005,0.00085488194,7.591,0,0
-0.0022658454,-0.004108142,-0.0015775350000000001,-0.004346918,0.0008146575399999999,7.592,0,0
-0.002515086,-0.004518546798,-0.002501563,-0.005445,0.0008934786000000001,7.593,0,0
-0.0025024520000000005,-0.0030339327979999994,-0.0015689430000000002,-0.003555468000000001,0.00015728540000000004,7.594,0,0
-0.0015487839999999999,-6.302479799999991e-05,-0.00020506699999999986,-0.000842324,-0.00038615860000000004,7.595,0,0
-0.000686244,0.003244345202,-0.0003285739999999998,-0.0001414140000000002,-0.00033472,7.596,0,0
-0.0003203528000000001,0.0050136652020000005,0.0003928020000000002,0.0014619540000000001,-0.0004929656,7.597,0,0
0.0002795551999999999,0.004356046,0.002208962,0.003816018,-0.0010700372000000003,7.598,0,0
0.0008484871999999999,0.0032843359999999997,0.0019459512,0.004180042000000001,-0.0008868680000000001,7.599,0,0
0.0008984082,0.001756254,0.0012530746,0.003669284,-0.000300894,7.6,0,0
0.0010615102,-0.0009268724000000003,0.0019865566,0.004389158,-0.0005841170000000001,7.601,0,0
0.001852027,-0.0023060384000000004,0.0019080550000000003,0.004209794,-0.0005511070000000001,7.602,0,0
0.0018209010000000002,-0.0019944364,0.0007793570000000002,0.002456964,-1.5793399999999977e-05,7.603,0,0
0.001280659,-0.0015751704,0.0005360596000000001,0.0017047994,-0.000156303,7.604,0,0
0.0013914864,-0.0012667104,0.00019211020000000007,0.0006350094,-0.00041769026000000007,7.605,0,0
0.0005063524,-0.0008769619999999999,-0.0015163358000000002,-0.0020966626,5.1070740000000035e-05,7.606,0,0
-0.0010012296,-0.0006266940000000001,-0.0028990902,-0.0042372826,0.00039819354000000004,7.607,0,0
-0.0013557084,-0.0006788619999999999,-0.0032746342,-0.0047698346,0.00025578974,7.608,0,0
-0.0014052704,-0.000687298,-0.0037129320000000004,-0.00577509,0.00025839593999999995,7.609,0,0
-0.0022143328,-0.0005772139999999999,-0.003969704,-0.006052346,0.00029050159999999996,7.61,0,0
-0.0021576448000000005,-0.0010121544,-0.0021112720000000004,-0.0035398179999999997,-0.00024037200000000004,7.611,0,0
-0.0014408502,-0.0014800164000000002,0.0002739479999999999,-0.0011803439999999998,-0.0008682468000000001,7.612,0,0
-0.0016468574000000002,-0.0008854518,0.0009467244,1.5671999999999887e-05,-0.0011223366,7.613,0,0
-0.0012984644000000002,0.00012026200000000005,0.0022209364000000003,0.002603348,-0.0013026052000000002,7.614,0,0
-0.00012602840000000006,0.000770732,0.0038263164000000007,0.005099258,-0.0013321587200000001,7.615,0,0
0.0007778496000000001,0.0020200884,0.0031622422,0.004785988,-0.0009128731200000001,7.616,0,0
0.0011596870000000002,0.0034759284000000002,0.0022625602,0.00436162,-0.00017651112000000003,7.617,0,0
0.002024041,0.0041251818,0.0029829158,0.004789144,0.00028596748000000007,7.618,0,0
0.002950578,0.0038101974,0.0026427157999999997,0.0030914296000000003,0.00079566448,7.619,0,0
0.0023260884,0.0019796333999999994,0.0013235238,0.0009433096,0.0011113596000000001,7.62,0,0
0.0016120844,-0.0002570386,0.0012379504,0.000608918,0.0009259362,7.621,0,0
0.0013279884000000001,-0.0020663212000000004,0.0004290543999999999,-0.0009533380000000002,0.0013602062000000002,7.622,0,0
0.0005292044,-0.0031291272000000003,-0.0016690356,-0.0037275380000000007,0.0019249456000000002,7.623,0,0
-0.0004935536,-0.0032275906000000004,-0.0028030276000000002,-0.004741921600000001,0.0016279512000000004,7.624,0,0
-0.0004423745999999999,-0.0021281066,-0.0032221156,-0.0050654516,0.0011218572,7.625,0,0
-6.918399999999997e-05,-0.00033728260000000015,-0.00410295,-0.00633721,0.0007014586000000002,7.626,0,0
-0.0003005583999999999,0.000610126,-0.003940504000000001,-0.005921406000000001,-0.00040759940000000005,7.627,0,0
-0.0001645094,0.0011874800000000003,-0.002143696,-0.0029712460000000007,-0.0016019114000000003,7.628,0,0
-0.0003785654,0.0010119320000000001,-0.000797764,-0.0011749360000000001,-0.001855648,7.629,0,0
-0.0008652548,-0.000217002,0.0003576540000000002,0.00023342000000000003,-0.0019188620000000001,7.63,0,0
-0.000849895,-0.0014623599999999998,0.0023577400000000005,0.0032454779999999996,-0.0020771680000000003,7.631,0,0
-0.0003716485999999999,-0.001992658,0.0036432920000000002,0.005119982,-0.0018795200000000004,7.632,0,0
0.00022127240000000014,-0.0017187599999999997,0.0031659540000000003,0.004590556,-0.0013294112000000002,7.633,0,0
0.0008287964000000002,-1.7155999999999725e-05,0.002781881,0.004589928,-0.0011693072000000001,7.634,0,0
0.0015026426000000002,0.0021415600000000003,0.003020647,0.004933526000000001,-0.0009580738,7.635,0,0
0.0013327862000000002,0.0015008520000000002,0.0018447072000000004,0.002897924,6.969419999999999e-05,7.636,0,0
0.0007139174,-3.486199999999987e-05,0.0003734252000000001,0.001319954,0.0008261562,7.637,0,0
0.00046930940000000003,-0.0007795524,0.00022491600000000003,0.0010862544,0.0011088434000000001,7.638,0,0
0.0001856334,-0.0023533244,-0.000839671,-0.0012041056,0.0015754454,7.639,0,0
-0.00010472620000000001,-0.0025605304000000002,-0.0027117290000000004,-0.0040181396,0.0016853548000000003,7.64,0,0
-0.00046842220000000004,0.0009286255999999998,-0.0034054671999999998,-0.0047581636,0.0011277196,7.641,0,0
-0.0008281214,0.0051711316,-0.0040822152,-0.0056426356,0.0008090036000000002,7.642,0,0
-0.0012722118,0.0060487760000000005,-0.004900166,-0.006919772,0.0003944522,7.643,0,0
-0.0018616758,0.003797784,-0.0036254179999999996,-0.004912087999999999,-0.00032620980000000005,7.644,0,0
-0.0020710844,0.0007271279999999996,-0.0016130740000000001,-0.0018380739999999999,-0.0005589884000000001,7.645,0,0
-0.0019728064000000003,-0.0019186,-0.0008532692000000004,-0.00014085400000000015,-0.0002304192000000001,7.646,0,0
-0.0016557884000000002,-0.0031326139999999997,0.0011651748,0.002801964,-0.00039674980000000017,7.647,0,0
-0.000985248,-0.0009031220000000001,0.0036852767999999998,0.006016706,-0.0006085464000000001,7.648,0,0
-7.028000000000069e-06,0.002028394,0.0038671728,0.006810338,-5.995380000000004e-05,7.649,0,0
0.0005504458,0.0009933740000000009,0.0035871828,0.006400616,-8.388520000000006e-05,7.65,0,0
0.0010428458,-0.002030298,0.004515834,0.006704484,-0.0004417988000000001,7.651,0,0
0.0018537258,-0.00442357,0.004119388,0.00547864,-6.175619999999996e-05,7.652,0,0
0.0018611898000000001,-0.006623278,0.001939012,0.0026646280000000005,0.0008467578,7.653,0,0
0.0017505158,-0.005813146,0.00101292,0.0012254420000000002,0.0007665573,7.654,0,0
0.002485128,0.0011346340000000003,0.0003765554000000001,0.00014798600000000018,0.00047056849999999994,7.655,0,0
0.0023196684,0.007926774000000001,-0.0016802746,-0.002739404,0.0005994109,7.656,0,0
0.0008973804,0.009315166,-0.0035070906000000002,-0.0054711180000000005,0.00022575969999999996,7.657,0,0
-0.00030020960000000016,0.006408094000000001,-0.0037715966000000005,-0.006115848,-0.00017979309999999998,7.658,0,0
-0.0014948136000000002,0.0020286259999999995,-0.0040196286,-0.00738958,-0.00043955319999999993,7.659,0,0
-0.0033368716,-0.002545264000000001,-0.004593378,-0.008753041999999999,-0.0004794852,7.66,0,0
-0.004083366000000001,-0.007152240000000001,-0.0031470480000000004,-0.006773818799999999,-0.000958892,7.661,0,0
-0.0031063108000000004,-0.008638062,-0.0011078880000000002,-0.0037903767999999992,-0.0018093088,7.662,0,0
-0.0023226328,-0.006411922400000001,-0.00011631500000000033,-0.0022802736,-0.0023619599999999998,7.663,0,0
-0.0015997708000000002,-0.0033775322,0.001732607,0.0008496904000000001,-0.002406056,7.664,0,0
-0.0007060132000000001,-0.0020819204000000003,0.0037286949999999998,0.0044935644,-0.002190124,7.665,0,0
0.0002653308,-0.000904327,0.003905257,0.0051398132,-0.0015806396,7.666,0,0
0.0007632936000000002,-0.00012875100000000003,0.003755221,0.0057352072,-0.0007259568000000001,7.667,0,0
0.0012171316000000002,-0.00016340440000000005,0.00415649,0.0074415060000000005,-0.00015611080000000002,7.668,0,0
0.0021015416000000004,0.0006814854000000001,0.003108074,0.006680778,0.0008011292000000001,7.669,0,0
0.002395574,0.0012969316,0.0012571220000000003,0.004351564,0.0012932820000000002,7.67,0,0
0.0023974440000000003,0.0015400082000000001,0.0005220940000000002,0.0033109960000000005,0.0008531376000000001,7.671,0,0
0.002118846,0.0016095420000000003,-0.000893046,0.0010298339999999999,0.0011315848000000002,7.672,0,0
0.0015311444,0.0008173538000000001,-0.003259394,-0.003005326,0.0020570528,7.673,0,0
0.0005423884,-0.0008323581999999999,-0.004438376,-0.005435518,0.0023707548,7.674,0,0
-0.00020418160000000004,-0.0012192322,-0.0046958320000000005,-0.006151676,0.002739222,7.675,0,0
-0.0010303436000000002,0.00035695180000000037,-0.005157234,-0.007373704,0.0036525959999999997,7.676,0,0
-0.0020500496,0.002594618000000001,-0.004559826000000001,-0.006888886,0.0035008279999999997,7.677,0,0
-0.0021299802,0.005549020000000001,-0.002297202,-0.00341152,0.001782106,7.678,0,0
-0.0013115462,0.008859872000000001,-0.000581198,-0.000826544,0.0002798079999999999,7.679,0,0
-0.00038118619999999995,0.008877124000000002,0.000669716,0.0011640860000000004,-0.0006107900000000002,7.68,0,0
0.00027009459999999995,0.005067066000000001,0.002875856,0.004608388,-0.001759286,7.681,0,0
0.0012144966,0.0012551520000000003,0.004725018,0.007228296,-0.0021538526,7.682,0,0
0.0016321848000000001,-0.0017473319999999999,0.004473086,0.006786406000000001,-0.0014333940000000002,7.683,0,0
0.0012878894,-0.0039449748,0.00401926,0.006352524000000001,-0.0013173,7.684,0,0
0.0013115894,-0.0033226368,0.0041185020000000004,0.0065307260000000015,-0.001371864,7.685,0,0
0.0015446206,-0.0011855656000000002,0.0023190959999999997,0.004041308,-0.00039705800000000005,7.686,0,0
0.0009853026,-0.0007084855999999998,0.00050562,0.001044184,0.00027831460000000003,7.687,0,0
0.00037670659999999986,-0.0004297315999999999,0.00042508399999999994,-0.00015542200000000022,0.00035339799999999994,7.688,0,0
-0.00010496999999999997,0.0006421652000000001,-0.0006363280000000001,-0.002420282,0.001491732,7.689,0,0
-0.0010527820000000002,0.0011674071999999997,-0.002331576,-0.00580234,0.002614062,7.69,0,0
-0.0016171380000000002,0.0005024419999999998,-0.0027863360000000004,-0.00678316,0.0021771618,7.691,0,0
-0.0013837860000000001,-0.000149672,-0.003513024,-0.007065296,0.0020724898,7.692,0,0
-0.0011492120000000002,-0.0007344420000000001,-0.00471757,-0.008163368,0.0020186014,7.693,0,0
-0.001401282,-0.002674038,-0.0040268386,-0.0067093859999999995,0.0007110414000000001,7.694,0,0
-0.0011052452,-0.0039749382,-0.0020588025999999995,-0.0032601920000000003,-0.0003664006000000001,7.695,0,0
-0.0009836464,-0.0035965057999999997,-0.0008311745999999994,-0.0009430799999999997,-0.0006096884000000001,7.696,0,0
-0.0014066204,-0.0032801818000000003,0.0009343014000000001,0.001768394,-0.0014330704000000002,7.697,0,0
-0.0008727763999999999,-0.0029552438000000005,0.0033103434000000004,0.005469056,-0.002302632,7.698,0,0
0.0006158256,-0.0020489495999999998,0.004358552,0.007009522,-0.0018949820000000001,7.699,0,0
0.0014133148,-0.00210415052,0.004148234000000001,0.007023130000000001,-0.0015503649,7.7,0,0
0.0016632866000000001,-0.0015423189200000002,0.004356124,0.00792103,-0.0015086112999999999,7.701,0,0
0.0024963686000000003,0.00062443308,0.004267890000000001,0.007186110000000001,-0.00104693236,7.702,0,0
0.0024144006,0.0016141070800000002,0.0024510860000000008,0.004407548,-0.0003145635,7.703,0,0
0.001449494,0.00199324288,0.000785106,0.0026682420000000004,1.7906899999999996e-05,7.704,0,0
0.0009169942,0.002965128,-0.0004783640000000001,0.0004863320000000001,0.00016781880000000005,7.705,0,0
0.0006948188,0.0036781320000000006,-0.002683626,-0.0036125060000000006,0.0005635952,7.706,0,0
-5.124720000000005e-05,0.0038116459999999997,-0.004843354,-0.006844600000000001,0.0008227302600000001,7.707,0,0
-0.0008135672000000001,0.003928296,-0.005338512,-0.0077909680000000005,0.0010599354,7.708,0,0
-0.0010082686,0.00294844,-0.005629790000000001,-0.009105430000000001,0.001260897,7.709,0,0
-0.0018927328,0.0003914059999999995,-0.006175754000000001,-0.010027526,0.0013661860000000001,7.71,0,0
-0.0023496479999999998,-0.0022756720000000003,-0.004238156000000001,-0.0071837360000000005,0.0007822760000000002,7.711,0,0
-0.001724136,-0.00419799,-0.0015250880000000002,-0.0033498879999999997,3.6626e-05,7.712,0,0
-0.0014992294000000003,-0.005397448000000001,-0.0002822740000000002,-0.001210598,-0.00035046519999999996,7.713,0,0
-0.0014382806,-0.006012220000000001,0.00197129,0.0025025940000000003,-0.0014680612000000002,7.714,0,0
-0.00063820238,-0.005063804,0.004699566,0.0069392180000000005,-0.0025604252,7.715,0,0
0.00022184962000000003,-0.0027693680000000004,0.005057692000000001,0.007748952,-0.0021763658000000003,7.716,0,0
0.00038456362,-0.000648902,0.004912990000000001,0.007618798,-0.0016724186000000002,7.717,0,0
0.0009431510200000001,0.0009643820000000001,0.0058312139999999995,0.00859047,-0.0018608854000000002,7.718,0,0
0.00206960422,0.003709594,0.005004576,0.007293638000000001,-0.001097925258,7.719,0,0
0.0025653280000000004,0.007499302000000001,0.002891508,0.0046774686,-0.00024395865799999998,7.72,0,0
0.0021352432000000003,0.008486364,0.001909518,0.003456792600000001,-0.000319009058,7.721,0,0
0.0016801622,0.005320854,0.00011594799999999994,0.0011143446000000002,0.00015575374200000003,7.722,0,0
0.0009597882000000001,0.0011779459999999996,-0.002517282,-0.0029170074000000002,0.000995519742,7.723,0,0
-0.00043191780000000003,-0.001457734000000001,-0.00386946,-0.0056725354,0.0012224156000000001,7.724,0,0
-0.0012145418,-0.002730428000000001,-0.004273900000000001,-0.007280644,0.0014413569999999999,7.725,0,0
-0.001610885,-0.0016488220000000012,-0.005286828,-0.009192376,0.001827492,7.726,0,0
-0.002238922,0.0010292599999999997,-0.005570224000000001,-0.009104762,0.001318668,7.727,0,0
-0.002100206,0.0028450019999999993,-0.003559248000000001,-0.005846278,0.00050491,7.728,0,0
-0.0012308120000000004,0.0032269019999999994,-0.00201293,-0.002628216,0.00021088399999999994,7.729,0,0
-0.0008087152000000001,0.0010092779999999997,-0.0009947506000000002,0.00016277800000000036,-0.00037365200000000003,7.73,0,0
-0.00016385980000000003,-0.0019412142000000002,0.0015834514000000002,0.003974382,-0.001202304,7.731,0,0
0.0008912362,-0.0033704102000000004,0.0038759494,0.006803666,-0.0015826660000000002,7.732,0,0
0.0010775942000000001,-0.0037669922,0.0036232494000000004,0.006924276,-0.0014827894000000001,7.733,0,0
0.0008726042,-0.0037915862,0.003472173400000001,0.007010732,-0.0013564858,7.734,0,0
0.0016199214,-0.0039245341999999996,0.004741838000000001,0.007305638,-0.0008966928,7.735,0,0
0.002213572,-0.004563174,0.004170862000000001,0.0052488394,-8.783679999999999e-05,7.736,0,0
0.0013983379999999998,-0.0043786580000000005,0.0026423020000000005,0.0027727714000000004,0.00032906600000000004,7.737,0,0
0.0012258543999999999,-0.0019679220000000004,0.0022698134000000004,0.0013237914,0.00044707079999999993,7.738,0,0
0.0011571432,0.0006475999999999999,0.0005952754000000001,-0.0018177286,0.0007018852,7.739,0,0
-0.00032351280000000014,0.0031409259999999996,-0.0028646486000000002,-0.0058532506,0.0009441082,7.74,0,0
-0.0013463888,0.004536272,-0.0048304466,-0.007314066000000001,0.0010027162000000001,7.741,0,0
-0.0010451668000000002,0.004399214,-0.0056837886,-0.008143448000000001,0.0013661114,7.742,0,0
-0.0012594912,0.00340766,-0.006865852,-0.00948673,0.0016188096000000001,7.743,0,0
-0.002472574,0.00028801000000000044,-0.005663055259999999,-0.007840438,0.0008735476000000001,7.744,0,0
-0.002829066,-0.0025640660000000003,-0.0023697412599999997,-0.0044039479999999995,-0.0002822864,7.745,0,0
-0.0026369723999999997,-0.002683636,-0.0002624312600000004,-0.002486922,-0.0010961664000000001,7.746,0,0
-0.00249232102,-0.0015289140000000001,0.0016417667399999999,0.00032965399999999997,-0.0020065164,7.747,0,0
-0.0015423750199999996,-0.00041098,0.00416902274,0.004505922000000001,-0.002638876,7.748,0,0
0.0005086309799999999,0.001367884,0.00513048,0.006556368000000001,-0.002003408,7.749,0,0
0.00209302898,0.002448688,0.004732330000000001,0.006980706000000001,-0.0010227104000000002,7.75,0,0
0.00256452338,0.001723578,0.0050229179999999995,0.008093160000000002,-0.0008249603999999999,7.751,0,0
0.00331073,0.0011840911999999998,0.005058528,0.007920022,-0.00018778019999999995,7.752,0,0
0.00339639,0.00043316100000000005,0.003401684,0.00525545,0.0010879618,7.753,0,0
0.0025092139999999996,-0.0007646170000000001,0.001816964,0.0031613060000000004,0.0014739878,7.754,0,0
0.0021501800000000002,-0.0013892470000000001,0.0004551299999999999,0.0014482840000000002,0.0016541942,7.755,0,0
0.0015556520000000002,-0.0016597550000000002,-0.0021338,-0.002243042,0.0026827482,7.756,0,0
0.0002755039999999999,-0.0015681774000000004,-0.004317952000000001,-0.005925514,0.0031738039999999997,7.757,0,0
-0.0006252340000000001,-0.0010877092000000001,-0.004871848000000001,-0.007046676,0.0025939279999999997,7.758,0,0
-0.0013890859999999999,7.598480000000003e-05,-0.0052088920000000006,-0.00815183,0.002295454,7.759,0,0
-0.00247925,0.0011457288000000002,-0.005584162,-0.009127357999999999,0.0018515878,7.76,0,0
-0.0028806760000000004,0.0017604074000000002,-0.0041449576000000005,-0.0064208500000000005,0.0007295218,7.761,0,0
-0.002298084,0.0020911646,-0.0017385076,-0.002498632,-0.00024607620000000003,7.762,0,0
-0.0021649738,0.0016611354000000001,-0.00021587759999999972,9.44600000000041e-06,-0.0010302702,7.763,0,0
-0.0018834438000000003,0.0007065153999999999,0.0018311444000000002,0.0033070040000000005,-0.0018283422000000002,7.764,0,0
-0.0006506318000000001,-0.0002080226000000001,0.0042159724,0.006760770000000001,-0.00202823,7.765,0,0
0.00044838020000000003,-0.00041499640000000013,0.005035752000000001,0.007431024000000001,-0.001978704,7.766,0,0
0.0010540082,8.901560000000011e-05,0.004571226,0.007375390000000001,-0.002100144,7.767,0,0
0.001928126,0.0017991168000000002,0.004592364,0.007994616000000001,-0.001991744,7.768,0,0
0.003180922,0.004842706800000001,0.0038017420000000003,0.006693617999999999,-0.00174879,7.769,0,0
0.0033313,0.006603034800000001,0.0017805300000000002,0.004312270000000001,-0.0015060170000000001,7.77,0,0
0.0026301540000000004,0.0038931040000000005,0.0007855586000000001,0.002762772,-0.0010489286,7.771,0,0
0.0018330424000000004,-0.00045024199999999957,-0.0005913874,-0.00010652199999999995,7.253140000000006e-05,7.772,0,0
0.0005991624000000002,-0.002920926,-0.0029438134,-0.004446692,0.0012864974,7.773,0,0
-0.0011999076000000003,-0.005836315400000001,-0.0046601074,-0.007223490000000001,0.0019899674,7.774,0,0
-0.0023830416000000004,-0.0072331326,-0.0054173514,-0.008576488,0.0021606618,7.775,0,0
-0.0026461116000000002,-0.0040932966,-0.006119062000000001,-0.010071179999999999,0.002020679,7.776,0,0
-0.0034293940000000005,-6.94146000000001e-05,-0.005701154,-0.00978143,0.0012931916,7.777,0,0
-0.0031299266000000005,0.0024637954,-0.0037418300000000002,-0.006682244000000001,-1.0184400000000024e-05,7.778,0,0
-0.0018201865999999999,0.0037889748000000003,-0.0018766920000000001,-0.0036176179999999995,-0.0008549664000000001,7.779,0,0
-0.0015211046,0.0025226380000000002,5.0550000000000226e-05,-0.0009809399999999996,-0.0013658978,7.78,0,0
-0.0009045386000000002,0.00015868199999999983,0.002246744,0.002961768,-0.0021368874,7.781,0,0
0.0004887794,-0.0015873660000000002,0.00410315,0.0065622879999999995,-0.0024224800000000003,7.782,0,0
0.000976502,-0.004354772,0.004821290000000001,0.007734082000000001,-0.0017929466000000001,7.783,0,0
0.0008741180000000001,-0.006609238,0.00556522,0.008611384,-0.0016203446000000001,7.784,0,0
0.0019216500000000002,-0.005854212,0.006514272000000001,0.009684178000000002,-0.0015637206,7.785,0,0
0.0028534940000000003,-0.003591048,0.0053275576,0.007904422000000001,-0.0006060006,7.786,0,0
0.0023050528,-0.001860552,0.0031896896000000005,0.004922696000000001,6.242340000000004e-05,7.787,0,0
0.0019888094000000004,-4.217800000000003e-05,0.0020553664000000004,0.0031584820000000007,0.00038300799999999995,7.788,0,0
0.0020006314000000002,0.0017846700000000001,-0.00045583759999999983,-0.00024430200000000006,0.0013438880000000001,7.789,0,0
0.0008823634000000003,0.0023071147999999997,-0.0041503836,-0.0047031320000000005,0.0021578780000000002,7.79,0,0
-0.00047529860000000007,0.0019224302000000002,-0.0057014692,-0.006805712,0.0023378920000000003,7.791,0,0
-0.0007472474000000001,0.0017119122,-0.006050895200000001,-0.008311386,0.002662794,7.792,0,0
-0.0013094620000000002,0.0012007362,-0.007213656000000001,-0.010468352,0.00282901,7.793,0,0
-0.002215936,-0.0003729718,-0.0067815160000000005,-0.009560934,0.0021270224,7.794,0,0
-0.002122298,-0.0013794526,-0.004371556,-0.006249294000000001,0.0012677684,7.795,0,0
-0.002051746,-0.0007592359999999999,-0.0028783354000000002,-0.0041260279999999995,0.0007663614,7.796,0,0
-0.0019976000000000004,-0.00024217999999999983,-0.0011688854,-0.0009924660000000002,-9.401860000000001e-05,7.797,0,0
-0.0014922156,-0.00011970199999999985,0.0017184826000000003,0.003787354,-0.0010745046000000002,7.798,0,0
-0.0005880676,0.001075746,0.0039156906000000005,0.006761652,-0.001472019,7.799,0,0
0.00036101640000000006,0.00264845,0.004739386600000001,0.007359526,-0.0014382910000000002,7.8,0,0
0.0010866344,0.002649348,0.005947758000000001,0.008623484,-0.001480205,7.801,0,0
0.0023537104000000003,0.002223938,0.006452262,0.009046868,-0.001288181,7.802,0,0
0.00335711,0.003095978,0.0047628636,0.006267924,-0.00045649499999999996,7.803,0,0
0.0032320232,0.004624342,0.0032347136000000004,0.0036230160000000006,0.000320453,7.804,0,0
0.0028915632,0.005545980000000001,0.0017142836000000002,0.0019104919999999997,0.0008238358000000001,7.805,0,0
0.0021512472,0.0033858660000000004,-0.0009746404000000001,-0.0014764900000000004,0.0016561248,7.806,0,0
0.0003075012,-0.0007207719999999997,-0.0034169744000000003,-0.0052072360000000005,0.0025661928000000004,7.807,0,0
-0.0010220968,-0.00365557,-0.004430446,-0.00637123,0.0026793668,7.808,0,0
-0.001557806,-0.005921592000000001,-0.0056056380000000005,-0.00774202,0.0028982768000000003,7.809,0,0
-0.0027573980000000003,-0.007643775400000001,-0.006260080000000001,-0.009299894,0.0031087200000000006,7.81,0,0
-0.003491816,-0.0057277174,-0.004522812000000001,-0.00741810798,0.0018773000000000001,7.811,0,0
-0.003018658,-0.0014440574,-0.002743014,-0.00432803398,0.0003286060000000003,7.812,0,0
-0.00294558,-7.49654e-05,-0.0015465151800000002,-0.0023425319799999997,-0.0006913319999999999,7.813,0,0
-0.0024470982,-0.00014878540000000005,0.0012083348200000001,0.0009802940200000004,-0.00207658,7.814,0,0
-0.0008061022,8.583979999999991e-05,0.0041675088200000005,0.005392358020000001,-0.003261646,7.815,0,0
0.0004719298000000001,-2.4764000000000063e-05,0.0048322548199999996,0.007352708000000001,-0.003170956,7.816,0,0
0.0010146334000000002,0.00016502400000000005,0.00514663082,0.007963888,-0.002907394,7.817,0,0
0.0016029074000000001,0.0014258320000000001,0.006098058,0.009181374,-0.0028863960000000003,7.818,0,0
0.0026152796,0.004428798,0.004909854400000001,0.008613230000000001,-0.0022892449999999996,7.819,0,0
0.0028511995999999998,0.0081384662,0.0025819204000000003,0.00574599,-0.0015536270000000001,7.82,0,0
0.0030934056000000002,0.011943792000000002,0.0015697277000000002,0.0035562360000000012,-0.0012646938,7.821,0,0
0.003472956,0.011699054000000002,0.00018775570000000008,0.0013059760000000004,-0.0007122108000000001,7.822,0,0
0.002405214,0.0056476700000000005,-0.0022568603,-0.0029395140000000003,0.00014328320000000003,7.823,0,0
0.00030822599999999977,-0.0006794899999999992,-0.0038294967000000006,-0.006430878000000001,0.0002194316,7.824,0,0
-0.001271182,-0.004457345799999999,-0.0045731847,-0.007901574000000001,0.0004096008,7.825,0,0
-0.0018949443999999999,-0.0066518418000000015,-0.005871948000000001,-0.010018002000000002,0.0011242436,7.826,0,0
-0.0029264364000000003,-0.007501033800000001,-0.006192254000000001,-0.010815198000000002,0.0010391546,7.827,0,0
-0.0033098144,-0.0053370738,-0.004265189999999999,-0.007676454000000001,0.000513351,7.828,0,0
-0.0028712224,-0.0031198738,-0.0019999680000000004,-0.004285236000000001,0.00041182820000000006,7.829,0,0
-0.0029040144000000005,-0.0036835039999999998,-0.0001246060000000003,-0.00171326,-9.701899999999995e-05,7.83,0,0
-0.0025775900000000003,-0.00503217,0.0026460980000000004,0.0028173399999999998,-0.0012961650000000002,7.831,0,0
-0.0014307700000000005,-0.0037491999999999994,0.005265894,0.006887202,-0.001720429,7.832,0,0
6.895999999999942e-06,-0.0002615079999999998,0.0057549920000000004,0.007497978000000001,-0.0015621964000000002,7.833,0,0
0.0011729560000000002,0.0004709740000000002,0.005860472,0.008256900000000001,-0.0019070970000000002,7.834,0,0
0.0022821460000000005,-0.00028408000000000003,0.0063961420000000005,0.009684,-0.0020824890000000003,7.835,0,0
0.00264265,-0.0011114520000000002,0.005140654,0.007953664000000001,-0.001203697,7.836,0,0
0.0020870946000000005,-0.0028030980000000004,0.00301097,0.005063246,-0.00027189100000000023,7.837,0,0
0.0017662598000000001,-0.003516158,0.0019269544,0.0034494819999999994,0.00012879399999999978,7.838,0,0
0.0015522958000000002,-0.0020329280000000003,-0.00016481159999999972,-2.3000000000000017e-05,0.001330642,7.839,0,0
0.0010494558000000002,0.0003891840000000001,-0.0033116656000000003,-0.0050152,0.002455,7.84,0,0
9.716580000000008e-05,0.0017371740000000002,-0.0049908356,-0.007698424000000001,0.002337947,7.841,0,0
-0.00039037279999999994,0.0030048740000000003,-0.005992061600000001,-0.009302766,0.002266447,7.842,0,0
-0.00057789,0.003494692,-0.007385186,-0.011189842,0.002757555,7.843,0,0
-0.0014445620000000001,0.0025151920000000003,-0.007205984,-0.010420024,0.002457791,7.844,0,0
-0.0012180880000000002,0.0025283400000000004,-0.004926730000000001,-0.007037350000000001,0.001541105,7.845,0,0
-0.00035115000000000005,0.0036079580000000005,-0.002972236,-0.004059282000000001,0.001100268,7.846,0,0
-0.000347532,0.004071082,-0.0010824860000000006,-0.0005864899999999996,0.00011938999999999993,7.847,0,0
0.00013921400000000005,0.0037603144,0.002200052,0.00423051,-0.0014738700000000002,7.848,0,0
0.0011351080000000001,0.0030207484000000003,0.004861586,0.007509894,-0.002265526,7.849,0,0
0.0010512632,0.0006322744000000003,0.0053334160000000005,0.008593908,-0.002160772,7.85,0,0
0.0010683572,-0.0020743576,0.0059068079999999995,0.01000844,-0.002056588,7.851,0,0
0.0023962332000000003,-0.0030202035999999997,0.0065702140000000004,0.010501912,-0.0016216196000000001,7.852,0,0
0.0026416912000000008,-0.00346404,0.004909513,0.0079993962,-0.0007239076000000001,7.853,0,0
0.0020539538,-0.003454576,0.0028689170000000003,0.0055068442,-0.000207926,7.854,0,0
0.0021478466000000003,-0.0025895619999999997,0.0018412460000000002,0.0035311522000000006,0.00019432820000000008,7.855,0,0
0.0014783678000000002,-0.0019316046000000002,-0.00044605799999999983,-0.0008592678,0.0010743942,7.856,0,0
-0.0001786781999999999,-0.0015195526,-0.0031771860000000002,-0.0054998718,0.0016825878,7.857,0,0
-0.0015780782000000002,-0.0006516146,-0.004141417,-0.00752048,0.0017334618,7.858,0,0
-0.0022295048,0.00039167539999999994,-0.005042889,-0.00921964,0.0021330642,7.859,0,0
-0.0029490968000000003,0.0010622894,-0.0064470280000000005,-0.010703384000000002,0.0023008160000000002,7.86,0,0
-0.0035849180000000003,0.0011711922000000002,-0.005537676,-0.008724890000000003,0.001395578,7.861,0,0
-0.0030495742,0.0011628682,-0.003068154,-0.005092541999999999,0.0004187740000000001,7.862,0,0
-0.0023966062,0.0013919842000000003,-0.0017284140000000002,-0.0023893160000000007,-0.00018699999999999994,7.863,0,0
-0.0020943042,0.0012020162000000003,0.0002976799999999998,0.0013073279999999997,-0.0012920140000000002,7.864,0,0
-0.0010319241999999997,0.0006425674000000002,0.00333955,0.005263856,-0.0021590840000000004,7.865,0,0
0.0005565178,0.0005173406000000001,0.004620424000000001,0.006773362,-0.0019207240000000002,7.866,0,0
0.001332838,0.00024152260000000005,0.004796470000000001,0.007107218,-0.001638629,7.867,0,0
0.0020231000000000003,-8.688940000000002e-05,0.005747054000000001,0.008009284,-0.001767125,7.868,0,0
0.003205164,0.00021025759999999998,0.0056980320000000004,0.007141302,-0.0011963018000000001,7.869,0,0
0.003035938,0.00024838119999999995,0.0038435739999999998,0.004479484000000001,-0.00029685979999999996,7.87,0,0
0.0021054434000000004,-0.00025216620000000013,0.002493626,0.0026718080000000003,-4.4293799999999965e-05,7.871,0,0
0.0016253810000000002,-0.0006610802,0.000632678,0.00020590600000000006,0.0006737452000000002,7.872,0,0
0.0008512010000000002,-0.0006999442000000002,-0.002628358,-0.003997542,0.0020888132,7.873,0,0
-0.00038158900000000005,-0.0009135300000000002,-0.0049438320000000004,-0.007399112,0.0028263719999999997,7.874,0,0
-0.0015934669999999999,-0.0012221808,-0.005697082000000001,-0.008804804000000001,0.002840098,7.875,0,0
-0.0022695144,-0.0007195868,-0.006591918,-0.010196572000000001,0.0029301,7.876,0,0
-0.002754444,3.3501200000000085e-05,-0.006878234,-0.010612228000000001,0.0024418238000000004,7.877,0,0
-0.002829064,0.0009245852000000001,-0.0046650020000000006,-0.007552838000000001,0.0011017418,7.878,0,0
-0.0025601734000000004,0.002792302,-0.002134404,-0.0038177439999999997,4.698380000000017e-05,7.879,0,0
-0.0024906134,0.00326440714,-0.0004403899999999997,-0.0011485460000000005,-0.0005621442,7.88,0,0
-0.0018211942000000002,0.0010974251399999998,0.0023877160000000002,0.0031847380000000003,-0.0013495782000000002,7.881,0,0
-0.0009737722,-0.0007588708600000003,0.005110216000000001,0.007312852000000001,-0.002016842,7.882,0,0
-0.0004095977999999999,-0.0025185328600000004,0.005185196,0.008083444,-0.00186765,7.883,0,0
0.0001438756,-0.005156712860000001,0.004728092000000001,0.00861133,-0.0017396500000000001,7.884,0,0
0.0013819936,-0.004838134,0.005052174,0.009638604000000002,-0.001819342,7.885,0,0
0.0024741284,-0.0008052520000000002,0.0032941112,0.0074373320000000005,-0.0009135460000000001,7.886,0,0
0.0025059284,0.00289644,0.0003846092,0.004223080000000001,0.0001257260000000001,7.887,0,0
0.0025728068,0.005630174,-0.0006514008000000002,0.002735288,0.0004780776,7.888,0,0
0.0025247488,0.008866244,-0.0019443548000000002,-0.0005079440000000002,0.0010032796000000001,7.889,0,0
0.0018419304,0.009515268,-0.0044255488,-0.004964026,0.001482377,7.89,0,0
-4.5701600000000084e-05,0.004387386000000001,-0.005510928000000001,-0.007307294000000001,0.0008361128000000002,7.891,0,0
-0.0015112976,-0.0019025139999999992,-0.005296692,-0.008270278,0.00013979279999999997,7.892,0,0
-0.0020203224,-0.005193863999999999,-0.005439618,-0.009360082000000002,0.0001024412,7.893,0,0
-0.0027301464000000003,-0.007548884,-0.004421316,-0.00806917,-0.0004650108,7.894,0,0
-0.0022120959999999998,-0.007307743999999999,-0.001000842,-0.0037808580000000007,-0.0009551122,7.895,0,0
-0.000794808,-0.0025808460000000004,0.0022317380000000005,-0.00011321399999999994,-0.0007140714000000001,7.896,0,0
0.00017435718,0.0002210840000000003,0.00479697,0.0029555400000000004,-0.0008244534,7.897,0,0
0.0010016151800000001,-0.001112666,0.007337184,0.0067520340000000005,-0.0016102334000000001,7.898,0,0
0.0020130411800000003,-0.002455928,0.008489386000000002,0.009313954000000001,-0.0016945654,7.899,0,0
0.00229999918,-0.004048294000000001,0.00733543,0.009004302,-0.0012345499999999998,7.9,0,0
0.00210792718,-0.005468838,0.005911838,0.008704846000000002,-0.0012621412599999999,7.901,0,0
0.0028493,-0.0035621240000000003,0.005274328,0.008448204,-0.0010837842600000002,7.902,0,0
0.003074292,-0.0001430200000000002,0.003229946,0.005574772,-0.00017930025999999999,7.903,0,0
0.002456946,0.0017027400000000001,0.00100396,0.0024267760000000003,0.00073762974,7.904,0,0
0.001855565,0.0024190460000000002,-0.00012419599999999997,0.00035718200000000005,0.0007978039400000001,7.905,0,0
0.000579225,0.0023702628000000004,-0.00250759,-0.0034025260000000003,0.0009906426000000001,7.906,0,0
-0.001118623,0.0023272588000000003,-0.005480164000000001,-0.007585182,0.0016383136000000002,7.907,0,0
-0.0024003870000000004,0.0024280148000000003,-0.006278082,-0.00901741,0.0016520456000000002,7.908,0,0
-0.002806729,0.0012445788000000001,-0.00684261,-0.010113202000000002,0.0014413396,7.909,0,0
-0.0029572796000000004,-2.1035199999999937e-05,-0.008022370000000001,-0.011269182,0.0014875460000000002,7.91,0,0
-0.0024631096000000004,0.000449614,-0.006387526,-0.008692841,0.0007805660000000001,7.911,0,0
-0.0012842876,0.001882734,-0.0034696859999999996,-0.004258961,-0.0004027280000000001,7.912,0,0
-0.0006581778000000001,0.003864974,-0.0020166999999999997,-0.0014357750000000005,-0.0009169180000000001,7.913,0,0
-0.0009181438,0.005568132,0.00041158000000000026,0.002393875,-0.0016991340000000001,7.914,0,0
-0.0007543388000000001,0.00610065,0.0036052639999999995,0.006885849,-0.0022580580000000003,7.915,0,0
0.00019629320000000007,0.006610968,0.004359007999999999,0.008438856000000002,-0.00147491,7.916,0,0
0.00032126120000000005,0.007578368,0.0039168860000000005,0.008388874000000001,-0.0006118802000000002,7.917,0,0
0.0005456994000000001,0.0058885280000000005,0.004258022,0.008798318000000001,-0.00030402560000000007,7.918,0,0
0.0014583134,0.0005497280000000011,0.00389775,0.007677210000000001,0.0004708604,7.919,0,0
0.0018200760000000001,-0.004342062,0.0024818110000000004,0.004573600000000001,0.0012178364,7.92,0,0
0.001753608,-0.0077097599999999995,0.0015411469999999999,0.0022306960000000003,0.0010845706000000002,7.921,0,0
0.0017366060000000001,-0.011738430000000001,0.00048809899999999987,-0.00031842200000000006,0.0013703568000000001,7.922,0,0
0.001011466,-0.014126108000000002,-0.0018568090000000003,-0.004396332,0.0021113302000000003,7.923,0,0
-0.00027275400000000005,-0.010672188000000003,-0.004410019,-0.007647626000000001,0.0022829802000000005,7.924,0,0
-0.0014247980000000001,-0.005278082200000002,-0.00566674,-0.00888573,0.0018656517000000003,7.925,0,0
-0.002524294,-0.0026960168000000006,-0.006106682,-0.010068888000000002,0.0013543195,7.926,0,0
-0.00332453,-0.0019075286000000003,-0.006227542,-0.010320814000000001,0.0006825655000000002,7.927,0,0
-0.003182754,-0.0007743524,-0.003957050000000001,-0.007068764,-0.0005061505000000001,7.928,0,0
-0.0018019280000000004,0.0012637896,-0.000784866,-0.0032192120000000004,-0.0014551525,7.929,0,0
-0.000409216,0.0033045438,0.000781986,-0.0004498919999999999,-0.0015834256,7.93,0,0
0.000818516,0.0054355584,0.002719186,0.0033534800000000003,-0.0015053116,7.931,0,0
0.002044508,0.0064457661999999995,0.0044922320000000005,0.006791368000000001,-0.0018677856,7.932,0,0
0.0024566174,0.005021591999999999,0.004171402000000001,0.0070261920000000005,-0.0019228516,7.933,0,0
0.0017963774000000002,0.002070298,0.003491772,0.006275834,-0.0015773248,7.934,0,0
0.0008985574,-0.00039841000000000035,0.003810982,0.00630177,-0.0016612372000000002,7.935,0,0
0.00035097424000000006,-0.0010134060000000003,0.0025726032000000006,0.004062138,-0.0014878820000000003,7.936,0,0
-0.00067665576,8.474000000000003e-05,0.00021920320000000013,0.0007793040000000002,-0.0007283996,7.937,0,0
-0.00142488516,0.0025770420000000007,-0.0013334188000000001,-0.0011617899999999998,0.00014268640000000008,7.938,0,0
-0.0016238791600000002,0.004845668000000001,-0.004070178800000001,-0.004365844000000001,0.0012210276,7.939,0,0
-0.0023601531600000005,0.0052843966000000004,-0.0080184588,-0.008990686000000001,0.0024104356,7.94,0,0
-0.003699114,0.0037669282000000006,-0.010626166000000001,-0.012156372,0.0030024424000000003,7.941,0,0
-0.004349562,0.0014152922000000001,-0.011406462000000001,-0.01395204,0.0031930200000000004,7.942,0,0
-0.004013432,-6.392380000000002e-05,-0.011923564000000001,-0.015238820000000002,0.003124988,7.943,0,0
-0.004271974,-0.000576943,-0.010566144,-0.013299986,0.001774658,7.944,0,0
-0.0036375780000000003,-0.0005721158,-0.006020074,-0.007392786,-5.9655999999999945e-05,7.945,0,0
-0.0017400640000000004,-0.0012777994000000002,-0.0008501340000000002,-0.0007846059999999998,-0.001333088,7.946,0,0
-0.0005379800000000002,-0.0023564074,0.004386266000000001,0.006019574,-0.002612464,7.947,0,0
0.0009675560000000001,-0.0023677054,0.010370250000000001,0.013915194,-0.003937148,7.948,0,0
0.0035294600000000003,-0.0018793582,0.014887009999999999,0.019502480000000003,-0.004305594,7.949,0,0
0.005221104000000001,-0.0017977980000000002,0.01619694,0.020604039999999997,-0.0035269672,7.95,0,0
0.005425538000000001,-0.0020869980000000005,0.01603718,0.02045128,-0.0027875625999999997,7.951,0,0
0.005698006000000001,-0.0011753640000000001,0.014581328000000001,0.01897758,-0.0018436243200000003,7.952,0,0
0.0052690340000000006,-5.7020000000000074e-05,0.010193117199999999,0.013903364000000001,4.6383680000000095e-05,7.953,0,0
0.003809274000000001,-0.0004427038000000002,0.0054874372000000005,0.008528404000000002,0.0017223856800000002,7.954,0,0
0.0028109660000000002,-0.0008621758000000002,0.0022530292,0.004637194,0.00226061088,7.955,0,0
0.0023581680000000003,0.0003859002,-0.0017237508,-0.0004694460000000001,0.00302698028,7.956,0,0
0.0016684660000000002,0.0020115322,-0.0052056028,-0.005371326000000001,0.003782978,7.957,0,0
0.0007701775999999999,0.0021029622,-0.005647760000000001,-0.006999312000000001,0.0029971902000000003,7.958,0,0
0.0006559816000000001,0.0015377100000000003,-0.004816256200000001,-0.007326272000000002,0.0019911982000000005,7.959,0,0
0.0006752516000000001,0.00010617000000000048,-0.0038972282000000005,-0.007530444000000001,0.0013471290000000005,7.96,0,0
0.0006844916000000002,-0.001437648,-0.0003178662000000005,-0.003985464000000001,-6.581300000000007e-05,7.961,0,0
0.0017569976000000001,-0.001772978,0.0044078178,0.001521396,-0.001547247,7.962,0,0
0.002736048,-0.0026161439999999995,0.007288245799999999,0.004906858,-0.0020618392000000003,7.963,0,0
0.0029063940000000005,-0.0034730559999999995,0.009993802,0.008670978000000001,-0.0028276892,7.964,0,0
0.003297,-0.00254021,0.012017202000000001,0.012442380000000001,-0.0034856240000000005,7.965,0,0
0.003648502,-0.0008016100000000001,0.011024566,0.012144686000000002,-0.0029176392,7.966,0,0
0.003270354,0.0012112860000000002,0.0080059704,0.009134974000000002,-0.0021552442000000002,7.967,0,0
0.00288682,0.0037052660000000005,0.0051599004,0.006575982000000001,-0.0017043230000000004,7.968,0,0
0.0024710640000000002,0.004524460000000001,0.0014741144,0.002055804,-0.000562527,7.969,0,0
0.0009871580000000001,0.003690090000000001,-0.0034401056,-0.004380196,0.0011097770000000002,7.97,0,0
-0.000852278,0.0032457600000000003,-0.007197011600000001,-0.008908642000000001,0.0018066402,7.971,0,0
-0.00209667,0.0012305620000000001,-0.009733216,-0.012457490000000002,0.0024036212,7.972,0,0
-0.0032192,-0.0021790800000000008,-0.012687106000000002,-0.016930218,0.003519904,7.973,0,0
-0.00439853,-0.0029316640000000005,-0.0146464,-0.01975802,0.003895848,7.974,0,0
-0.00468903,-0.0018504720000000001,-0.01341825,-0.019000620000000003,0.003244688,7.975,0,0
-0.004129752,-0.0020002884000000004,-0.011383059999999999,-0.017363416,0.002714634,7.976,0,0
-0.0043427859999999995,-0.0028022024000000003,-0.008955030000000001,-0.014667756,0.0018831966000000004,7.977,0,0
-0.004332152,-0.0025748284,-0.003988448,-0.008438902,-0.0001255634,7.978,0,0
-0.0028237559999999997,-0.0015558504000000003,0.0011170119999999997,-0.0016393020000000005,-0.0016405734,7.979,0,0
-0.0014414520000000002,-0.0007957403999999998,0.004053708,0.0029646580000000002,-0.0023168074,7.98,0,0
-0.0002948419999999999,-0.0005332619999999998,0.0070007179999999995,0.007884334,-0.0033090294,7.981,0,0
0.001443958,-0.00040842859999999995,0.009412308000000001,0.012018434000000001,-0.0038465260000000003,7.982,0,0
0.00247232,0.00039838160000000005,0.008427114000000001,0.011992811999999999,-0.0029351326000000002,7.983,0,0
0.0020571241999999997,0.0006831177200000001,0.0059979,0.010145332000000002,-0.0018626666,7.984,0,0
0.0014163382,0.00012740771999999995,0.003807736,0.008578148,-0.0009687726000000001,7.985,0,0
0.0006031642,0.00058663172,0.00023522599999999984,0.004484568,0.0009746334000000001,7.986,0,0
-0.0011565638000000003,0.0010741663200000001,-0.004088754,-0.0011101719999999998,0.0025449134000000003,7.987,0,0
-0.0028024418000000004,0.0013520361200000002,-0.006632982000000001,-0.004558484,0.00287818,7.988,0,0
-0.003485488,0.0027346880000000003,-0.008854467999999999,-0.007995404000000001,0.0035943700000000004,7.989,0,0
-0.004318726,0.004395526,-0.011335989999999999,-0.012110260000000001,0.004196138,7.99,0,0
-0.00540606,0.0045322240000000005,-0.01190076,-0.013934240000000002,0.0037006760000000004,7.991,0,0
-0.005517810000000001,0.00332834,-0.010870272,-0.013033252000000002,0.0030814720000000005,7.992,0,0
-0.004973816000000001,0.0013433580000000002,-0.00958862,-0.011690432,0.0026090406,7.993,0,0
-0.004699586,-0.001976184,-0.006916453800000001,-0.008695686,0.0010987426,7.994,0,0
-0.0033899350000000006,-0.004848844000000001,-0.0017498137999999996,-0.0026683060000000005,-0.0009493333999999999,7.995,0,0
-0.000909967,-0.005127952000000002,0.0029087662,0.002949794,-0.0022986974,7.996,0,0
0.000800513,-0.0032101020000000007,0.0060984382,0.006993866,-0.0031344574,7.997,0,0
0.0025302910000000005,-4.357999999999988e-05,0.009503526200000001,0.011269466,-0.003604978,7.998,0,0
0.004497029,0.003825202,0.011518400000000002,0.01411722,-0.0034052180000000007,7.999,0,0
0.004939026,0.006396846,0.010103018000000002,0.012966693999999999,-0.002370522,8.0,0,0
0.004222254,0.006372284000000001,0.007592319200000001,0.010990672,-0.0013270242,8.001,0,0
0.003976266,0.005812380000000001,0.0054081486,0.00895578,-0.0005469718000000001,8.002,0,0
0.003135921,0.004756904,0.0014074145999999998,0.003677028,0.00040675220000000004,8.003,0,0
0.0008969190000000001,0.0013001619999999997,-0.0031705854,-0.0020064519999999997,0.0013244102000000003,8.004,0,0
-0.000706377,-0.002268804,-0.0058090874,-0.005270366,0.0019272102,8.005,0,0
-0.001884635,-0.0038007180000000002,-0.008231188600000001,-0.009377604,0.0023453944,8.006,0,0
-0.003077893,-0.004907504,-0.011010978000000001,-0.013784452,0.0025161360000000004,8.007,0,0
-0.004070582,-0.005885906000000001,-0.011065366000000002,-0.01402141,0.0018160220000000005,8.008,0,0
-0.004545716,-0.004876364000000001,-0.0085499136,-0.01205736,0.0009085120000000002,8.009,0,0
-0.0042889320000000005,-0.0033665480000000005,-0.0063110696,-0.010414739999999999,9.634200000000007e-05,8.01,0,0
-0.0041993180000000005,-0.003701368,-0.0025944736,-0.0056317680000000005,-0.001537026,8.011,0,0
-0.0032746148000000006,-0.004117854000000001,0.0029038064000000002,0.0015363519999999997,-0.003085814,8.012,0,0
-0.0012554728,-0.003692124,0.0062433224,0.006439282000000001,-0.0034310020000000003,8.013,0,0
0.0008977132000000001,-0.0033507067999999996,0.00832271,0.010218732000000001,-0.0037394660000000003,8.014,0,0
0.0027146512000000003,-0.0024799139999999997,0.01065865,0.014498772,-0.004311368000000001,8.015,0,0
0.0042117452,-0.000460598,0.011011766000000001,0.016116520000000002,-0.0034753910000000004,8.016,0,0
0.00449566,0.0013640320000000003,0.008856738000000001,0.01419197,-0.0021089502,8.017,0,0
0.0035361100000000003,0.0023163080000000004,0.0067991914,0.012110916,-0.0011881022000000004,8.018,0,0
0.0031951600000000007,0.0029185848000000004,0.0044038474,0.009039962000000002,0.00038222979999999983,8.019,0,0
0.002406226,0.0035634200000000003,0.00023082739999999977,0.0032491839999999996,0.0020090678,8.02,0,0
0.001167636,0.003956102,-0.0033254486,-0.0019739760000000005,0.0028321148,8.021,0,0
0.0005684422,0.00297173814,-0.0055818366,-0.005545126000000001,0.0034792800000000004,8.022,0,0
-0.00017550579999999996,0.0008890821399999999,-0.007942924,-0.009569832000000002,0.0040641,8.023,0,0
-0.0013726578,-0.0003348818599999998,-0.00929598,-0.012246698,0.0036226280000000006,8.024,0,0
-0.0022120578,-0.0005889518600000001,-0.007940254400000001,-0.011421292000000001,0.0023944300000000003,8.025,0,0
-0.0020329598,-0.00034492186,-0.005918444400000001,-0.009803986,0.0014404400000000003,8.026,0,0
-0.0018028152000000004,0.0011743660000000003,-0.0036714084000000003,-0.00780608,0.000382274,8.027,0,0
-0.0012366550000000003,0.0018184680000000002,0.0008064276,-0.0027157460000000002,-0.001334986,8.028,0,0
-0.00018070300000000005,0.00041724799999999984,0.004973587600000001,0.0030979140000000002,-0.002586296,8.029,0,0
0.000735913,-0.0009066640000000002,0.006824270000000001,0.006460546,-0.002801112,8.03,0,0
0.0017244530000000001,-0.0022613666,0.008963824,0.01010098,-0.003222574,8.031,0,0
0.0027031942,-0.0040967946,0.010843504,0.013706454,-0.0035188280000000003,8.032,0,0
0.0033559360000000003,-0.0040827746,0.009700408000000002,0.013435560000000001,-0.0026931634000000007,8.033,0,0
0.003316788,-0.0021350506,0.007419362,0.011126602000000003,-0.0018643542000000002,8.034,0,0
0.0032528839999999997,-0.0005983045999999998,0.0057002732000000006,0.009371142000000002,-0.0011332208000000002,8.035,0,0
0.0027332100000000002,0.0008927240000000001,0.0018923572,0.005301672,0.00041244519999999996,8.036,0,0
0.0011026380000000002,0.002588064,-0.0029477628,-0.0006414680000000001,0.0018680772000000002,8.037,0,0
-0.0002777079999999999,0.003443654,-0.0056608808,-0.004689228,0.0025868046,8.038,0,0
-0.0007865013999999999,0.004203332000000001,-0.0078799448,-0.008161050000000001,0.0033117274,8.039,0,0
-0.0018150774000000001,0.004408008,-0.010052744,-0.01197145,0.0038278060000000004,8.04,0,0
-0.0028928774000000004,0.0024179680000000004,-0.0103897,-0.013511040000000002,0.0033094720000000004,8.041,0,0
-0.0022556900000000003,0.000439066,-0.008814794,-0.011824376000000001,0.0023273998000000002,8.042,0,0
-0.0014910080000000003,0.0009332560000000001,-0.0071389874,-0.009976348,0.0014334018000000002,8.043,0,0
-0.001435091,0.0013641500000000002,-0.004663257400000001,-0.007121858,0.00017932179999999997,8.044,0,0
-0.00047235500000000004,0.0004538096,0.00023870260000000013,-0.0008972379999999999,-0.0013426242000000002,8.045,0,0
0.000950153,-0.0006409844000000002,0.0050126146000000005,0.004716882,-0.0022150842,8.046,0,0
0.0013110416000000002,-0.0024476344000000003,0.0082170086,0.008239498,-0.00252576,8.047,0,0
0.0019351176000000003,-0.004518560400000001,0.011082980000000001,0.01243109,-0.003374012,8.048,0,0
0.0029685420000000002,-0.006082890400000001,0.01266092,0.01518866,-0.0036458320000000003,8.049,0,0
0.0033878700000000003,-0.006130386000000001,0.010907,0.013140296000000001,-0.0024676760000000002,8.05,0,0
0.0031915420000000003,-0.004252766000000001,0.0081205372,0.010225502000000001,-0.0014976,8.051,0,0
0.002812857,-0.001174816,0.005745333800000001,0.0077445572,-0.0005603799999999996,8.052,0,0
0.0022595044,0.0019699,0.0014905138,0.002095877199999999,0.00131284,8.053,0,0
0.0006458163999999999,0.0049264140000000005,-0.0027828462,-0.0036073428000000006,0.002694116,8.054,0,0
-0.0005039276000000001,0.006207314000000001,-0.005410956200000001,-0.0066636388,0.0028715360000000005,8.055,0,0
-0.0014841036,0.004098842000000001,-0.0082679934,-0.010503424800000001,0.0032321960000000005,8.056,0,0
-0.0029387726000000003,0.0026807340000000015,-0.01049039,-0.0141036,0.003305496,8.057,0,0
-0.003746118,0.004457838000000001,-0.009686325999999999,-0.013615330000000002,0.002388924,8.058,0,0
-0.003467706,0.004591438000000001,-0.007289424,-0.011178372,0.0014246240000000002,8.059,0,0
-0.0030860194,0.0010651699999999998,-0.0051987,-0.009165693999999999,0.0006027300000000003,8.06,0,0
-0.0026229903999999997,-0.0005540980000000007,-0.001240428,-0.004158670000000001,-0.000903638,8.061,0,0
-0.0006319124,-0.001122102000000001,0.0036889920000000003,0.00300679,-0.0023546960000000003,8.062,0,0
0.0014966356,-0.004108024000000001,0.006487988,0.007432280000000001,-0.00279057,8.063,0,0
0.0026610816000000002,-0.005324434000000001,0.008552446000000002,0.010805322000000001,-0.0032271680000000003,8.064,0,0
0.0033039610000000002,-0.0018394980000000002,0.010634672,0.014492944,-0.00325903,8.065,0,0
0.00404821,0.0016182256,0.010172120000000002,0.014962652,-0.002502268,8.066,0,0
0.0036594260000000003,0.0008911676000000002,0.0073087099999999995,0.011739802,-0.0016408732000000002,8.067,0,0
0.002144114834,-0.0014965983999999997,0.004963206,0.008498996,-0.0009464911999999999,8.068,0,0
0.001326347834,-0.0036232663999999997,0.00200634,0.0044081699999999994,5.8828800000000056e-05,8.069,0,0
0.0004818698340000001,-0.00461916424,-0.00259778,-0.00193835,0.0011430588,8.07,0,0
-0.00027089896600000004,-0.0031873698400000008,-0.00571176,-0.006808462,0.0018930188,8.071,0,0
-0.000310189566,0.0006576021600000002,-0.007081642,-0.009481912,0.00261565,8.072,0,0
-0.0007881844000000001,0.00337106616,-0.009379238000000002,-0.012445386000000001,0.00345291,8.073,0,0
-0.0019536054,0.0030768061600000003,-0.010921172,-0.014413120000000001,0.00395095,8.074,0,0
-0.0028823154,0.0013124259999999998,-0.009019428,-0.012671508000000001,0.003235542,8.075,0,0
-0.0034188646000000004,-0.0007764140000000002,-0.0062934340000000005,-0.009979668,0.002592441,8.076,0,0
-0.0038652140000000005,-0.0018784500000000003,-0.0038814119999999994,-0.007585626800000002,0.0020449150000000004,8.077,0,0
-0.0037999,-0.0018695100000000002,0.0007698680000000004,-0.0020759268000000003,0.0003857950000000001,8.078,0,0
-0.0023946960000000004,-0.0005777505999999997,0.005320048000000001,0.0041112731999999996,-0.001072493,8.079,0,0
-0.0007578960000000001,0.0008888374000000001,0.007083862000000001,0.007440001200000001,-0.0015053130000000003,8.08,0,0
0.00032900200000000006,0.0010309974000000002,0.008876588000000001,0.0106520012,-0.002424312,8.081,0,0
0.001460116,-0.00039689460000000005,0.010083636,0.01352538,-0.0033406720000000003,8.082,0,0
0.0024444120000000004,-0.0014684032000000001,0.008674362000000001,0.012484773999999999,-0.0027964408000000006,8.083,0,0
0.0025675480000000002,-0.0007555906000000002,0.006306055600000001,0.009630298,-0.0021082348000000003,8.084,0,0
0.002402986,0.0006090513999999999,0.0038923556000000003,0.007660028,-0.0016044422000000003,8.085,0,0
0.002622732,0.0024861774,0.00019822160000000037,0.003462906,-0.00013446820000000007,8.086,0,0
0.0016001372,0.0036593234,-0.0040607764000000005,-0.0024404940000000005,0.0015333358,8.087,0,0
-7.893280000000015e-05,0.003178812,-0.006465312400000001,-0.006011548,0.0020305026,8.088,0,0
-0.0007191488,0.0025281,-0.008122836000000001,-0.008882832,0.0022397276,8.089,0,0
-0.0013369028000000001,0.0016066004,-0.009886714000000001,-0.012243942,0.0026275350000000003,8.09,0,0
-0.0025563148000000003,-0.0004476476000000001,-0.010031960000000001,-0.01336648,0.0020236878,8.091,0,0
-0.002892272,-0.0016740256000000002,-0.007933327200000001,-0.011393031999999999,0.0006526598,8.092,0,0
-0.0022328620000000004,-0.0014322896000000002,-0.0061183256,-0.008924913199999999,-0.00023385820000000005,8.093,0,0
-0.002089286,-0.0022576956000000003,-0.0038863216000000005,-0.0058634212,-0.0012759192,8.094,0,0
-0.001482474,-0.00315487,0.0009624384000000001,-0.00018204120000000004,-0.0027378692,8.095,0,0
-1.7020000000000186e-06,-0.0023419764,0.005046698400000001,0.005317998799999999,-0.003366982,8.096,0,0
0.00117297,-0.0017182970000000001,0.0071473356,0.0088858708,-0.003487406,8.097,0,0
0.002193846,-0.0016944070000000002,0.009445504,0.012568572,-0.003504862,8.098,0,0
0.0032275280000000003,-0.0006059990000000001,0.010652290000000002,0.01478594,-0.002947908,8.099,0,0
0.003592554,0.0017582950000000002,0.008661476000000001,0.013186718,-0.0017331458000000002,8.1,0,0
0.0028638632,0.0025303514000000003,0.006227077400000001,0.01062628,-0.0005170578000000001,8.101,0,0
0.0023688555999999998,0.001877826,0.003957321400000002,0.008314657999999999,0.0005671201999999999,8.102,0,0
0.0019712258,0.0024951419999999997,0.0001575394000000003,0.003089316,0.0015998882000000001,8.103,0,0
0.0008499198,0.003289816,-0.0032873486,-0.0015563640000000002,0.0025121042,8.104,0,0
-5.573820000000012e-05,0.002894428,-0.0044508686,-0.0038703520000000005,0.002570304,8.105,0,0
