bandpass 1,bandpass 2,bandpass 3,bandpass 4,bandpass 5,time,onset,mark
-0.0006905488,0.00019877420000000005,0.004376202000000001,0.0012516914000000002,0.001424308,4.236,0,0
-0.0006372646,0.0012640782000000001,0.004665896000000001,0.0013196666000000004,0.00170984,4.237,0,0
-0.00011559860000000006,0.0026841102,0.004499785000000001,0.0013995944000000002,0.001929622,4.238,0,0
0.0010413394,0.0038167862000000005,0.0020218090000000003,0.0003907304000000001,0.0008395099999999998,4.239,0,0
0.0019031062,0.0033684140000000006,-5.7051000000000074e-05,-0.0007208916000000001,-0.0003735120000000002,4.24,0,0
0.0021261421999999998,0.0017394320000000004,-0.001485879,-0.001465305,-0.0011601320000000004,4.241,0,0
0.0021258374,7.904000000000027e-05,-0.0021925350000000002,-0.0022463342,-0.0018493740000000002,4.242,0,0
0.0013652574,-0.0016705860000000004,-0.0027827200000000002,-0.003156072,-0.0023686160000000005,4.243,0,0
-0.00045282660000000013,-0.0031356600000000006,-0.003973474,-0.003076546,-0.0020090446000000004,4.244,0,0
-0.0018591866000000003,-0.0033097560000000005,-0.005678477999999999,-0.002167098,-0.0011934408000000003,4.245,0,0
-0.0022729466000000003,-0.0022052348,-0.0068011059999999995,-0.001219472,-0.0007122610000000002,4.246,0,0
-0.0025769820000000002,-0.0011530428000000002,-0.006824782,-2.28759999999998e-05,-3.866700000000004e-05,4.247,0,0
-0.00265583,0.0005136252,-0.0061401118000000005,0.001342626,0.000679879,4.248,0,0
-0.0022005700000000002,0.004155015200000001,-0.0048741558,0.002179136,0.0011815836000000001,4.249,0,0
-0.002063812,0.0078442912,-0.0032108158000000004,0.00251144,0.0015400758000000002,4.25,0,0
-0.0018725480000000001,0.008970822000000002,-0.0007996757999999999,0.002657248,0.0019440280000000002,4.251,0,0
-0.0016609844,0.006095738,0.0018758421999999996,0.002459778,0.0020348980000000003,4.252,0,0
-0.0018561124,0.0006163640000000003,0.003843018,0.0019772640000000003,0.0014617592,4.253,0,0
-0.0013270412,-0.004799196,0.005445584000000001,0.0013411786000000004,0.0007017292,4.254,0,0
-0.0002355352000000001,-0.008831606,0.00675942,0.00045729859999999996,-0.00011585680000000007,4.255,0,0
0.0003891787999999999,-0.009498748000000001,0.0065333760000000005,-0.0006278074000000001,-0.0011389168,4.256,0,0
0.0006381671999999999,-0.005936264,0.004421709,-0.0015656214000000002,-0.0022134048000000003,4.257,0,0
0.0009943941999999999,-0.001805104,0.0019985050000000002,-0.0023051674000000005,-0.0024346100000000002,4.258,0,0
0.001012069,-0.0003508840000000001,0.000431251,-0.0029773440000000003,-0.0024182199999999996,4.259,0,0
0.0005064323999999999,-9.834000000000004e-05,-0.0005314552,-0.0030832620000000002,-0.0025167460000000003,4.26,0,0
-4.809000000000005e-05,-0.0006869100000000001,-0.0011908944000000002,-0.0024050104,-0.0019214268000000002,4.261,0,0
-0.000493082,-0.002229532,-0.0020045634,-0.0012677444000000003,-0.0010483768,4.262,0,0
-0.0009047090000000001,-0.00258863,-0.0032295574000000002,3.960359999999991e-05,-0.00042596679999999995,4.263,0,0
-0.0011535450000000002,-0.001931726,-0.0045466014,0.0015462096,0.00037487719999999993,4.264,0,0
-0.0010221384000000003,-0.0011794314,-0.006234933200000001,0.0029959756,0.0012014372000000001,4.265,0,0
-0.0006620298000000002,-6.113339999999992e-05,-0.007993030000000002,0.003987448,0.00145704,4.266,0,0
0.0001724742,0.0015543606000000003,-0.007688344,0.004454652,0.0016317740000000001,4.267,0,0
0.0013206262000000002,0.0027883746000000004,-0.004014663999999999,0.004459868,0.0015314854,4.268,0,0
0.0021013222,0.0029843704,0.0014291140000000004,0.004135438,0.0009730182000000001,4.269,0,0
0.0024997262000000004,0.0031060078000000003,0.0073427760000000005,0.00302685354,0.0004955274,4.27,0,0
0.00288976,0.0029389698000000003,0.012038502,0.0014143435400000002,0.0004982754000000001,4.271,0,0
0.002904516,0.0020186278,0.012975994,-0.00019565446000000008,0.0003700474,4.272,0,0
0.0024700126000000004,0.0012852312,0.010439163999999999,-0.00164060646,-0.000276436,4.273,0,0
0.00196662762,0.0010391054000000002,0.0058177820000000005,-0.00305753646,-0.0009264328000000001,4.274,0,0
0.00137647764,0.0006331734,0.000545654,-0.004115698,-0.0014276560000000002,4.275,0,0
0.0007560054400000001,0.0001591662000000001,-0.003121546,-0.003998532,-0.002073414,4.276,0,0
-2.033556e-05,7.119220000000002e-05,-0.004175496000000001,-0.003761014,-0.00286995,4.277,0,0
-0.00062366216,0.00039156680000000004,-0.0037355372,-0.0035375880000000004,-0.002817268,4.278,0,0
-0.00135036718,0.0014493048,-0.0027489302,-0.0026079462,-0.002020252,4.279,0,0
-0.0023462352,0.0028253048,-0.0018500862,-0.0017360394,-0.0013234196,4.28,0,0
-0.002774639,0.004190940000000001,-0.0020923922000000003,-0.0011178878,-0.0005164456,4.281,0,0
-0.0026297219999999997,0.004720304,-0.0029562782,-0.00015644980000000008,0.0008937104,4.282,0,0
-0.0024465339999999998,0.0032297260000000005,-0.003161493,0.0007763742,0.0021341004,4.283,0,0
-0.0019339370000000002,2.0734000000000117e-05,-0.002310258,0.0013994604,0.0030034924,4.284,0,0
-0.00046293700000000007,-0.00406134,-0.0006516500000000001,0.0018558636,0.00403658,4.285,0,0
0.0007061309999999999,-0.007419384,0.001744338,0.0017379297999999999,0.00460464,4.286,0,0
0.0011010409999999999,-0.008792986000000001,0.004261166,0.0014699618,0.0044451460000000005,4.287,0,0
0.001860721,-0.00774826512,0.004758585200000001,0.0008359077999999999,0.004080482,4.288,0,0
0.0024407359999999998,-0.00496848112,0.0030783092000000005,-0.0006032902000000001,0.0034864360000000003,4.289,0,0
0.001996519,-0.00140023512,0.0004979311999999999,-0.0018359602000000003,0.0023403464000000002,4.29,0,0
0.0011980650000000001,0.00210410688,-0.0023448488,-0.002949732,0.0010660864,4.291,0,0
0.0005782509999999999,0.00428806488,-0.004475088800000001,-0.004025474,-4.9387599999999954e-05,4.292,0,0
-0.000326767,0.005236148,-0.004862678,-0.004483554000000001,-0.0012773776000000003,4.293,0,0
-0.001354001,0.005132864000000001,-0.0037439740000000006,-0.004088236,-0.0023862636000000002,4.294,0,0
-0.00195235,0.0034116100000000002,-0.0021989080000000003,-0.0027469400000000002,-0.0025994480000000003,4.295,0,0
-0.002524796,0.0004918919999999999,-9.703000000000001e-05,-0.001051376,-0.0023040706,4.296,0,0
-0.0030467280000000003,-0.0019739880000000003,0.002075738,0.000560266,-0.0016585474000000002,4.297,0,0
-0.0027791348000000002,-0.0036216980000000005,0.003462646,0.002065538,-0.0005099093999999999,4.298,0,0
-0.0019932676,-0.004447494000000001,0.004331126,0.003110264,0.0005587386,4.299,0,0
-0.0011675336000000003,-0.003250446600000001,0.005081002,0.0035278360000000003,0.0012102106,4.3,0,0
9.324840000000001e-05,-0.0009172926000000005,0.005374586000000001,0.003869832,0.0014243352,4.301,0,0
0.0017644464000000002,0.0007932774,0.004462532,0.0037100300000000004,0.001580328,4.302,0,0
0.0030134912,0.0016912574000000002,0.0026576320000000005,0.0032454420000000003,0.0015363300000000002,4.303,0,0
0.004105188,0.0017081854,0.0003926740000000002,0.0029115720000000003,0.0010952980000000002,4.304,0,0
0.005204528,0.0009570339999999997,-0.00202455,0.0019626864,0.0004470100000000001,4.305,0,0
0.0054563,8.39399999999999e-05,-0.004172482,0.0008138484000000002,-0.00042363799999999994,4.306,0,0
0.0050310680000000005,-0.0004987040000000001,-0.005887702,-0.00017454960000000004,-0.0017122360000000002,4.307,0,0
0.0040954908000000005,-0.0008183396,-0.006545189999999999,-0.0008606496000000001,-0.0027832160000000002,4.308,0,0
0.0023958828000000005,-0.00041695619999999997,-0.006283805999999999,-0.0011801478000000002,-0.00335672,4.309,0,0
8.269280000000037e-05,-0.00014424619999999996,-0.005133191999999999,-0.0012074784000000002,-0.00402041,4.31,0,0
-0.0017123652,-0.0010553182,-0.0030358179999999996,-0.0009428614000000002,-0.004123852000000001,4.311,0,0
-0.0026707832,-0.0017203002,-0.0006157020000000001,-0.00030005339999999997,-0.0036918460000000004,4.312,0,0
-0.003739498,-0.0015689088000000002,0.002013196,0.0005777546000000001,-0.0032570560000000004,4.313,0,0
-0.004218908,-0.0009329042000000002,0.004222296,0.0011994448,-0.0022031380000000003,4.314,0,0
-0.00349951,0.0002317717999999997,0.005054768000000001,0.0019231489999999999,-0.0006595940000000002,4.315,0,0
-0.0025866774,0.0019834538,0.004038451,0.002500762,0.000570552,4.316,0,0
-0.0022951508,0.0038125297999999997,0.0015696290000000003,0.002670926,0.001451298,4.317,0,0
-0.0015634062,0.00480247,-0.0019555649999999994,0.002598776,0.002199382,4.318,0,0
-0.0002032101999999999,0.005092858,-0.0057197789999999995,0.00209103822,0.0023983060000000002,4.319,0,0
0.0005586797999999999,0.0049249919999999996,-0.008326599,0.0013449940199999999,0.0019470514000000003,4.32,0,0
0.0008318131999999999,0.0037695278,-0.008680172,0.00047919402000000004,0.0015696864000000002,4.321,0,0
0.0010676082,0.0022550758000000003,-0.006384936000000001,-0.0006155079800000002,0.0012270122000000003,4.322,0,0
0.0013596332000000001,0.0018987758,-0.0023713320000000003,-0.0018703819800000002,0.0001704221999999999,4.323,0,0
0.0008544616,0.0013261958000000001,0.0024039479999999995,-0.0027890822,-0.0011329758,4.324,0,0
-8.074399999999978e-06,0.0003978858,0.006129238,-0.003427914,-0.0020394992000000002,4.325,0,0
-0.00039591379999999996,0.000262742,0.007132648,-0.004033654000000001,-0.0028345862,4.326,0,0
-0.0010472194,-0.001036142,0.006586094,-0.003929448,-0.003783944,4.327,0,0
-0.0018224630000000003,-0.003309884,0.005101786,-0.0030919560000000003,-0.003887792,4.328,0,0
-0.0025465394,-0.004583286000000001,0.0027993398000000004,-0.0020607744,-0.0028954564,4.329,0,0
-0.0035467194,-0.0061763600000000005,0.0020641578,-0.0007411224000000002,-0.0020195546,4.33,0,0
-0.00421883,-0.007797976000000001,0.0034479558,0.0009435936000000003,-0.0006956585999999998,4.331,0,0
-0.004005888,-0.006480982400000001,0.0048727138,0.0025636256,0.0014229194000000005,4.332,0,0
-0.0034784318,-0.0038660124000000004,0.0058268838,0.0035957476000000005,0.0031321714000000006,4.333,0,0
-0.0022468518,-0.0017171224000000007,0.0069209219999999995,0.004071282000000001,0.003999553800000001,4.334,0,0
-0.00020103579999999996,0.0011193936,0.007135343999999999,0.003932678,0.004732606,4.335,0,0
0.0015941202000000002,0.0028766422,0.005679762,0.0030362672000000005,0.004770334000000001,4.336,0,0
0.0031678462000000003,0.0017895666,0.003776496,0.0018340459999999998,0.00404903,4.337,0,0
0.004595486,-7.601739999999997e-05,0.0014338379999999996,0.000575712,0.00347684,4.338,0,0
0.005660456,-0.0007801614,-0.002132874,-0.000738776,0.0025799944,4.339,0,0
0.006314348,-0.00048481939999999975,-0.006155314,-0.00195864,0.0013654804,4.34,0,0
0.006174668,0.0009776760000000002,-0.010648196,-0.0028454752,-3.9207600000000075e-05,4.341,0,0
0.005100357000000001,0.0036034660000000005,-0.015304092000000002,-0.00339243,-0.0012858116000000002,4.342,0,0
0.003074597,0.005399888,-0.018138120000000004,-0.0037840840000000005,-0.0023248576000000003,4.343,0,0
0.00023390900000000003,0.004934546,-0.018453480000000005,-0.003522232,-0.0031151440000000002,4.344,0,0
-0.0024644690000000004,0.002897594,-0.016485532000000004,-0.0025935208,-0.0030259020000000005,4.345,0,0
-0.004553275000000001,0.00028664200000000015,-0.011214782,-0.0015467778000000003,-0.0025956000000000004,4.346,0,0
-0.005864938000000001,-0.002323302,-0.0028965219999999995,-0.0001574018000000002,-0.0020615420000000004,4.347,0,0
-0.005741236,-0.004186238,0.005688418000000001,0.0012766202,-0.0009304680000000003,4.348,0,0
-0.004518987800000001,-0.004525924000000001,0.012358598,0.0019965822,0.00018261799999999995,4.349,0,0
-0.0033602914,-0.003929947,0.01612219,0.002166841,0.0007580040000000001,4.35,0,0
-0.0018044034000000001,-0.003483045,0.016890332,0.0021451518000000004,0.0015512959999999998,4.351,0,0
0.0008309146,-0.0028015350000000004,0.014785725999999999,0.0015286592,0.002433434,4.352,0,0
0.0030652326000000004,-0.0014383270000000003,0.0108264,0.0008214995999999999,0.002544016,4.353,0,0
0.0044469244,-0.0006088470000000003,0.006891699,0.000439895,0.0022739514,4.354,0,0
0.006045086000000001,-0.00024246000000000022,0.0035234530000000006,-0.00018815900000000003,0.0018938770000000004,4.355,0,0
0.006912886000000001,0.0008436960000000001,0.0005366650000000002,-0.0009850288,0.0008897490000000003,4.356,0,0
0.005932100000000001,0.0017377579999999998,-0.002359645,-0.0019074582,-0.0005754229999999999,4.357,0,0
0.0044172986,0.001697738,-0.004554081,-0.0027614166000000002,-0.001688397,4.358,0,0
0.0030145244000000003,0.00181096,-0.005558858,-0.0033555580000000002,-0.0025481424,4.359,0,0
0.0009465224,0.002578838,-0.005912132,-0.0033864220000000005,-0.00337731,4.36,0,0
-0.0013067836000000002,0.003830424,-0.005154314000000001,-0.0027678822000000002,-0.0028547366000000003,4.361,0,0
-0.0029232976000000003,0.005221638000000001,-0.0032656500000000006,-0.0021487109999999998,-0.0013318086,4.362,0,0
-0.0044638802,0.0050565160000000005,-0.0010301540000000001,-0.0014604098,-0.0005226506000000001,4.363,0,0
-0.0056948780000000004,0.0021793900000000002,0.001030802,-0.00023413379999999992,0.0005547834,4.364,0,0
-0.006146090000000001,-0.0012053419999999999,0.0024994120000000003,0.0010220822000000002,0.0021869254000000003,4.365,0,0
-0.005788334000000001,-0.003112142,0.003524990000000001,0.0019634524,0.00280554,4.366,0,0
-0.004375882,-0.004478048,0.004376024000000001,0.0029292092000000004,0.0025806980000000006,4.367,0,0
-0.0024201360000000002,-0.004093768,0.004512246,0.0036185320000000003,0.002611126,4.368,0,0
-0.00016171199999999984,-0.0009379859999999998,0.0035035862000000004,0.00346049,0.0027210740000000004,4.369,0,0
0.001933412,0.00226082,0.0026813778000000003,0.0026732095999999995,0.0020207076000000003,4.37,0,0
0.003561374,0.0033357680000000002,0.0013645898000000005,0.0018768874000000002,0.0012156068000000002,4.371,0,0
0.004526004,0.0021877660000000003,-0.0019654522,0.0009870970000000001,0.0006946714,4.372,0,0
0.004468868,0.0011450540000000004,-0.0055077482,-3.250499999999995e-05,-0.0004045386,4.373,0,0
0.003144938,0.00213645,-0.0082031464,-0.000609643,-0.0017291706000000001,4.374,0,0
0.0014527260000000005,0.003771864,-0.010654148000000002,-0.0008683786,-0.0023201482000000002,4.375,0,0
-3.5004000000000046e-05,0.004678932,-0.01237188,-0.0013989384,-0.0027816454000000003,4.376,0,0
-0.0021383640000000002,0.005298654400000001,-0.011228576,-0.0015135640000000002,-0.00338048,4.377,0,0
-0.0036600560000000005,0.0037401964000000013,-0.007369742,-0.0012162364000000002,-0.0029990540000000006,4.378,0,0
-0.004624754,-0.0012383015999999996,-0.002848406,-0.001121093,-0.0023060704,4.379,0,0
-0.005719934000000001,-0.0053340056,0.0015964760000000003,-0.000637149,-0.0016349908,4.38,0,0
-0.005788678000000001,-0.006772057400000001,0.0053656120000000005,0.000263971,-0.00047977680000000006,4.381,0,0
-0.005007930000000001,-0.0070542118,0.007792502000000001,0.000959709,0.0006506972,4.382,0,0
-0.003903791000000001,-0.006368249800000001,0.008729548,0.0013126214,0.0014701232000000001,4.383,0,0
-0.001842199,-0.0042752078,0.009296252000000001,0.0018264660000000001,0.0022522836,4.384,0,0
0.001053043,-0.0022428338000000003,0.009146260000000002,0.002105286,0.0027932240000000004,4.385,0,0
0.003093381,-0.0020481460000000003,0.008107566,0.0018091024,0.002532564,4.386,0,0
0.004249775000000001,-0.00203636,0.0067715831999999995,0.0013559792,0.0019071516000000001,4.387,0,0
0.005444658000000001,-0.001140074,0.004371437200000001,0.000926461,0.0012007375999999999,4.388,0,0
0.006057680000000001,-0.00028155800000000006,0.0012983492,0.0003320259999999999,0.00031320960000000015,4.389,0,0
0.005856938000000001,-0.000696588,-0.0017072868000000002,-0.00046625800000000005,-0.0008755303999999999,4.39,0,0
0.005172304000000001,-0.0011387906000000002,-0.0043630288,-0.0012249904000000002,-0.0019595664,4.391,0,0
0.0042813512,-0.0005084366000000001,-0.006837939999999999,-0.0021397072,-0.0021911720000000003,4.392,0,0
0.0027567152000000004,0.00014438940000000003,-0.008659014000000001,-0.0027584009999999997,-0.002354578,4.393,0,0
0.0008558932,0.0002780822,-0.009460532,-0.0028554580000000004,-0.00266841,4.394,0,0
-0.0005599328000000001,0.00040909820000000006,-0.009010762,-0.0025780555599999996,-0.0020760242,4.395,0,0
-0.0015695208,0.0011687388000000002,-0.006710923200000001,-0.00179490196,-0.0011487734000000002,4.396,0,0
-0.002078258,0.0018828668,-0.0025997232,-0.0004773999600000001,-0.0006321636,4.397,0,0
-0.002082598,0.0028756508000000003,0.0024528168000000003,0.00108640804,0.00045670239999999994,4.398,0,0
-0.0016989960000000001,0.003854942,0.006518542800000001,0.00215426604,0.0019742184,4.399,0,0
-0.001572788,0.0037134932,0.008898910800000001,0.0026523716000000004,0.0026656126,4.4,0,0
-0.00156889,0.0032520212,0.00925427,0.0031385400000000004,0.0028926238,4.401,0,0
-0.001008336,0.0027951991999999996,0.007292610000000001,0.003399718,0.0031682819999999997,4.402,0,0
-0.0006313340000000001,0.0014720582,0.0038997,0.0028368720000000003,0.002801816,4.403,0,0
-0.00039220920000000004,0.0002546162,0.0008728640000000003,0.0020702075199999998,0.0017096186000000002,4.404,0,0
0.0005589948,0.000278799,-0.0011292140000000001,0.0013387875200000002,0.0008674555999999999,4.405,0,0
0.0011675548,0.00042599500000000003,-0.0025121460000000003,0.00019598951999999997,0.00040133820000000007,4.406,0,0
0.0009794446,0.00023660899999999998,-0.003348780000000001,-0.00088767648,-0.00044166179999999993,4.407,0,0
0.0008812466,-8.928000000000001e-05,-0.003860680000000001,-0.0016444424800000001,-0.0015567278,4.408,0,0
0.0005893938,-0.001035284,-0.004020434000000001,-0.002426656,-0.0022060364,4.409,0,0
-0.0003900042000000001,-0.00192847,-0.0036261748000000005,-0.002930912,-0.0027152314,4.41,0,0
-0.0015240382,-0.0021142372,-0.0023815188000000003,-0.0027831360000000003,-0.003105926,4.411,0,0
-0.002157872,-0.0019983452,-0.0011729314000000002,-0.0025315182,-0.0026798556200000006,4.412,0,0
-0.002571182,-0.0015712459999999999,-6.0156799999999986e-05,-0.0019214894,-0.00195634142,4.413,0,0
-0.00256369,-0.0005941240000000001,0.0009391051999999999,-0.00041069740000000037,-0.0012318556200000001,4.414,0,0
-0.0019910196,0.001434322,0.0013495680000000002,0.0010130006,-0.00013380162000000003,4.415,0,0
-0.0011428384400000002,0.0036108732,0.0016767940000000001,0.0016814386,0.00092731238,4.416,0,0
-0.00056206224,0.005022425200000001,0.0020349626,0.0023228928,0.001619406,4.417,0,0
0.00028832375999999994,0.0066089700000000005,0.002284866,0.0026837000000000002,0.0024785298,4.418,0,0
0.0017239057600000002,0.007265392,0.00206787,0.0021044674,0.002744992,4.419,0,0
0.0028156553600000005,0.005133116,0.0018554906,0.0015766594,0.00223959916,4.42,0,0
0.0037434042,0.001353,0.0015561806,0.0011781632,0.0018554273599999999,4.421,0,0
0.004227248,-0.002531438,0.0006617346,0.00024614920000000005,0.00103811916,4.422,0,0
0.004043894,-0.005506362000000001,-0.0008137474000000002,-0.0006033928,-1.9768840000000036e-05,4.423,0,0
0.0031088228,-0.00687045,-0.0021745854000000003,-0.0013811102000000001,-0.00070701884,4.424,0,0
0.0014686067999999997,-0.007354454,-0.0029342780000000002,-0.0023544982,-0.001034386,4.425,0,0
-0.0004934952,-0.006811968,-0.0036713900000000005,-0.0030266959999999997,-0.0017729182000000001,4.426,0,0
-0.0023072692000000003,-0.005718094,-0.0034792340000000003,-0.003221512,-0.002731378,4.427,0,0
-0.0035782972000000003,-0.005444934,-0.002014336,-0.0029881716,-0.002703016,4.428,0,0
-0.0043724260000000004,-0.004602045200000001,-0.0003897099999999999,-0.0024281322,-0.0020728852000000005,4.429,0,0
-0.0045386079999999995,-0.0026353312000000004,0.00076604,-0.0015395248,-0.0016231358000000002,4.43,0,0
-0.0038309060000000002,-0.0008720152000000004,0.002029028,-0.0003268148000000001,-0.0007434098,4.431,0,0
-0.00245390506,0.0010790567999999997,0.003324456,0.0009065332000000001,0.0008113142000000001,4.432,0,0
-0.0013029956600000003,0.0033791148,0.0038867000000000003,0.0019457428000000001,0.0016716822000000001,4.433,0,0
-0.00043423766,0.004249556000000001,0.004252832,0.0028477234,0.0021080994,4.434,0,0
0.0006343523400000001,0.0034776020000000006,0.004232778,0.003245022,0.002582814,4.435,0,0
0.00171771834,0.0023406460000000005,0.0035500930000000003,0.0029236338000000004,0.0024836500000000004,4.436,0,0
0.0022622314,0.0010553020000000004,0.002778539,0.0023381906,0.0021254871999999998,4.437,0,0
0.0027317260000000003,-0.00020346179999999994,0.0018481372,0.0012316886,0.0019133572,4.438,0,0
0.0032899160000000004,-0.0006837318,0.0007629432000000002,-0.00030646140000000003,0.0011997144,4.439,0,0
0.0030591000000000004,0.00014476420000000004,1.6683200000000044e-05,-0.0014388114,-5.535160000000013e-05,4.44,0,0
0.0021928022000000003,0.0007965202000000001,-0.0017220638,-0.0019597572,-0.0007083576000000002,4.441,0,0
0.0013661882000000002,0.0006922562,-0.005030709800000001,-0.002382954,-0.0014594008000000003,4.442,0,0
0.00042870820000000004,0.001017718,-0.008806916000000001,-0.002724622,-0.0026849708000000003,4.443,0,0
-0.0009948278,0.001610978,-0.012320838,-0.00238279,-0.0031768680000000002,4.444,0,0
-0.0019641458,0.001486494,-0.014417478000000001,-0.0016915086000000002,-0.0029051700000000003,4.445,0,0
-0.002530594,0.0005778579999999999,-0.013022424800000001,-0.001134124,-0.0023168653999999997,4.446,0,0
-0.0029545400000000003,0.0002562240000000002,-0.006920264800000003,1.568800000000014e-05,-0.0014729514000000003,4.447,0,0
-0.0025609790000000006,-6.809720000000039e-06,0.0011830551999999998,0.0017129220000000002,-0.0006947721999999999,4.448,0,0
-0.0020310740000000003,0.00011387627999999992,0.007476695199999999,0.0028839120000000006,0.00015411180000000007,4.449,0,0
-0.0018075800000000003,0.0015050442799999998,0.010242199200000001,0.0036697886,0.0010255018000000001,4.45,0,0
-0.0012981168,0.00308247428,0.009055810000000001,0.004034172000000001,0.0015152052,4.451,0,0
-0.0004045308,0.00503705428,0.003668709999999999,0.00353948,0.0021434332,4.452,0,0
-0.0001719977999999999,0.00695128,-0.0019291280000000004,0.0025699926,0.0025222740000000006,4.453,0,0
4.2308400000000125e-05,0.007231736,-0.003879468,0.0016046040000000001,0.00228175114,4.454,0,0
0.0011045544000000003,0.004738988,-0.0031753839999999994,0.00020040400000000006,0.0021662811400000002,4.455,1,1
0.0016837312,0.001208008,-1.579400000000018e-05,-0.0010847,0.00129107914,4.456,0,0
0.0016379562000000002,-0.0018531019999999997,0.004008584,-0.0017858379999999999,-0.00026225285999999996,4.457,0,0
0.0016859142000000002,-0.005441192,0.00635927,-0.0028351366,-0.00078036486,4.458,0,0
0.00146158,-0.008885406,0.007105014000000001,-0.003506822,-0.001107706,4.459,0,0
0.00021811599999999997,-0.009393954,0.006741142,-0.003250302,-0.002075774,4.46,0,0
-0.0008091159999999999,-0.0068882234,0.005407274,-0.002737428,-0.0022812120000000003,4.461,0,0
-0.001252319,-0.005151259,0.004691168000000001,-0.00257927,-0.0017088098000000002,4.462,0,0
-0.002153333,-0.0036744297999999997,0.004446256000000001,-0.001714823,-0.0015445136,4.463,0,0
-0.002372884,-0.0011401038000000002,0.003611632,-0.00026723299999999986,-0.0011211464,4.464,0,0
-0.0016819898000000001,0.0007641102,0.0031765319999999997,0.0004128070000000001,-0.00013754640000000008,4.465,0,0
-0.0009193550000000002,0.0020092436,0.002755338,0.0011795630000000002,0.0006787676,4.466,0,0
-0.00027015100000000005,0.0029676472000000004,0.0016242576,0.0021177910000000004,0.0012566914,4.467,0,0
0.0010512870000000001,0.0025163280000000004,0.0004617716,0.0025949260000000004,0.0017926572000000003,4.468,0,0
0.002851939,0.00037377400000000033,-0.00026032439999999996,0.002572198,0.0021321340000000004,4.469,0,0
0.0034492328000000003,-0.0017172899999999998,-0.0010761984000000001,0.0025702140000000004,0.0018583218000000003,4.47,0,0
0.003685142,-0.004164284,-0.0021057504,0.0021983488,0.0015609142000000003,4.471,0,0
0.004224302,-0.0059364560000000005,-0.002989872,0.0013326648,0.0014329322000000001,4.472,0,0
0.0037733300000000005,-0.0046860040000000006,-0.0036913099999999997,0.0004598587999999999,0.0006366362000000001,4.473,0,0
0.002626416,-0.0019049680000000006,-0.004504159999999999,-0.0008339172000000001,-0.0006140418,4.474,0,0
0.002184338,-7.041199999999995e-05,-0.005052877999999999,-0.0020463472,-0.0013853316,4.475,0,0
0.001774598,0.0012185410000000003,-0.004685218,-0.0028494840000000002,-0.0020877760000000004,4.476,0,0
0.000516028,0.002503875,-0.0036889483199999996,-0.0030655200000000004,-0.003082606,4.477,0,0
-0.0003642320000000001,0.002521239,-0.00237099032,-0.0027006020000000003,-0.003058298,4.478,0,0
-0.001051762,0.002369003,-0.0010506123199999998,-0.0019369678000000004,-0.001841438,4.479,0,0
-0.0019396740000000002,0.0025722490000000004,0.00052584568,-0.0008675138,-0.0006658920000000001,4.48,0,0
-0.0022177720000000002,0.002937218,0.00209164568,9.016020000000006e-05,0.000459842,4.481,0,0
-0.0023728060000000003,0.002815108,0.002683862,0.0010773682,0.0017795340000000002,4.482,0,0
-0.0026994740000000003,0.0012708140000000003,0.0029291760000000003,0.0018089662,0.00266421,4.483,0,0
-0.0030213160000000005,0.00023095800000000002,0.0031473940000000004,0.0024446300000000006,0.00285467,4.484,0,0
-0.0027938040000000004,0.0005647220000000001,0.0026891848,0.003232236,0.00293294,4.485,0,0
-0.002189046,0.0008182320000000002,0.0014858748000000001,0.003611972,0.0028734340000000002,4.486,0,0
-0.001466382,0.0015674660000000004,0.00019215680000000013,0.0034009640000000002,0.0026628700000000003,4.487,0,0
-4.210800000000001e-05,0.00419573,-0.0009704392000000001,0.002706739,0.002409328,4.488,0,0
0.0015976420000000002,0.005311296,-0.0021074692,0.0017876830000000002,0.0017789047999999998,4.489,0,0
0.0023386379999999997,0.0038823940000000004,-0.0030396720000000006,0.0007174966000000003,0.0007712068,4.49,0,0
0.002225884,0.002393134,-0.004112164000000001,-0.0006383754000000001,-0.0005636531999999999,4.491,0,0
0.002011048,0.0006624719999999997,-0.006184762,-0.0018022554000000001,-0.0017588272,4.492,0,0
0.0012189040000000003,-0.0010096774000000002,-0.009353090000000001,-0.0020985864,-0.0025772791999999997,4.493,0,0
-0.00011852800000000001,-0.0018815982,-0.01122237,-0.0020677442000000003,-0.0026524208,4.494,0,0
-0.0011891380000000002,-0.0015777428,-0.011150774000000002,-0.0018623226000000004,-0.0023178537999999998,4.495,0,0
-0.0015241148,-0.0009213792,-0.007786754000000001,-0.0012499258000000003,-0.0012839829999999998,4.496,0,0
-0.0024248868000000005,-0.0005048892,-0.001557714,-0.0014961878000000002,7.884700000000005e-05,4.497,0,0
-0.0024726948000000004,-0.0007569658,0.0024784120000000006,-0.0033493897999999998,-0.0004898350000000001,4.498,0,0
4.319520000000028e-05,-0.002161067,0.003220966,-0.006119414,-0.0025921442000000003,4.499,0,0
0.0019827652,-0.0036329044000000003,0.0013655,-0.009109453200000001,-0.0049412172,4.5,0,0
0.0022160468000000004,-0.0046331340000000006,-0.0034690999999999997,-0.011076756000000002,-0.007770756,4.501,0,0
0.0020959308,-0.005146712,-0.008422954,-0.010897128000000002,-0.010536364000000001,4.502,0,0
0.0003239208000000004,-0.004889848600000001,-0.00840507,-0.00823455,-0.010745002,4.503,0,0
-0.0037756092,-0.0026459646,-0.003777444,-0.0033603300000000003,-0.008274046,4.504,0,0
-0.007166907199999999,0.0004036214,0.003968596,0.00236733,-0.0042010960000000005,4.505,0,0
-0.009116836,0.0021720454,0.013496776000000002,0.00797425,0.0010109640000000003,4.506,0,0
-0.008978416,0.0031297148000000003,0.021910030000000004,0.012711458000000002,0.006551604,4.507,0,0
-0.0067470754,0.0035351974000000005,0.027295200000000006,0.015717500000000002,0.011772646000000001,4.508,0,0
-0.0035395594000000004,0.0035410294000000004,0.02863738,0.01700192,0.01516719,4.509,0,0
0.0009008206000000003,0.0036345194000000003,0.026504220000000002,0.016541880000000002,0.016566860000000003,4.51,0,0
0.005797938600000001,0.0045632594,0.02028453,0.013805582,0.01637966,4.511,0,0
0.0100174066,0.005251632000000001,0.01080003,0.009207634000000001,0.01418161,4.512,0,0
0.012661486,0.003602014000000001,0.00047140999999999936,0.0036162540000000006,0.009968208,4.513,0,0
0.013805440000000002,-0.00035296200000000007,-0.009689570000000002,-0.0027250460000000005,0.004540000000000001,4.514,0,0
0.012864346000000002,-0.004961144000000001,-0.019194870000000003,-0.008786046,-0.00138994,4.515,0,0
0.009839737800000001,-0.008375354000000002,-0.025925700000000003,-0.013266048,-0.00737052,4.516,0,0
0.0061676638,-0.00944643,-0.028130500000000003,-0.01574358,-0.012359170000000001,4.517,0,0
0.0024696998,-0.007708602000000001,-0.02635998,-0.0158728,-0.015510128,4.518,0,0
-0.0022243602,-0.004138422,-0.020977314,-0.013772164,-0.01661704,4.519,0,0
-0.006826186200000001,-0.0003936819999999996,-0.013153660000000001,-0.0100028218,-0.015017272000000002,4.52,0,0
-0.009423798,0.00253233,-0.004893960000000001,-0.0051198098,-0.010889444000000002,4.521,0,0
-0.011301124000000001,0.004461304,0.0031065400000000005,4.16282e-05,-0.005798223999999999,4.522,0,0
-0.012161308000000001,0.005783890000000001,0.01009076,0.0049590282,-0.0003570839999999997,4.523,0,0
-0.010546432000000001,0.0060727920000000005,0.014902774,0.0091176522,0.005181216000000001,4.524,0,0
-0.007350041000000001,0.0052430686,0.01766548,0.011966430000000002,0.009588848,4.525,0,0
-0.004051227000000001,0.0056012166,0.01898006,0.013371218,0.0121109,4.526,0,0
-0.0003591950000000003,0.0069921386,0.01835112,0.013221680000000001,0.013211460000000001,4.527,0,0
0.0037149929999999998,0.0062752026,0.015396586,0.01107782,0.012628590000000002,4.528,0,0
0.006528157,0.0048978986,0.01054933,0.007174716000000001,0.010261314,4.529,0,0
0.008359519999999999,0.0038787419999999993,0.00411417,0.0023674379999999995,0.006701570000000001,4.53,0,0
0.0094491,-0.0004448680000000006,-0.0034422100000000002,-0.002930082,0.0021113780000000006,4.531,0,0
0.008656634000000002,-0.007456108,-0.01135425,-0.0077944419999999995,-0.002929862,4.532,0,0
0.005981806,-0.011782562000000002,-0.017922036000000002,-0.011157142,-0.007351412000000001,4.533,0,0
0.0030725820000000004,-0.012411726000000001,-0.021971320000000003,-0.012598438,-0.010567016,4.534,0,0
0.0002460639999999996,-0.0113681738,-0.022822140000000005,-0.01217942,-0.012672572000000002,4.535,0,0
-0.003328404,-0.007956945800000002,-0.019756476,-0.01008308,-0.012801454,4.536,0,0
-0.00585804,-0.0032380098000000007,-0.013620443999999999,-0.0069374888,-0.010652626,4.537,0,0
-0.006806736000000001,0.00029869220000000016,-0.005701924000000001,-0.0032765347999999996,-0.007415200000000001,4.538,0,0
-0.007369738000000001,0.0018976442,0.002793556000000001,0.0010384652000000006,-0.0036246800000000012,4.539,0,0
-0.006985148,0.002319866,0.010743476000000002,0.0049306052,0.00063105,4.54,0,0
-0.005305175999999999,0.003149366,0.016629512000000003,0.0077611052,0.004836684,4.541,0,0
-0.0033352890000000004,0.00443733,0.019350020000000002,0.009872614,0.008176216,4.542,0,0
-0.0012494630000000004,0.005025663999999999,0.019405820000000004,0.010782692,0.01039907,4.543,0,0
0.0014108610000000002,0.0045532156,0.017032298,0.009654343999999999,0.011294444,4.544,0,0
0.003795853,0.0035976536000000003,0.012122154,0.007046483,0.010559073999999998,4.545,0,0
0.005215433,0.0008978175999999997,0.005765816,0.004110461000000001,0.008215235600000002,4.546,0,0
0.006125754000000001,-0.0027928464000000004,-0.0006249040000000008,0.000476387,0.004643291600000001,4.547,0,0
0.006209806000000001,-0.0046791364000000005,-0.006724084000000001,-0.0032895850000000003,0.0006284996000000007,4.548,0,0
0.005425304000000001,-0.004885484,-0.011816522000000001,-0.006184375000000001,-0.0032199743999999997,4.549,0,0
0.004281498000000001,-0.004521704,-0.014964518000000001,-0.008264893999999998,-0.006380174400000001,4.55,0,0
0.0028073501999999998,-0.003690884,-0.01589294,-0.009469968,-0.00839963,4.551,0,0
0.0013118102000000001,-0.0019528732,-0.014216050000000001,-0.00906923,-0.009231534000000001,4.552,0,0
-0.0005799318000000002,1.4586799999999865e-05,-0.010425972,-0.007168127200000001,-0.008802548,4.553,0,0
-0.0023887818000000003,0.0015105068,-0.005045746,-0.004522317200000001,-0.006848478400000002,4.554,0,0
-0.0036964698000000002,0.0029410788,0.0011176140000000005,-0.0009842391999999997,-0.004215886400000001,4.555,0,0
-0.004945232,0.0043417448,0.006685994000000001,0.0026591048000000005,-0.0014064204000000004,4.556,0,0
-0.005735806,0.005030616,0.010635184,0.0055941948000000005,0.0016104796000000002,4.557,0,0
-0.005456804000000001,0.004996452,0.011730154000000001,0.007458426000000001,0.0042965516,4.558,0,0
-0.004380182200000001,0.005085984000000001,0.009992870640000002,0.008261354000000002,0.006207944,4.559,0,0
-0.0031181022000000003,0.005554038000000001,0.0065399566400000005,0.008217132000000002,0.007151598,4.56,0,0
-0.0008183342000000005,0.005429056000000001,0.0024040146400000004,0.006793222000000001,0.0071945080000000005,4.561,0,0
0.0019027038,0.00381805,-0.00157415736,0.004593522,0.0061900160000000004,4.562,0,0
0.0036807658,0.0015952320000000005,-0.0037680653600000004,0.0021708480000000004,0.0044760588,4.563,0,0
0.00490933,-0.00046753599999999995,-0.0036942220000000005,-0.0009045880000000002,0.0021795028,4.564,0,0
0.005594028000000001,-0.003345514,-0.0031082020000000004,-0.004111568,-0.0006296732000000003,4.565,0,0
0.0048074508,-0.0061835300000000004,-0.0028664220000000004,-0.006537686000000001,-0.0035473752000000002,4.566,0,0
0.0029549188000000002,-0.006773606000000001,-0.00301065,-0.008041186,-0.005786083200000001,4.567,0,0
0.0015208068000000003,-0.0056465024,-0.003613508,-0.008684596,-0.0071647360000000005,4.568,0,0
-0.00028085520000000006,-0.004415438400000001,-0.004519606,-0.007936292000000001,-0.007635034,4.569,0,0
-0.0026147552,-0.0028705604000000004,-0.004193321999999999,-0.0058215934,-0.0063787068,4.57,0,0
-0.004078554,-0.0009149834000000002,-0.0019008700000000005,-0.0031677513999999996,-0.0038121608000000005,4.571,0,0
-0.00499323,0.00047383633600000006,0.0013237819999999997,-0.00043691740000000013,-0.0012922188,4.572,0,0
-0.005334870000000001,0.001069164736,0.0050031,0.0023363186,0.0007288752000000001,4.573,0,0
-0.004707350800000001,0.0010479287360000001,0.008233432,0.0049196186,0.0031505732000000003,4.574,0,0
-0.003398277600000001,0.001281244736,0.009966422,0.00646287,0.0051148800000000005,4.575,0,0
-0.0017219516000000008,0.002310351736,0.009954786,0.007056340000000001,0.005921600000000001,4.576,0,0
0.00014157040000000002,0.0029684260000000006,0.00842169,0.006932074000000001,0.006644184,4.577,0,0
0.0017318924000000002,0.002764766,0.004947218000000001,0.005587656400000001,0.0071656540000000005,4.578,0,0
0.0028608792000000003,0.0029210160000000002,-0.0005981819999999996,0.0033820624000000005,0.006084564000000001,4.579,0,0
0.003977560000000001,0.0029172420000000004,-0.006791541999999999,0.0007455444000000002,0.0038184200000000003,4.58,0,0
0.004474764000000001,0.0016731480000000002,-0.012115916,-0.0017260136,0.0015360719999999999,4.581,0,0
0.004198422,0.00022315399999999982,-0.014287306,-0.0037734656000000004,-0.0013888720000000002,4.582,0,0
0.0030617380000000005,-0.0005812440000000002,-0.012619665999999998,-0.005260002,-0.004239612,4.583,0,0
0.0013229680000000003,-0.0012716686,-0.008630863999999999,-0.005863002,-0.005916200000000001,4.584,0,0
-0.0005626619999999998,-0.0019995126000000004,-0.0037852539999999996,-0.0057902299999999995,-0.006801016000000001,4.585,0,0
-0.002467194,-0.0018055720000000003,0.0002890283999999999,-0.004817678,-0.007417092,4.586,0,0
-0.00335174,-0.00170002,0.0029248664,-0.003081276,-0.006730046000000002,4.587,0,0
-0.0028676504,-0.0027463319999999998,0.0042059424,-0.000983128,-0.004509118,4.588,0,0
-0.0020003728,-0.0036222074,0.0051516504,0.0010734199999999998,-0.0023416879999999998,4.589,0,0
-0.0013071364000000001,-0.0036574154,0.0063874784,0.003300402,-0.00039948399999999986,4.59,0,0
-1.2128400000000058e-05,-0.0033486019999999996,0.008017607999999999,0.005398038000000001,0.0019418040000000003,4.591,0,0
0.0010985336,-0.0021893419999999995,0.009123344,0.006436866,0.003973740000000001,4.592,0,0
0.001308724,-0.0006165103000000001,0.008884678,0.006582484000000001,0.004680388000000001,4.593,0,0
0.0014168304000000001,-0.00024397030000000014,0.007997698,0.005995028000000001,0.004931726000000001,4.594,0,0
0.0019244600000000002,-0.0007328203000000001,0.006348656,0.004506280600000001,0.005120788,4.595,0,0
0.0025516420000000002,-0.0012640443000000003,0.0034063160000000012,0.0022244566,0.00450664,4.596,0,0
0.002938398,-0.0010264583000000002,-0.001143604,-0.00022222939999999992,0.0033765075999999997,4.597,0,0
0.0034037679999999997,0.0012161240000000003,-0.005653762,-0.0024922714,0.0020268756,4.598,0,0
0.0034726139999999997,0.004683732,-0.009295232,-0.0043811394,6.179760000000003e-05,4.599,0,0
0.0027092639999999994,0.007354019999999999,-0.011916827999999999,-0.005434246,-0.0021022904000000003,4.6,0,0
0.0016835746,0.009349988,-0.012093478000000001,-0.00556926,-0.003570632400000001,4.601,0,0
0.0001632446000000001,0.009653842,-0.010195955999999999,-0.005202836000000001,-0.00458858,4.602,0,0
-0.0018591354000000002,0.0060535699999999994,-0.0072776472,-0.004040758,-0.00530302,4.603,0,0
-0.0031329834,0.00119263,-0.0036151752000000005,-0.0023675899999999997,-0.004984944000000001,4.604,0,0
-0.0036720554,-0.0016484240000000003,0.00017244879999999958,-0.0007161400000000001,-0.0037122120000000003,4.605,0,0
-0.004148184,-0.003656724,0.0033872888,0.000745464,-0.002202476,4.606,0,0
-0.0038346219999999998,-0.004990556000000001,0.0062671068,0.002046648,-0.0004387,4.607,0,0
-0.0024904557999999998,-0.00404628,0.008011008,0.0033982279999999997,0.001607964,4.608,0,0
-0.0013962388,-0.0029925,0.007608170000000001,0.0040370580000000005,0.0031461600000000003,4.609,0,0
-0.0005824962,-0.0033656220000000004,0.005387731999999999,0.004164354,0.003919966,4.61,0,0
0.00041690780000000005,-0.003811046,0.0015811300000000003,0.0039066560000000005,0.0043913780000000005,4.611,0,0
0.0009696318000000002,-0.003280514,-0.00305155,0.00278809,0.003960278,4.612,0,0
0.0009750374,-0.002166062,-0.0062439240000000005,0.0010029860000000004,0.002653768,4.613,0,0
0.0010572944000000002,-0.002065836,-0.006783158000000001,-0.000587058,0.0016381546000000002,4.614,0,0
0.0009321806000000001,-0.002493998,-0.004846934000000001,-0.002167176,0.0007416985999999999,4.615,0,0
0.0004770306000000001,-0.002710362,-0.0011937780000000004,-0.003517104,-0.0006880174000000001,4.616,0,0
0.0003000638,-0.0028946034000000005,0.002655166,-0.003648412,-0.0017358954000000002,4.617,0,0
0.00040273200000000005,-0.0025143254000000006,0.0053407260000000005,-0.003521088,-0.0021589354,4.618,0,0
7.31616e-05,-0.0003177694,0.006133892,-0.0030773099999999998,-0.00295253,4.619,0,0
-0.0007444611999999999,0.0027359306000000003,0.005609986,-0.0021083802,-0.0033424800000000005,4.62,0,0
-0.0008245419999999999,0.0044583806,0.004316818,-0.0012227402000000002,-0.0028894218000000004,4.621,0,0
-0.000739398,0.0061829580000000006,0.0033721160000000005,-0.00026041419999999995,-0.0022130194000000002,4.622,0,0
-0.0011173614,0.009310684,0.0026356540000000003,0.0007402138,-0.0010839154,4.623,0,0
-0.0007789270000000001,0.012226262000000002,0.001231462,0.0014323038,0.0005996186,4.624,0,0
0.0002550942,0.013671894,-0.0005764720000000001,0.0018121479999999998,0.0018994926000000002,4.625,0,0
0.000430341,0.012032504000000001,-0.0027529280000000004,0.002146676,0.0028187584000000003,4.626,0,0
-0.00037293819999999997,0.004617940000000002,-0.0049477440000000004,0.0022560740000000003,0.003963390000000001,4.627,0,0
-0.0008923648,-0.00531318,-0.006655056,0.0019671124,0.004070840000000001,4.628,0,0
-0.0010202838,-0.01284648,-0.006722486000000001,0.0013810209999999999,0.0031975840000000003,4.629,0,0
-0.000952407,-0.017575662000000002,-0.004522636000000001,0.000595717,0.00252769652,4.63,0,0
-0.00015622300000000004,-0.016866118000000003,-0.0003431280000000007,-0.00039304699999999994,0.0012864845200000002,4.631,0,0
0.001277009,-0.009395322000000001,0.003607466,-0.001510117,-0.0003652194800000002,4.632,0,0
0.002188219,-0.0018905640000000008,0.0054914759999999995,-0.0024214614,-0.00148759348,4.633,0,0
0.00248298,0.001414036,0.0055615000000000005,-0.0027984760000000003,-0.0025869834800000004,4.634,0,0
0.0025943019999999997,0.002356484,0.0038492280000000005,-0.0027860540000000005,-0.003544892,4.635,0,0
0.0020171020000000002,0.0019925659999999994,0.001002734,-0.0025326700000000003,-0.0037398199999999996,4.636,0,0
0.0012014998000000002,8.09835999999999e-05,-0.0011970860000000002,-0.001652582,-0.0035877179999999997,4.637,0,0
0.00043986780000000015,-0.0022323144,-0.0016878610000000001,-0.0003648560000000002,-0.0031312982000000003,4.638,0,0
-0.0006743482,-0.0022655022,-0.0009644522000000003,0.0006377939999999999,-0.0018936022000000002,4.639,0,0
-0.0014759942,-0.0004107761999999999,0.0004912318,0.0014597179999999998,-0.0005392762000000001,4.64,0,0
-0.0017733988,0.0014420677999999998,0.0018985178,0.002168654,0.0008539018,4.641,0,0
-0.0014998286000000001,0.0019494822,0.0025029378,0.002529008,0.0020883057999999998,4.642,0,0
-0.0007260226,0.0014116681999999999,0.0030388048000000003,0.002698834,0.002615048,4.643,0,0
8.265160000000005e-05,0.0007946939999999999,0.0036690259999999997,0.0026776500000000006,0.003052,4.644,0,0
0.0006938098,-0.0002030498000000002,0.0029047414000000003,0.0025403500000000002,0.002883758,4.645,0,0
0.0004479044000000001,-0.0012590318000000001,0.0014296174,0.002048156,0.0021529763999999997,4.646,0,0
-0.00032519160000000005,-0.0008160958,-0.00026162060000000005,0.0012005732,0.0016021924,4.647,0,0
-0.0010706276,0.0015158942000000001,-0.0027251466,0.00045417459999999994,0.0008909344,4.648,0,0
-0.0014391258000000001,0.0034607502000000004,-0.004936026600000001,-0.0002913634,-0.00025938360000000006,4.649,0,0
-0.0015951756,0.004656376,-0.006174628000000001,-0.0009421234,-0.0008892476,4.65,0,0
-0.0015968876000000002,0.004926572000000001,-0.0064405600000000006,-0.0010650286,-0.000995735,4.651,0,0
-0.0010828916,0.003405304,-0.0058588600000000005,-0.0011315778000000002,-0.0017827770000000001,4.652,0,0
-0.0005321482,0.0008393640000000004,-0.004499098000000001,-0.0012434412,-0.002101397,4.653,0,0
0.00024842980000000005,-0.0010482459999999999,-0.0030854018000000005,-0.0007271044,-0.0016660080000000003,4.654,0,0
0.0005972594000000001,-0.002038517,-0.0015433478000000003,-0.00017359840000000001,-0.0014561106000000002,4.655,0,0
0.0006816834,-0.002450982,2.919420000000014e-05,0.00021646480000000006,-0.0011707262000000003,4.656,0,0
0.0008991534,-0.001468486,0.0016969582000000002,0.0005744034,-0.0004838841999999999,4.657,0,0
0.0006578806000000001,-0.00010868219999999995,0.0033841062000000005,0.0006990122,0.00046583180000000005,4.658,0,0
0.00023532000000000002,0.0008520338,0.004342468,0.0007448134000000001,0.0013363148000000002,4.659,0,0
-8.629070000000001e-05,0.0013503628,0.004966222,0.0007890914000000001,0.0019578074,4.66,0,0
0.0001555753,0.0013357426,0.00504977,0.00048009460000000007,0.0019926134,4.661,0,0
0.0003850653000000001,0.0008924795999999999,0.0044956760000000005,0.000124354,0.0017639485999999998,4.662,0,0
0.0002454147000000001,0.000782945,0.0035446880000000003,0.00015295920000000002,0.0013585306,4.663,0,0
-0.0001289387,0.000707739,0.00226665,-0.0001813526,0.0003862806,4.664,0,0
8.252199999999975e-06,0.000433241,0.00035343000000000006,-0.0006578086000000001,-0.0005209814,4.665,0,0
0.0005157402,0.0009888302,-0.0019081900000000006,-0.0006907778,-0.0010462468,4.666,0,0
0.0004947301999999999,0.0015722612,-0.003490572000000001,-0.0005036826000000001,-0.001405802,4.667,0,0
0.0010098382,0.0015864730000000001,-0.004629138000000001,-0.0005383492,-0.0017692480000000002,4.668,0,0
0.0015781542,0.0011820784000000002,-0.005341772000000002,-0.0005902408000000001,-0.0021249199999999998,4.669,0,0
0.0013807302,0.0008867768000000001,-0.004910902,-0.00025401739999999996,-0.0021008800000000003,4.67,0,0
0.0011135542,0.0003010628,-0.003647043,1.4285800000000005e-05,-0.0017135990000000001,4.671,0,0
0.000629217,-0.0007170612,-0.002444765,-4.75654e-05,-0.0012572098000000003,4.672,0,0
-0.000163313,-0.0015105962000000004,-0.0012752809999999999,-0.0002902088,-0.0005064098000000001,4.673,0,0
-0.00034414700000000005,-0.0023348876,0.00014117300000000013,-0.0005953614000000001,0.0006064922,4.674,0,0
0.00011735479999999996,-0.0034534200000000004,0.001402061,-0.0011645528000000002,0.0013949442,4.675,0,0
-9.60230000000001e-05,-0.003912860000000001,0.002430134,-0.001694662,0.0017217331999999999,4.676,0,0
-0.00022173300000000008,-0.0028739880000000005,0.0034396039999999998,-0.0014973470000000002,0.001938016,4.677,0,0
0.0003811059999999999,-0.001637352,0.00412784,-0.0007746370000000003,0.001630142,4.678,0,0
0.00032294439999999995,-0.00030155000000000026,0.004445212,0.00010472099999999995,0.0009560584,4.679,0,0
-0.00011596540000000002,0.001606428,0.0043966579999999995,0.0006138824,0.0008350324,4.68,0,0
0.00016102039999999997,0.002785744,0.0035111502000000003,0.0006074404,0.0007511704,4.681,0,0
0.0005920976,0.002349622,0.0016738222000000002,0.00034296599999999983,9.933840000000006e-05,4.682,0,0
0.00013906859999999994,0.001520276,-0.0002039778000000002,-0.00019816320000000007,-0.0003010176,4.683,0,0
-0.00013451580000000012,0.001125766,-0.0013684118000000002,-0.0007598314000000001,-0.00019034679999999998,4.684,0,0
-0.00028284520000000006,0.0004902308000000001,-0.0027394158000000005,-0.0009058238000000001,-0.00013774879999999998,4.685,0,0
-0.0011721612000000002,-2.499920000000001e-05,-0.0038951620000000006,-0.0004346426,-0.00040786394000000005,4.686,0,0
-0.0013898922600000003,0.0005131507999999999,-0.0037789340000000007,2.5072799999999954e-05,-0.00067733194,4.687,0,0
-0.0007605142600000002,0.0016762228,-0.0031934600000000004,0.0002691288,-0.00051087194,4.688,0,0
-0.00029797826,0.0013684227999999998,-0.0026731560000000003,0.000788717,-0.00063770954,4.689,0,0
0.00017066094,-0.00094512,-0.001649124,0.001295048,-0.0013164755400000001,4.69,0,0
0.00092651854,-0.0028031700000000002,-0.00036032200000000005,0.0011958861999999998,-0.0013834698,4.691,0,0
0.0012606756,-0.0033935059999999997,-7.010199999999997e-05,0.0009534038000000001,-0.0010036718,4.692,0,0
0.0011354722000000003,-0.0035299840000000008,0.00021099840000000003,0.001186543,-0.0009699016000000001,4.693,0,0
0.0009146262,-0.0021031259999999994,0.0009060544,0.001303069,-0.0007543652000000001,4.694,0,0
0.0006255882000000001,0.001443314,0.0014027784,0.0009448404000000001,-0.0002163702,4.695,0,0
0.00027512799999999997,0.00421076,0.0020412324,0.0008806222000000001,0.00011700120000000003,4.696,0,0
-0.000581314,0.0041586214000000005,0.0027796704,0.0008991252,0.0007838672,4.697,0,0
-0.0013498505999999999,0.0026626374000000004,0.0028914886000000004,0.0003409004000000001,0.001525075,4.698,0,0
-0.0016326226000000002,0.0003069274000000006,0.0020318806,-0.00040382960000000007,0.0016140754,4.699,0,0
-0.0020192626,-0.0022830286000000005,0.0010253565999999998,-0.0009483290000000001,0.0015348590000000002,4.7,0,0
-0.00220854,-0.0038128306,-0.00012556739999999993,-0.0011690302,0.0013947126000000002,4.701,0,0
-0.0018801228,-0.003341092,-0.0010940474,-0.0013688298,0.0009975312000000001,4.702,0,0
-0.0015578608000000002,-0.0013790999999999999,-0.001660866,-0.001432241,0.00040153894000000004,4.703,0,0
-0.0015032548000000004,0.00100106,-0.0018819020000000002,-0.0014187330000000001,0.0003272095400000001,4.704,0,0
-0.0010677754000000003,0.0029400900000000002,-0.001878232,-0.001243165,0.00035576474,4.705,0,0
-0.00024207740000000008,0.0025402560000000003,-0.002115922,-0.0009431010000000001,0.00010798173999999999,4.706,0,0
0.0004181474,0.0005357000000000001,-0.002087696,-0.000815672,0.00012267854,4.707,0,0
0.0013507074000000002,-0.0012606420000000002,-0.0014842330000000002,-0.0006398544000000001,-0.0001335372,4.708,0,0
0.0023891794,-0.002693122,-0.0005879370000000001,-0.00045337880000000005,-0.0008809662,4.709,0,0
0.002568056,-0.003313355,0.000582199,0.0002007912,-0.001597622,4.71,0,0
0.0022990926,-0.002342784,0.0020575610000000003,0.0006320532,-0.0015012926,4.711,0,0
0.0019244890000000004,-0.0013539520000000003,0.003386271,0.00065667776,-0.0012328019999999999,4.712,0,0
0.0009445550000000001,-0.001065958,0.0041068960000000005,0.00099312016,-0.0008354776,4.713,0,0
-1.1768600000000042e-05,-0.0005038359999999999,0.003851588,0.00143440256,0.0003068044,4.714,0,0
-0.00043762760000000004,-0.00017211900000000004,0.0027894914,0.00156133056,0.0012946163999999999,4.715,0,0
-0.0012529862,0.00027575400000000007,0.0014737633999999996,0.00151586456,0.00132134226,4.716,0,0
-0.0019533646,0.0011406240000000002,0.0002815254,0.0014590194000000001,0.0009617535000000001,4.717,0,0
-0.0018578446,0.001401901,-0.0008091306000000001,0.0009952154,0.0010585491,4.718,0,0
-0.0020319730000000003,0.0013858790000000002,-0.0015334086000000002,0.0007779992000000001,0.0005510713000000001,4.719,0,0
-0.0017848282,0.0022836230000000002,-0.0015605312,0.00046210999999999995,-0.00020666470000000003,4.72,0,0
-0.0007094442,0.0031350310000000004,-0.0019113652000000002,-5.37906e-05,-0.00026828776000000003,4.721,0,0
0.0004937737999999999,0.0028265020000000003,-0.0033649632000000004,-0.0001717358,-0.00037803740000000004,4.722,0,0
0.0020305278,0.0021677370000000003,-0.0050976032,-0.0004246718,-0.0007029208000000002,4.723,0,0
0.0031557858,0.0013128410000000004,-0.0067515852,-0.0008401616000000001,-0.0007015342000000001,4.724,0,0
0.0031905306,-0.0014257270000000001,-0.008296954,-0.0011307446000000001,-0.0004921226,4.725,0,0
0.0026248188,-0.0047112790000000005,-0.0074058422,-0.001221052,-0.0007961194,4.726,0,0
0.0015079987999999998,-0.004666056,-0.0029894381999999997,-0.0010144750000000001,-0.0011409830000000001,4.727,0,0
-9.20952e-05,-0.0024885940000000007,0.0025422818000000007,-0.0004883314,-0.0010341248000000003,4.728,0,0
-0.0013347372000000002,-0.001584438,0.007616321800000001,-0.00041110819999999994,-0.0007278655999999999,4.729,0,0
-0.0021151918,-0.000558198,0.011764957800000002,-0.000285386,-0.0003093752,4.73,0,0
-0.0023236560000000003,0.001803728,0.013320956000000002,0.00045406400000000006,0.00047341479999999997,4.731,0,0
-0.002178342,0.0029620280000000002,0.011490584000000002,0.0006939068,0.0013294428,4.732,0,0
-0.002547034,0.002081758,0.008237378,0.0007786156000000001,0.0016513040000000001,4.733,0,0
-0.0027899220000000002,0.0011773419999999998,0.0053655275999999995,0.0010630458000000001,0.001709226,4.734,0,0
-0.0021829382,0.0005456159999999996,0.0029224208600000003,0.0007941178000000001,0.0015990058000000002,4.735,0,0
-0.0015833622000000001,-0.0013262300000000003,0.0003783388599999999,0.00029197630999999995,0.001230869,4.736,0,0
-0.0009236162,-0.0035754360000000004,-0.00282048914,6.787411e-05,0.001063899,4.737,0,0
0.0002953678000000001,-0.004400444,-0.006845863140000001,-0.00033730029,0.0009683770000000001,4.738,0,0
0.0013729198000000003,-0.0038768648000000005,-0.011611192740000002,-0.00048315169000000003,0.00037996300000000003,4.739,0,0
0.0019428380000000001,-0.0024158188,-0.015910386000000002,-0.00031183389000000004,-0.00022741680000000003,4.74,0,0
0.0022667100000000003,0.0002701731999999999,-0.01803252,-0.0006242824,-0.0006096480000000002,4.741,0,0
0.0026764980000000002,0.0034542392,-0.016948763999999998,-0.0007341956000000001,-0.001222074,4.742,0,0
0.002626802,0.0063473772000000005,-0.011908334000000001,-0.0006269264000000001,-0.0018276780000000001,4.743,0,0
0.0022967760000000004,0.008062808,-0.003989393999999999,-0.0008789624,-0.0016950002,4.744,0,0
0.0017694616000000002,0.008633528000000001,0.0031471460000000004,-0.0008738048,-0.0012151542,4.745,0,0
0.0007498716,0.009356876,0.007536112,-0.000414701,-0.0009207844,4.746,0,0
-5.7662000000000045e-05,0.008203354,0.009870342,-0.00013858160000000005,-0.00026655440000000004,4.747,0,0
-0.000747482,0.003597994,0.009279738000000001,6.743720000000004e-05,0.00038279160000000004,4.748,0,0
-0.001289456,-0.0013878280000000002,0.006729158000000001,0.0005872852,0.0007864898,4.749,0,0
-0.001349621,-0.004624902,0.005770030000000001,0.0011319718,0.0012052178,4.75,0,0
-0.0009907918,-0.00718652,0.006871624000000001,0.0011469656,0.00122204,4.751,0,0
-0.0009154938,-0.008281230200000001,0.008020098,0.000835165,0.0007549548,4.752,0,0
-0.0012630518000000001,-0.006582730199999999,0.008219776,0.000762909,0.000332239,4.753,0,0
-0.0010378038000000002,-0.0034658542000000005,0.007097402000000001,0.0005686193999999999,0.00030460899999999996,4.754,0,0
-0.00027209840000000005,-0.0014562522000000002,0.004299124,-0.00013813659999999998,0.000206473,4.755,0,0
0.0003494444,-0.0020445062000000003,0.000983546,-0.0011383822000000001,-0.00016941500000000004,4.756,0,0
0.000876824,-0.003927814,-0.0015929320000000005,-0.0016491776000000001,-0.0005898378,4.757,0,0
0.001873702,-0.005330596,-0.0026845500000000004,-0.0017624230000000002,-0.001175568,4.758,0,0
0.0023820539999999998,-0.006060048,-0.0022363807200000006,-0.002007322,-0.0020097200000000004,4.759,0,0
0.001501392,-0.0059622432,-0.00038348872000000013,-0.0016659856000000002,-0.002529852,4.76,0,0
0.0008288928000000001,-0.0040524472,0.0018774792800000002,-0.0004766136000000001,-0.0021059764,4.761,0,0
0.00035069459999999996,-0.00039236719999999987,0.00254392128,0.0006530044,-0.0011381144,4.762,0,0
-0.0005605574,0.0035529948000000006,0.00197260328,0.0013001498,-9.53440000000009e-06,4.763,0,0
-0.0008646401999999999,0.0070635308,0.0006607360000000001,0.0017303984,0.0009236476,4.764,0,0
-0.0005471987999999999,0.009788504,-0.0024245300000000003,0.0018424512000000002,0.0014783756,4.765,0,0
-0.0005388331999999999,0.010793112,-0.0065476200000000005,0.0016302514,0.001816982,4.766,0,0
-0.000765725,0.009236954,-0.009253084,0.0012309414,0.0016381192,4.767,0,0
-0.00044449980000000006,0.005479606,-0.010037998000000001,0.0008325762000000001,0.0013695224,4.768,0,0
-0.0005719186,0.0020622820000000004,-0.009558804,0.0005225096,0.0012743904000000002,4.769,0,0
-0.0007373124000000001,-0.00011516799999999991,-0.007780028,0.00044971180000000005,0.0009335475800000001,4.77,0,0
-0.00010245679999999996,-0.002920276,-0.004296326,0.0006234696,0.0004814571800000001,4.771,0,0
0.0005038512000000001,-0.005163358000000001,0.0005016939999999996,0.00034573160000000004,7.133998000000003e-05,4.772,0,0
0.00098431,-0.0046804920000000005,0.0044970800000000005,-0.00026819720000000003,-0.00028843322000000004,4.773,0,0
0.0010923284000000002,-0.002926886000000001,0.006741534,-0.0007480106,-0.00048383662,4.774,0,0
0.0009702884000000003,-0.0016950220000000009,0.00782564,-0.001516726,-0.0007012798,4.775,0,0
0.0001936784000000001,-0.00021772000000000056,0.0077153180000000005,-0.0024555360000000004,-0.0011431414,4.776,0,0
-0.0008825056,0.0020385337999999998,0.005846614000000001,-0.0025333160000000003,-0.0013918114,4.777,0,0
-0.001233399,0.0023762677999999995,0.0031783600000000003,-0.0021427958000000006,-0.0013014212,4.778,0,0
-0.0011010794,-0.00013221420000000036,0.0012929299999999999,-0.0015043710000000002,-0.0013975722,4.779,0,0
-0.0008861548000000001,-0.0029625222000000005,0.0002938580000000001,-0.0003682850000000001,-0.0013256333999999998,4.78,0,0
-0.0005853986000000001,-0.0049251442,-0.00047785780000000004,0.00038213979999999993,-0.0006458368000000001,4.781,0,0
-0.00024553659999999996,-0.005756046000000001,-0.00116789,0.0008821038,0.0001808132,4.782,0,0
-0.00046614919999999997,-0.00499452629,-0.001404832,0.0016659256,0.000817391,4.783,0,0
-0.00044548980000000003,-0.0034736818900000005,-0.0010895778,0.0021162048000000003,0.0014432173999999998,4.784,0,0
1.4602000000000007e-05,-0.0019371298899999998,-0.0006596282,0.0019640568,0.0020714386,4.785,0,0
-2.2033659999999955e-05,5.167411000000003e-05,-0.0007144478,0.0019391490000000003,0.0019839506,4.786,0,0
3.8140340000000035e-05,0.00136934611,-0.0005553229999999999,0.001460476,0.001458591,4.787,0,0
0.0007151163400000001,0.0017298844,-0.0002405916,0.00021330000000000003,0.0010995316000000002,4.788,0,0
0.00113150854,0.0024645920000000003,-0.0007093958,-0.0005556880000000001,0.0003499916,4.789,0,0
0.00075667994,0.003186296,-0.0013987734,-0.0006715080000000001,-0.0006973384,4.79,0,0
0.0007695137999999999,0.003241138,-0.001930588,-0.000948059,-0.001229009,4.791,0,0
0.0013083758000000001,0.0022385140000000005,-0.0025144826,-0.0014777400000000002,-0.0016174194000000003,4.792,0,0
0.0010509211999999999,0.0009217160000000002,-0.002612828,-0.0015355920000000001,-0.002320548,4.793,0,0
0.0003320652000000001,0.00023140620000000007,-0.002171548,-0.0014222968,-0.0024753839999999997,4.794,0,0
-0.00011036619999999994,-0.0006350218,-0.0018099055999999999,-0.0018677208,-0.00212647,4.795,0,0
-0.0005028626,-0.0012719718,-0.00117544518,-0.0018077236000000002,-0.001867766,4.796,0,0
-0.0007937038,-0.0008804384000000001,-0.00023007718000000012,-0.0006907096000000002,-0.001202354,4.797,0,0
-0.000975376,0.0001043752,0.00044282481999999995,0.0002514124,-0.00013357599999999994,4.798,0,0
-0.000973462,0.0006838930000000001,0.0008887988200000001,0.0006430952000000001,0.0005664000000000001,4.799,0,0
-0.000747307,0.001411637,0.0016360544200000001,0.0011578152,0.0009706166000000001,4.8,0,0
-0.00038565699999999997,0.0028289210000000003,0.002270044,0.0017465620000000001,0.0018495226000000001,4.801,0,0
-0.00021227100000000007,0.0035986256000000005,0.0020519422000000002,0.001704344,0.0023496486000000004,4.802,0,0
-0.0002705458,0.00355462,0.0019072382,0.0015385108000000002,0.0019735432,4.803,0,0
9.207900000000001e-05,0.002974813600000001,0.0018175257999999998,0.0013680572000000003,0.0020021352,4.804,0,0
0.000755716,0.0021716676,0.0008988197999999999,0.0006345851999999999,0.0019921130000000002,4.805,0,0
0.0013901120000000002,0.0004486156,5.148119999999999e-05,-0.0003928728,0.0012065236,4.806,0,0
0.0016571872000000001,-0.0012414904,-0.0002582982,-0.0012212848,0.0004034996,4.807,0,0
0.0016376111999999998,-0.0014351543999999998,-0.0008475522000000002,-0.0017975736,-0.00013094099999999998,4.808,0,0
0.0011734204000000002,-0.0014530804,-0.0012643338000000001,-0.0023354760000000004,-0.0008801950000000001,4.809,0,0
-8.975159999999999e-05,-0.0020049584,-0.00091659462,-0.0020357252,-0.0014371674000000002,4.81,0,0
-0.0014337076,-0.0021377664,-0.0010060980200000001,-0.0011590992,-0.0014122160000000002,4.811,0,0
-0.0023325276,-0.0013038050000000001,-0.0013400668200000002,-0.00039395120000000015,-0.0012283620000000002,4.812,0,0
-0.00287319,-0.0009063652000000002,-0.0008445160200000002,0.0006586967999999999,-0.0008678170000000001,4.813,0,0
-0.003036332,-0.0007543434,-0.0008378080200000001,0.0018242328000000001,-0.00040003320000000006,4.814,0,0
-0.00260061,4.1320600000000006e-05,-0.0025198032,0.0024941520000000003,1.4292999999999993e-05,4.815,0,0
-0.0020329478,0.0010555366,-0.0042382212,0.00253776,0.00033489900000000005,4.816,0,0
-0.0018054438000000002,0.0017294492000000002,-0.0051553172000000005,0.002495418,0.0006143990000000001,4.817,0,0
-0.0013259344,0.0014242674,-0.005637686000000001,0.00219819,0.00086267,4.818,0,0
-0.0003605924,0.00030648000000000003,-0.0042065140000000015,0.0015880870000000002,0.0010648582,4.819,0,0
0.00012913959999999997,-0.0009001339999999999,-0.00022275200000000097,0.0011355100000000002,0.0011404292,4.82,0,0
0.0007352354,-0.001793498,0.004160588,0.0007970280000000001,0.0011190932000000001,4.821,0,0
0.0017334334,-0.002118862,0.006789048000000001,8.706399999999998e-05,0.0010311886000000001,4.822,0,0
0.002328618,-0.0018457802000000005,0.007729098,-0.0010518300000000001,0.0005920046,4.823,0,0
0.0024875340000000004,-0.0007610291999999998,0.0068651300000000005,-0.0019201530000000002,-0.00022046140000000006,4.824,0,0
0.0025671880000000006,7.008406000000005e-05,0.004321174,-0.0025785499999999998,-0.0010352686,4.825,0,0
0.0024126680000000006,-0.0006077579400000001,0.0014017420000000003,-0.002948886,-0.0016372766,4.826,0,0
0.0015588520000000001,-0.00111871194,-0.0004305839999999999,-0.0026300836000000003,-0.0018862526000000001,4.827,0,0
0.000852422,-0.00077543374,-0.0012690000000000002,-0.0018608356000000001,-0.0015402234,4.828,0,0
7.112900000000002e-05,-0.00066718674,-0.001824136,-0.0008062376000000001,-0.0011651224,4.829,0,0
-0.000434823,-7.368999999999995e-05,-0.001122784,0.00033197240000000007,-0.0005949452,4.83,0,0
-0.0006490344000000001,0.001656616,0.0003253040000000002,0.0012179784000000001,0.0003334388,4.831,0,0
-0.0008883504000000001,0.0022272800000000003,0.0015264240000000002,0.001790154,0.0006380214,4.832,0,0
-0.000743988,0.0019088867999999999,0.0026661640000000004,0.00216775,0.0007127022,4.833,0,0
-0.000240849,0.0021099988000000004,0.003515152,0.0024731420000000002,0.0013653272,4.834,0,0
0.00038244700000000006,0.0009188347999999998,0.0034325960000000004,0.0026280540000000003,0.001690932,4.835,0,0
0.0002841404,-0.00035774120000000003,0.0027631120000000003,0.002354596,0.0012694812,4.836,0,0
0.0009451984000000001,1.914280000000015e-05,0.0018139040000000003,0.0019016324,0.0013437192000000002,4.837,0,0
0.001852328,-0.0002246505999999999,0.00034536600000000005,0.0013018024,0.0014269592,4.838,0,0
0.0014973387600000002,-0.0009408185999999998,-0.0009501900000000001,1.1198400000000052e-05,0.0008740784,4.839,0,0
0.00111719036,-7.739059999999981e-05,-0.0021705220000000002,-0.0015008596,0.00035490639999999997,4.84,0,0
0.0013407023600000001,0.0008251934000000002,-0.0034469600000000006,-0.0023823136000000003,-0.0005462288000000002,4.841,0,0
0.00127127036,0.0001454422000000001,-0.004664368,-0.002712828,-0.0017610148000000003,4.842,0,0
0.00020214635999999992,-0.0008534832000000001,-0.005447834,-0.002761116,-0.0028070128,4.843,0,0
-0.0005371604000000002,-0.0011868792000000001,-0.00539573,-0.0023849220000000003,-0.00314681,4.844,0,0
-0.0009556940000000002,-0.0017080332000000004,-0.005034835999999999,-0.0017203806000000003,-0.0027028613999999997,4.845,0,0
-0.0018916420000000002,-0.0025201052,-0.004068118000000001,-0.0012838530000000002,-0.0020877932,4.846,0,0
-0.0029772740000000002,-0.0024397392000000003,-0.002715534,-0.0008151876,-0.0009917067999999998,4.847,0,0
-0.003277522,-0.0012064794,-0.001927396,7.373039999999996e-05,0.0004531532000000001,4.848,0,0
-0.002803368,-0.0004627646,-0.0016146700000000001,0.0008887264000000001,0.0013042812,4.849,0,0
-0.0023901748000000004,-0.0006720786,-0.0011745404,0.0015422950000000004,0.0017106986000000003,4.85,0,0
-0.0013022348,-0.0006363546,-0.0008921284,0.0021408314000000003,0.0023971884,4.851,0,0
0.0004119411999999999,-0.0010901074,0.0005117436,0.0022318154000000004,0.0027154940000000006,4.852,0,0
0.0017060752,-0.0015298832000000002,0.0037342596000000004,0.0017603072,0.002437476,4.853,0,0
0.0021602152,-0.00057087,0.0066690456,0.0010056212,0.0020733832,4.854,0,0
0.002559288,0.0012623060000000001,0.008459930000000001,-0.00020851280000000005,0.0014606576,4.855,0,0
0.002932628,0.002874934,0.009195344000000001,-0.0015760828000000002,0.0004415736000000001,4.856,0,0
0.002333832,0.004622614000000001,0.008377206000000002,-0.0024760362,-0.0007802424000000001,4.857,0,0
0.0018215955999999998,0.006102474,0.005462752,-0.003223174,-0.0019199624,4.858,0,0
0.0018699956,0.0056075560000000005,0.001983316,-0.0036677360000000004,-0.0028120415999999997,4.859,0,0
0.0010864435999999999,0.00390097,-0.001219204,-0.0032445520000000004,-0.003357918,4.86,0,0
-0.00033456640000000014,0.0020918619999999995,-0.00405142,-0.0024400412000000005,-0.003178862,4.861,0,0
-0.0011046664000000002,0.0007966103999999998,-0.005844472,-0.0017173534000000002,-0.0024114122,4.862,0,0
-0.0020049340000000003,-0.0009698716000000002,-0.005954846000000001,-0.00039690539999999994,-0.0015273524000000002,4.863,0,0
-0.003129296,-0.0034874496000000003,-0.004106948,0.0010021246,-0.0002628684,4.864,0,0
-0.0030396200000000003,-0.0041212196,-0.0005232039999999998,0.0017122845999999999,0.0011455936,4.865,0,0
-0.0022838961999999997,-0.0032037016000000004,0.004135594,0.0025068278,0.0021418316,4.866,0,0
-0.0020674682,-0.0027241100000000005,0.006605934,0.003100618,0.0027454018,4.867,0,0
-0.0015041088000000002,-0.0022208068000000004,0.005026748,0.003314058,0.0032991660000000005,4.868,0,0
-0.00039727680000000007,-0.0005460708,0.00028582600000000074,0.00331078,0.0032830940000000007,4.869,0,0
-0.0002987968000000001,0.0018381332000000001,-0.0061486940000000006,0.002931257,0.0026798578,4.87,0,0
-0.0004749954,0.0026338892000000004,-0.012564094,0.002505789,0.0021127894,4.871,0,0
-0.0005932294,0.0008268352000000002,-0.015135848,0.001570449,0.0012611604,4.872,0,0
-0.0013282288000000001,-0.0008724899999999996,-0.012081775999999999,-0.00014389100000000005,-6.231560000000017e-05,4.873,0,0
-0.0014986420000000003,-0.0009354099999999996,-0.005752676000000002,-0.001597453,-0.0013053596,4.874,0,0
-0.00067354,-0.0018018380000000003,0.0021926639999999996,-0.0025986620000000003,-0.0019985934,4.875,0,0
0.0006178008,-0.0022500140000000003,0.008099904,-0.0033412520000000003,-0.002829485,4.876,0,0
0.0028660828,0.0004887400000000002,0.009231648,-0.0029950522000000003,-0.0035398520000000004,4.877,0,0
0.005520948800000001,0.0037890800000000002,0.007245987999999999,-0.0022949728,-0.0032853240000000005,4.878,0,0
0.0056474408,0.0041660228,0.004077305999999999,-0.0016789556000000002,-0.0026342028000000003,4.879,0,0
0.0033752187999999995,0.0029920528,0.00023183600000000013,-0.00040038759999999987,-0.0017989768000000001,4.88,0,0
0.0012329727999999991,0.0031307648,-0.001784842,0.0005127364000000001,-0.0005162567999999999,4.881,0,0
-0.0009020332000000003,0.0023849448000000002,0.0003636859999999998,0.0008887306000000001,0.0009184272000000002,4.882,0,0
-0.0032161932000000005,-0.00043032119999999996,0.003639988,0.0017258772000000003,0.0018462092000000002,4.883,0,0
-0.003384934440000001,-0.00259324,0.004960326,0.0026905920000000003,0.0021455372000000004,4.884,0,0
-0.00121733444,-0.003931188,0.004580364,0.0030883940000000004,0.0020922992000000002,4.885,0,0
7.452356000000004e-05,-0.006166854,0.0031661960000000005,0.003103752,0.0018189932,4.886,0,0
0.00069585556,-0.008239936,0.00024310399999999985,0.0026707872,0.0013013342600000002,4.887,0,0
0.00196779556,-0.008124784,-0.0028104700000000002,0.0016337092,0.00078950106,4.888,0,0
0.002291884,-0.006633692,-0.0033917800000000005,0.0002510152,0.0004724190600000001,4.889,0,0
0.0015450462,-0.005176618,-0.0017184460000000004,-0.0012629607999999999,-0.00021053494,4.89,0,0
0.001101148,-0.0037999862000000005,0.0006440199999999997,-0.0026075668,-0.00084632694,4.891,0,0
0.00078161502,-0.0021368641999999997,0.0019626682,-0.0033828459999999997,-0.0013957820000000001,4.892,0,0
-0.00030659098,-0.0005519262,0.0020182082,-0.003417532,-0.0021351328000000004,4.893,0,0
-0.0013847029800000002,0.0007050938,0.0015338201999999998,-0.0030562562,-0.002254822,4.894,0,0
-0.00161191118,0.0020821598000000004,0.0001850281999999999,-0.0023099142,-0.0019001226000000004,4.895,0,0
-0.00187751498,0.00310783,-0.0009917294,-0.0011364282,-0.0014994214,4.896,0,0
-0.002361022,0.0034418140000000005,-0.0003707656,0.0001268178000000001,-0.0005161134000000003,4.897,0,0
-0.002349824,0.0038065480000000007,0.0010484964,0.0012191358,0.0007271586000000001,4.898,0,0
-0.001960246,0.004076356000000001,0.0021003984000000004,0.0021415360000000003,0.0014675026,4.899,0,0
-0.0016677898,0.003953058000000001,0.0028899004000000005,0.0026468840000000004,0.0019683972,4.9,0,0
-0.0010305677999999999,0.004066898,0.0030609676000000006,0.00313274,0.0021966639999999996,4.901,0,0
0.00013598020000000002,0.004313984,0.0025365036000000005,0.00323522,0.002062018,4.902,0,0
0.0009861502,0.0035762338,0.0018938216000000004,0.0023566038,0.001741764,4.903,0,0
0.0016293222000000002,0.0024004118,0.0008277496,0.0015050032,0.0013947075999999998,4.904,0,0
0.002352244,0.0016008773999999998,-0.0011370164,0.0005041972000000002,0.0010575576,4.905,0,0
0.0023392340000000004,0.000546119104,-0.003141484,-0.0009728108000000001,0.0005460516,4.906,0,0
0.0017077196,-0.000701420896,-0.004972634,-0.0020743968,-0.0001775324,4.907,0,0
0.0013271342,-0.000512734696,-0.006666408,-0.0025533946000000003,-0.0006600324,4.908,0,0
0.0009373787999999999,0.000968521304,-0.007698086,-0.003210626,-0.0010539520000000001,4.909,0,0
-6.274320000000005e-05,0.002517209704,-0.00713986,-0.0034807200000000005,-0.0015605760000000002,4.91,0,0
-0.0009594992,0.004261952,-0.0051314130000000005,-0.0028278939999999996,-0.001557714,4.911,0,0
-0.0012897348,0.0052598,-0.0031696170000000004,-0.0020506479999999995,-0.0012979616000000002,4.912,0,0
-0.0016869413999999999,0.005298278,-0.0011951250000000004,-0.0011427420000000004,-0.0009731850000000001,4.913,0,0
-0.001838498,0.003876514,0.000995457,7.567399999999986e-05,-8.397299999999999e-05,4.914,0,0
-0.0013520782000000001,0.0006969879999999995,0.0023791669999999997,0.0014076240000000001,0.000799725,4.915,0,0
-0.0008054382,-0.0029273700000000003,0.003039344,0.002174084,0.0011320762000000002,4.916,0,0
-0.000697055,-0.005362114,0.004160408000000001,0.0026484920000000006,0.0014553648,4.917,0,0
-0.00015344500000000005,-0.0063293160000000015,0.004584802,0.0030772840000000004,0.0016009982,4.918,0,0
0.000864423,-0.006095904800000001,0.0036130076000000003,0.002833848,0.0009596102000000001,4.919,0,0
0.0013321592000000001,-0.0042698242,0.0028666596000000003,0.0023468758000000007,0.00018362819999999998,4.92,0,0
0.0019349152000000002,-0.0020010222,0.0018454126000000003,0.0015696354000000001,3.715139999999997e-05,4.921,0,0
0.0026869680000000005,-1.8801999999999621e-06,-0.0004433454,0.00010082739999999987,-0.00021877600000000003,4.922,0,0
0.0025938940000000007,0.0008987158000000001,-0.0025648334000000004,-0.0015667386,-0.0009512240000000001,4.923,0,0
0.0018841514,0.0011073444,-0.003918405000000001,-0.0029374386,-0.00166066,4.924,0,0
0.0012163976000000003,0.0011783258,-0.005557935000000001,-0.0039511764,-0.00212443,4.925,0,0
0.0002027356,0.0004439218,-0.006958218,-0.004360478,-0.0025613404,4.926,0,0
-0.0012955084,-0.0009910242000000001,-0.006913206000000001,-0.0036617209999999997,-0.0025854422000000004,4.927,0,0
-0.0022772024,-0.0022364262,-0.0056496338000000005,-0.0021367750000000005,-0.0016888782000000003,4.928,0,0
-0.0027369978,-0.002810948,-0.0033774918,-0.00038299700000000005,-0.0004687322000000001,4.929,0,0
-0.0029034280000000004,-0.0031567212,0.00016308220000000023,0.001270793,0.0008405498000000002,4.93,0,0
-0.0024096280000000005,-0.0025647692,0.0036970642,0.0026451550000000006,0.0020445958,4.931,0,0
-0.0013601156,-0.0010414971999999998,0.006592426199999999,0.003372306,0.002539416,4.932,0,0
-0.0006358641999999999,0.0005316988,0.008737104,0.003234416,0.0024894640000000003,4.933,0,0
-0.00018211080000000006,0.0016713048000000002,0.009136226,0.003032188,0.002494734,4.934,0,0
0.0007021792000000001,0.0021617280000000003,0.007917836000000001,0.002650968,0.00226348,4.935,0,0
0.0011413892,0.00230641,0.005846085400000001,0.0018613625999999999,0.0013234260000000002,4.936,0,0
0.0012764448000000001,0.0026891300000000005,0.0033581873999999996,0.0012353556,0.00031955800000000006,4.937,0,0
0.0019135374000000004,0.0028649640000000002,0.0006269854,0.0005242476,-0.00024087200000000007,4.938,0,0
0.0023058560000000002,0.002421832,-0.0015770666,-0.0002665184,-0.000950526,4.939,0,0
0.001965348,0.001464312,-0.0032012626,-0.0010332484000000002,-0.0017171940000000002,4.94,0,0
0.0013648704000000002,-4.5000000000014646e-07,-0.004110972,-0.0018208170000000002,-0.001930546,4.941,0,0
0.0004555764000000002,-0.001485714,-0.00468609,-0.002678202,-0.0018684600000000002,4.942,0,0
-0.0007329636000000001,-0.0025625220000000002,-0.005100012000000001,-0.0029195080000000003,-0.0023813799999999998,4.943,0,0
-0.0020217696,-0.0027496918,-0.004190355800000001,-0.0024353776000000005,-0.0027431160000000003,4.944,0,0
-0.0029224616,-0.0022120015999999997,-0.0027380478,-0.0019082628000000003,-0.0020240880000000003,4.945,0,0
-0.0028724985999999996,-0.0009154836,-0.0013122638,-0.0010333346000000003,-0.0011022839999999998,4.946,0,0
-0.0025826246,0.0002743404,0.0004349721999999999,0.00031927940000000003,-0.00013216599999999997,4.947,0,0
-0.0021244342,-1.5771600000000024e-05,0.0022833242,0.0014007594,0.001050544,4.948,0,0
-0.0010294102000000002,-0.0006693938,0.003200388,0.0017469369999999998,0.001917208,4.949,0,0
-0.00012582020000000003,-0.0005660153999999999,0.003679038,0.0021798622,0.00211975,4.95,0,0
0.0003114223999999999,-0.0005157094,0.0044114720000000005,0.0023600599999999998,0.00233462,4.951,0,0
0.0014342144,-0.0006700393999999998,0.004316824,0.0019626926,0.00269059,4.952,0,0
0.0022162700000000002,4.872080000000009e-05,0.0038142500000000004,0.0017000026,0.002694162,4.953,0,0
0.0022943160000000002,0.0009614588,0.0032882480000000006,0.001216443,0.0025345856,4.954,0,0
0.00259973,0.0011662782,0.002208692000000001,0.00042339100000000007,0.0019960832,4.955,0,0
0.0022324586000000003,0.0009373256000000002,0.0006754480000000002,-0.00022216100000000002,0.0007677732,4.956,0,0
0.0011531905999999999,0.0005100736,-0.0009830820000000001,-0.0010872216,-0.0009776968,4.957,0,0
0.0001417646,0.0003317264000000001,-0.0026350920000000003,-0.0022434056,-0.0025902868,4.958,0,0
-0.0007530534000000002,-0.00034837560000000004,-0.004180758,-0.0030753020000000002,-0.0036273483999999996,4.959,0,0
-0.0018397974000000004,-0.0012813056000000001,-0.005192354000000001,-0.00347246,-0.0043265940000000004,4.96,0,0
-0.0018895374000000003,-0.0011873368,-0.005729430000000001,-0.0030505522,-0.0041989539999999995,4.961,0,0
-0.0008220174000000001,-0.0004810788000000001,-0.006168606,-0.0017455442,-0.0032797743999999998,4.962,0,0
-1.9633400000000157e-05,0.0005042782,-0.006096580000000001,-0.00017155420000000005,-0.0023902384,4.963,0,0
0.0007179432000000001,0.0019303362,-0.005052436,0.0014260058,-0.0011148224,4.964,0,0
0.0013283694000000004,0.0032499482,-0.0026169240000000005,0.0027285698000000004,0.0004782355999999999,4.965,0,0
0.0014436576800000002,0.004056462,0.00011914399999999985,0.003257092,0.0017331836,4.966,0,0
0.0007309598800000002,0.004452772,0.0027048840000000003,0.0031640360000000003,0.002536566,4.967,0,0
0.00011158587999999999,0.0036608422,0.004783506000000001,0.0028644940000000004,0.0032828680000000004,4.968,0,0
-5.059466000000003e-05,0.0024123962000000003,0.004389968000000001,0.0023539578,0.003719286,4.969,0,0
-8.144405999999999e-05,0.0018042688000000002,0.0018102720000000008,0.0015835996,0.0034652920000000005,4.97,0,0
6.286045999999998e-05,0.0005151108,-0.001035488,0.0005049636000000002,0.0029808000000000005,4.971,0,0
-2.095894000000001e-05,-0.00031210419999999997,-0.002668254,-0.0005531824000000001,0.002391326,4.972,0,0
0.00011737346000000002,0.0010159936,-0.0026561899999999997,-0.0014911683999999999,0.0013926720000000002,4.973,0,0
2.1497600000000002e-05,0.0013417122000000002,-8.578799999999984e-05,-0.0026413642000000003,-7.118199999999982e-05,4.974,0,0
0.00012788439999999998,-0.0005520364,0.003062084,-0.003287366,-0.0014639520000000001,4.975,0,0
0.000315951,-0.0020296704,0.0042425164,-0.003510478,-0.00291785,4.976,0,0
1.1628200000000032e-05,-0.0030636834000000003,0.0041330384000000005,-0.0035460920000000003,-0.004089664,4.977,0,0
-0.00020559219999999995,-0.0043727794,0.0027515804,-0.0028859906000000004,-0.004022932,4.978,0,0
-0.0006986064,-0.0044887472,0.00046836839999999996,-0.0018626978000000002,-0.0033303834000000003,4.979,0,0
-0.001355636,-0.0038282232000000005,-0.00044068959999999996,-0.0007250198000000002,-0.002426758,4.98,0,0
-0.0018943364,-0.005043647200000001,0.002156934,0.0006724001999999999,-0.0007093119999999999,4.981,0,0
-0.0020822084,-0.006707825200000001,0.006458572,0.0019662702,0.0013748700000000003,4.982,0,0
-0.0020232083999999996,-0.0069796322000000004,0.009520814,0.0027262168000000003,0.0026364220000000002,4.983,0,0
-0.0016290802,-0.006821451000000001,0.01075093,0.0033650940000000003,0.0033939394,4.984,0,0
-0.0007827322,-0.005063553000000001,0.0099301738,0.0034454900000000003,0.004352332,4.985,0,0
0.00032847219999999997,0.0004505469999999999,0.0058263498,0.003115652,0.004374356000000001,4.986,0,0
0.0016657482,0.007556007,-0.0005004302000000001,0.0026014212000000005,0.0034585914000000006,4.987,0,0
0.0031206962,0.011381756,-0.007211830200000001,0.0015149548,0.0027729606000000003,4.988,0,0
0.004411094000000001,0.011482548,-0.0139829122,0.0005312267999999999,0.0017132786000000001,4.989,0,0
0.004548336000000001,0.009393794,-0.018978544,-0.0006443992,-0.0001678894000000001,4.99,0,0
0.0034645492,0.004950151999999999,-0.021610760000000003,-0.0019985132,-0.0019061314,4.991,0,0
0.0017664091999999997,-0.0014006660000000003,-0.02185236,-0.0030361644,-0.0031418628000000003,4.992,0,0
-0.0004901228000000002,-0.0055641020000000005,-0.018275644,-0.0036855819999999997,-0.004402264,4.993,0,0
-0.0024679568,-0.005339596,-0.010754378,-0.00371431,-0.005015982,4.994,0,0
-0.0036087088000000007,-0.004499854,-0.002190138,-0.003281248,-0.0043783304,4.995,0,0
-0.004284866000000001,-0.00408359,0.005932962,-0.0023403060000000003,-0.0032377602,4.996,0,0
-0.0042066379999999995,-0.0026845160000000005,0.013353002,-0.000689344,-0.0020987324000000004,4.997,0,0
-0.0033484672,-0.001987831,0.018218786,0.0010812180000000001,-0.0005763863999999998,4.998,0,0
-0.0024310106,-0.0031127130000000005,0.02012654,0.00225551,0.0009451996000000001,4.999,0,0
-0.0017984046,-0.0030385290000000003,0.01922588,0.003210134,0.001784318,5.0,0,0
-0.0006208226,-0.0011429790000000001,0.016564876,0.003791626,0.0024949958,5.001,0,0
0.0011678154000000001,-8.452099999999984e-05,0.012581976,0.00332547,0.003277654,5.002,0,0
0.0018583086000000001,4.0496000000000054e-05,0.008073355,0.00239969974,0.00356775,5.003,0,0
0.0019872562000000002,0.00061541,0.004403925000000001,0.00122230174,0.0033362360000000002,5.004,0,0
0.0026399182,0.0016846919999999998,0.001292339,-2.1198259999999987e-05,0.003103148,5.005,0,0
0.0027048342,0.0021223500000000003,-0.0014591870000000002,-0.00107764026,0.0025093568,5.006,0,0
0.0020551302,0.0023668900000000004,-0.0034997130000000006,-0.0020916502600000003,0.0011451388000000002,5.007,0,0
0.0017053989999999998,0.0030869680000000007,-0.0049640560000000005,-0.0028786320000000003,-0.00018983720000000006,5.008,0,0
0.0015829302,0.0042327120000000005,-0.007270826,-0.0034451740000000005,-0.0014559832000000002,5.009,0,0
0.0008092606,0.0044694520000000005,-0.00922112,-0.0034346460000000004,-0.0033351692,5.01,0,0
-0.00013488940000000004,0.0033733419999999997,-0.009615202000000002,-0.0026843160000000004,-0.00452158,5.011,0,0
-0.0006810194000000001,0.0026040598000000004,-0.009198762000000001,-0.001704614,-0.0044308,5.012,0,0
-0.0011972042,0.0024007238000000003,-0.0075976132,-0.000543836,-0.0041344039999999995,5.013,0,0
-0.0016563936000000001,0.0018783098000000002,-0.004921783199999999,0.001082324,-0.0029348800000000004,5.014,0,0
-0.0016107266,0.0007209778000000001,-0.0021523291999999998,0.002239006,-0.0005873839999999999,5.015,0,0
-0.0011920738000000001,-9.613619999999999e-05,0.00040028679999999986,0.002508812,0.001219854,5.016,0,0
-0.0011960338,-0.0003560019999999999,0.0026169688,0.0027244160000000003,0.0024799,5.017,0,0
-0.0007120514000000001,-0.0007090960000000002,0.0033783320000000004,0.002718308,0.0038076119999999997,5.018,0,0
0.0003689945999999999,-0.0016552660000000003,0.0028124440000000003,0.002187786,0.004067612,5.019,0,0
0.0008333271999999999,-0.002046562,0.00150868,0.0015507428000000002,0.003463358,5.02,0,0
0.0013613204,-0.0017783,-0.0008030100000000003,0.0008451208,0.0028429724000000006,5.021,0,0
0.0023417184,-0.0025094680000000004,-0.0033773280000000006,-0.0002155412000000001,0.0019691088,5.022,0,0
0.002646326,-0.003940164,-0.004923716000000001,-0.0013435392,0.0005304628000000003,5.023,0,0
0.0019965892,-0.004749616,-0.004933136,-0.0022166172000000002,-0.0008204811999999999,5.024,0,0
0.0013178552000000002,-0.00440628,-0.0035428100000000004,-0.002738198,-0.0016470612,5.025,0,0
0.0004938392000000001,-0.0035231642,-0.0014054520000000002,-0.0029477139999999997,-0.0024385056,5.026,0,0
-0.0006856048,-0.0024098497999999998,0.00048289800000000005,-0.0025228994,-0.0031041460000000003,5.027,0,0
-0.0015885708000000001,-0.0008557698,0.0019184760000000001,-0.0016123846000000001,-0.003151926,5.028,0,0
-0.002109066,0.0011626382,0.00285678,-0.0008473067999999998,-0.002629326,5.029,0,0
-0.00237658,0.0026279042,0.003249318,0.00016287520000000006,-0.0019057745999999996,5.03,0,0
-0.002313314,0.0037808584,0.0031452919999999996,0.0013436912000000002,-0.0006958246,5.031,0,0
-0.001977958,0.004904266,0.0026840286,0.0022711446000000003,0.00047339340000000004,5.032,0,0
-0.0016930778,0.005537378,0.0023337866000000002,0.0029168938,0.0013530854,5.033,0,0
-0.0012789657999999998,0.005369878000000001,0.0019565486,0.0035751640000000005,0.0018939574,5.034,0,0
-0.00010655779999999991,0.003997622,0.0015594146,0.00373272,0.001934958,5.035,0,0
0.0008717162000000001,0.002022022,0.0017139786000000003,0.0030787128,0.0016258120000000001,5.036,0,0
0.0013258382000000003,-0.00015532000000000013,0.002205362,0.0022871128000000003,0.001101767,5.037,0,0
0.0022936020000000005,-0.002143256,0.0017951786000000001,0.0010631148,0.0008625588000000001,5.038,0,0
0.0029949420000000004,-0.0036434180000000003,0.0007842186000000001,-0.0003662192000000001,0.0005305188000000001,5.039,0,0
0.0026382059999999997,-0.003751004,-0.00021683139999999993,-0.0015681712000000002,-0.00021186519999999995,5.04,0,0
0.0019393286000000001,-0.0025981059999999998,-0.0018239614000000002,-0.0024956040000000002,-0.0014113352000000002,5.041,0,0
0.0014190996,-0.0017580565999999998,-0.0031688274,-0.0033265000000000005,-0.0023566662000000004,5.042,0,0
0.0003796216,-0.0016685626,-0.0034797739999999997,-0.0037146820000000004,-0.0034604839999999998,5.043,0,0
-0.0012569024,-0.0011045666000000002,-0.003263194,-0.0031330010000000003,-0.004518478,5.044,0,0
-0.0022900944000000005,-0.00024121260000000002,-0.0030890940000000006,-0.0024109972000000003,-0.004082903200000001,5.045,0,0
-0.002748553,0.00023747739999999996,-0.0024521660000000004,-0.001580286,-0.0028987891999999998,5.046,0,0
-0.0032393820000000003,0.0016519580000000002,-0.0012923280000000001,2.2680000000000074e-05,-0.0014465252,5.047,0,0
-0.0027973688000000004,0.0031831940000000003,-0.00016571000000000034,0.0017797,0.0003007647999999999,5.048,0,0
-0.0012771428,0.004163130000000001,0.001206188,0.002717715,0.0019862448,5.049,0,0
-0.0003859790000000001,0.004361348,0.002694358,0.0033532452,0.0027482080000000002,5.05,0,0
-1.7482000000000088e-05,0.00288523,0.004067388,0.003748628,0.003121108,5.051,0,0
0.0007522358000000001,0.0008370599999999999,0.004607814,0.0031168378,0.003383810000000001,5.052,0,0
0.0010680446000000002,-0.0008920540000000002,0.004304098,0.002066173,0.0028634080000000004,5.053,0,0
0.0010546246,-0.002604744,0.003504665032,0.001046602,0.0024029368000000003,5.054,0,0
0.0016503268,-0.003956498,0.0022564968320000003,-0.00025399600000000004,0.0021036028,5.055,0,0
0.0022776278000000002,-0.004366803999999999,0.00046762283200000004,-0.0016499980000000002,0.0014840864,5.056,0,0
0.0022471784,-0.004416458,-0.0018087491679999999,-0.0026912238000000002,0.0005554564,5.057,0,0
0.0017342637999999998,-0.0037393708,-0.003892565168,-0.0036950589999999997,-5.296360000000004e-05,5.058,0,0
0.0009948437999999999,-0.002672937,-0.0053004482,-0.004464728,-0.0006044964000000001,5.059,0,0
-0.00018128220000000007,-0.0017004144,-0.0057847540000000005,-0.0043938499999999995,-0.0013417304,5.06,0,0
-0.0013066082,0.0002241156000000001,-0.0051292812,-0.0038136300000000006,-0.0015248006000000002,5.061,0,0
-0.0020885486,0.0024720516000000005,-0.0034358411999999994,-0.002920952,-0.0011104144,5.062,0,0
-0.0031635140000000005,0.0036323284000000003,-0.0013950412,-0.0015791960000000002,-0.0003176264,5.063,0,0
-0.0038488460000000004,0.0033089126,0.0009486068000000001,-0.0002319720000000001,0.0007922136,5.064,0,0
-0.0033561457800000004,0.0027144280000000005,0.0027478388,0.0009239960000000001,0.0020565756000000004,5.065,0,0
-0.0019859817800000003,0.0020570240000000006,0.0035002980000000006,0.002082996,0.0027285742000000006,5.066,0,0
-0.00039651377999999995,0.0012030720000000001,0.003972344000000001,0.00281906,0.0029236460000000002,5.067,0,0
0.0013709102200000001,0.0010477360000000003,0.0045333299999999995,0.0033423840000000008,0.002960278,5.068,0,0
0.00301768622,0.0009023600000000003,0.004126342,0.0032249860000000004,0.0023703646000000004,5.069,0,0
0.003504306,0.0002482580000000001,0.0030526032,0.0025510628000000005,0.0014222992,5.07,0,0
0.00317246,-0.0005296479999999996,0.0019594672,0.0016699048,0.0008895052000000002,5.071,0,0
0.002470758,-0.0018987,5.255519999999999e-05,0.00020214479999999997,0.0005336516000000002,5.072,0,0
0.0015443380000000001,-0.00353033,-0.0019094068,-0.0011492192,-0.0003698144,5.073,0,0
0.0005896200000000002,-0.00377108,-0.0040025408,-0.0021108952000000003,-0.0014358510000000001,5.074,0,0
-0.00023455,-0.003092608,-0.0063246000000000005,-0.0027737120000000002,-0.0021550296000000004,5.075,0,0
-0.0010976900000000001,-0.002185706,-0.00869012,-0.0028541968000000005,-0.0029270756,5.076,0,0
-0.0020252720000000003,-0.000632812,-0.009656448,-0.001970627,-0.003955298,5.077,0,0
-0.002051362,0.0002449234000000002,-0.008882608,-0.000807835,-0.003906796,5.078,0,0
-0.001121992,0.0005626234000000001,-0.006305952,0.000553229,-0.0028867458,5.079,0,0
-0.00028188400000000015,0.0014119594,-0.0009928519999999998,0.001969325,-0.0020485928,5.08,0,0
0.0003003696,0.0016064474000000001,0.004964008000000001,0.0027496678,-0.0007239148000000001,5.081,0,0
0.0010763534000000003,0.0009555294000000001,0.009463168000000001,0.0033280100000000006,0.0012031992000000001,5.082,0,0
0.0013108700000000002,0.0014083900000000002,0.011797292000000001,0.0032753840000000005,0.0022312692,5.083,0,0
0.0007793968000000001,0.0032351280000000003,0.012238642000000001,0.0028737200000000006,0.0019966918,5.084,0,0
0.0005057148,0.004657296,0.010122662000000001,0.002812696,0.0017582776,5.085,0,0
0.0009125432000000001,0.0062404439999999995,0.006472246,0.0024355580000000004,0.0013978048000000002,5.086,0,0
0.0014100214000000002,0.008624872,0.0031846199999999996,0.0017522940000000002,0.0005706716,5.087,0,0
0.0013627688000000002,0.008585492000000002,0.00015349400000000055,0.0011560520000000003,-0.00017952240000000002,5.088,0,0
0.0009079840000000001,0.004316346000000001,-0.00306769,0.0001580860000000001,-0.0005574652000000001,5.089,0,0
0.0005213268000000002,-0.0015106159999999985,-0.005569688,-0.0013002820000000003,-0.000910402,5.09,0,0
0.0001441492,-0.0071812560000000004,-0.005931588,-0.00227127,-0.0017228132,5.091,0,0
-0.0005861728,-0.012000436000000001,-0.0054105080000000005,-0.0029049760000000005,-0.002731094,5.092,0,0
-0.0011169688000000001,-0.013835576000000002,-0.0045240896000000004,-0.003267494,-0.003548174,5.093,0,0
-0.0011776308,-0.012283628000000001,-0.0023332675999999998,-0.00278409,-0.003971822,5.094,0,0
-0.0012367036,-0.008559564000000002,0.0001029983999999999,-0.002045868,-0.003806402,5.095,0,0
-0.0015319907999999998,-0.004141252,0.0016548904000000001,-0.0011348448,-0.0031243842,5.096,0,0
-0.0018851388,0.0001867479999999996,0.0025919344000000003,0.00011589320000000001,-0.0019628682,5.097,0,0
-0.0018973088000000002,0.004324984,0.003063,0.0013652752,-0.0002804961999999997,5.098,0,0
-0.0019362008000000002,0.007716636,0.003255432,0.0024481472000000004,0.0014427838000000003,5.099,0,0
-0.0023233168,0.008841162,0.0031471820000000005,0.0030328592000000002,0.0025828938,5.1,0,0
-0.0026910080000000004,0.006802256000000001,0.0032724100000000003,0.0030897740000000004,0.00347538,5.101,0,0
-0.0019929636,0.0024003760000000005,0.00335858,0.0024571558,0.0042573820000000005,5.102,0,0
-0.0006787456,-0.0017962360000000003,0.003172112,0.0014024358000000003,0.004080762000000001,5.103,0,0
0.0001887964,-0.0038970470000000007,0.0027139644,0.000552844,0.0035145417999999998,5.104,0,0
0.0017018184000000003,-0.004698990000000001,0.0015256583999999998,-0.00017541800000000002,0.0028129436000000002,5.105,0,0
0.0032472844,-0.0032388240000000004,-1.0335600000000084e-05,-0.000935972,0.0016344016000000004,5.106,0,0
0.003493598,8.105399999999989e-05,-0.0022119576,-0.0016470358,0.0004842054,5.107,0,0
0.002996005,0.001719694,-0.0047201076000000005,-0.0021270638,-0.0006031906,5.108,0,0
0.0026754262,0.0008786810000000001,-0.0068620320000000005,-0.0030744580000000004,-0.0017770124,5.109,0,0
0.0018126492,0.000127182,-0.008222632,-0.003814624,-0.0027001842,5.11,0,0
0.00019733119999999988,-0.00022502739999999996,-0.009058150000000001,-0.0035402460000000004,-0.0032570682,5.111,0,0
-0.0010071048000000003,-0.0008246454000000001,-0.008727584,-0.003076694,-0.0037152380000000005,5.112,0,0
-0.0019876438,8.73785999999997e-05,-0.007327098,-0.002258843,-0.0033363474000000005,5.113,0,0
-0.0025723830000000006,0.0016438385999999997,-0.005128908,-0.000680761,-0.0019585134000000004,5.114,0,0
-0.002713356,0.0022339464,-0.0020194460000000003,0.0009123430000000001,-0.00038847939999999987,5.115,0,0
-0.002076343,0.002393296,-0.00043492239999999983,0.0018970810000000001,0.0012981066,5.116,0,0
-0.0012425266,0.0023474480000000002,0.00030232359999999995,0.0028107310000000003,0.0028567546000000006,5.117,0,0
-0.0005693144,0.0013486919999999999,0.0020625776,0.0031187900000000006,0.004081824,5.118,0,0
0.0003057096,1.1425999999999928e-05,0.0035806616,0.0026349092,0.004956556000000001,5.119,0,0
0.0008035156000000001,-0.00021246980000000007,0.0039355276000000005,0.0019061014,0.00476215,5.12,0,0
0.0013148146000000003,0.0003313259999999999,0.005331444,0.0010281013999999997,0.003956143200000001,5.121,0,0
0.0019625262,0.0003001099999999999,0.007345956000000001,4.943139999999998e-05,0.0033270292,5.122,0,0
0.002485824,-0.00095257,0.0080392,-0.0011103666,0.0021137258000000006,5.123,0,0
0.0022112944,-0.0021758640000000004,0.00790509,-0.0021946778,3.597380000000007e-05,5.124,0,0
0.0019695708,-0.0029406740000000003,0.006629690000000001,-0.00325433,-0.0015685302,5.125,0,0
0.0019796188,-0.0036476208,0.0049577804,-0.00401241,-0.0028585734000000002,5.126,0,0
0.0013856236,-0.0029754268000000005,0.0035621116,-0.004096326,-0.0046268654,5.127,0,0
0.0009770796,-0.0002960527999999996,0.0021238766,-0.0036880360000000004,-0.005528194,5.128,0,0
0.0010466932,0.0030756892000000004,0.0006446888000000001,-0.0029011972000000004,-0.005262946,5.129,0,0
0.0006353647999999999,0.0061657992000000005,0.0005558468,-0.0014976332,-0.004426844,5.13,0,0
-0.00045845320000000006,0.009063278000000001,0.0011678064,9.229479999999998e-05,-0.0029374479999999996,5.131,0,0
-0.0009861000000000002,0.009998108,0.0007895444,0.0023843008,-0.0006711700000000001,5.132,0,0
-0.0015678980000000003,0.007476138000000001,-0.0005074746000000002,0.0057971928,0.0012121319999999999,5.133,0,0
-0.002354782,0.004371282000000001,-0.0030305908000000004,0.00866743,0.002402436,5.134,0,0
-0.0022539852,0.0024081646000000006,-0.0060908888,0.010505882000000001,0.00357699,5.135,0,0
-0.0016885814200000003,-0.00013690340000000026,-0.0089504308,0.010931982,0.0041679180000000005,5.136,0,0
-0.0008946894199999999,-0.0029646074000000003,-0.01066143,0.009149116200000001,0.004147364,5.137,0,0
0.00050699058,-0.0045921274,-0.011226347999999999,0.0056097002000000005,0.003840252,5.138,0,0
0.00194064458,-0.0053054894,-0.010565315999999998,0.0014002702000000004,0.0032442774000000004,5.139,0,0
0.00247232978,-0.005810948,-0.008837887999999999,-0.0027864298,0.0020260294000000005,5.14,0,0
0.0024808786,-0.006756473999999999,-0.00700131,-0.0063006078,0.0001834794000000002,5.141,0,0
0.0021323465999999996,-0.007665745999999999,-0.0049099688,-0.008626486,-0.0020839326,5.142,0,0
0.0008987645999999998,-0.006661292,-0.0016438228000000004,-0.010211950000000001,-0.003998002600000001,5.143,0,0
-0.0005679074,-0.004871324,0.0032073852000000006,-0.01051855,-0.005183622,5.144,0,0
-0.0015024294000000001,-0.00441137286,0.007774517200000001,-0.009571902000000002,-0.005552068,5.145,0,0
-0.0022296060000000003,-0.0036058458600000004,0.0109773192,-0.007935726,-0.004446727199999999,5.146,0,0
-0.0028512660000000003,-0.0015394638600000003,0.012672928,-0.005568051199999999,-0.0023175392,5.147,0,0
-0.0029511140000000003,0.0005316061400000001,0.012229734,-0.0031170272,4.260479999999996e-05,5.148,0,0
-0.0023623705400000004,0.00160217214,0.009843154000000002,-0.0008483392,0.0019499928,5.149,0,0
-0.0017721225400000001,0.0019341690000000001,0.007095276000000002,0.0012807048,0.0032459208000000005,5.15,0,0
-0.0014669545400000001,0.002192514,0.005257396000000001,0.0033249928,0.00393178,5.151,0,0
-0.00102070214,0.0018243038,0.004171856,0.004589248000000001,0.0038199080000000003,5.152,0,0
-0.00046861334000000004,0.001127897,0.003319546,0.004954858,0.003234446,5.153,0,0
-0.0004641759,0.0002206489999999999,0.0024016918,0.0049915720000000005,0.0027471220000000003,5.154,0,0
-0.00034783549999999996,-0.000811941,0.0011268137999999998,0.004102717600000001,0.0022022242,5.155,0,0
0.00044221449999999997,-0.0005867890000000002,-0.0008228822000000003,0.0023791716,0.0011141661999999998,5.156,0,0
0.0006523265,0.00043116719999999995,-0.0030020142,0.0007450919999999999,-0.0001947378,5.157,0,0
0.0010451737000000002,0.001220016,-0.004596446200000001,-0.00029251399999999996,-0.0014111637999999998,5.158,0,0
0.0024226368,0.003025882,-0.005916142,-0.0009181050000000001,-0.0023831658,5.159,0,0
0.0032315664,0.005359190000000001,-0.007036566,-0.0011049398,-0.0033791739999999995,5.16,0,0
0.002688499,0.004994632,-0.006798752000000001,-0.0007500236,-0.00396205,5.161,0,0
0.0021118066,0.002986562,-0.005483210800000001,-0.0003398,-0.0034456939999999996,5.162,0,0
0.0010651586000000003,0.0019240219999999998,-0.0038197128000000006,0.00036528400000000006,-0.0027883826,5.163,0,0
-0.0011988994,0.0002173438,-0.0015835368000000002,0.001174033,-0.0018126445999999997,5.164,0,0
-0.0027740354000000004,-0.0018797962,0.0011252832,0.0017104202,-0.0002137806,5.165,0,0
-0.0028075248000000003,-0.0020057796000000003,0.0033181732000000003,0.0023213360000000002,0.0011549213999999999,5.166,0,0
-0.0022889848000000003,-0.00034568359999999983,0.0042729280000000005,0.0026184560000000003,0.0019811894,5.167,0,0
-0.001766673,0.0012103104000000002,0.004307558,0.0023537166000000003,0.0024985800000000002,5.168,0,0
-0.0005113530000000001,0.0024266546,0.002643492,0.0017986458000000002,0.002773668,5.169,0,0
0.000770161,0.0032424886,-0.0009265079999999999,0.0013295172000000002,0.0021878626,5.17,0,0
0.0015922138000000001,0.00254426,-0.005075396000000001,0.0006986240000000001,0.0012993886,5.171,0,0
0.0025170818000000003,0.0018453577999999998,-0.009237210000000001,-0.00020226799999999997,0.0008191232,5.172,0,0
0.0032375020000000006,0.0006428634,-0.012363220000000001,-0.0008617886,0.0002273292,5.173,0,0
0.0032969760000000005,-0.0023565366,-0.012974838,-0.0015514598,-0.0007870548000000001,5.174,0,0
0.0028291160000000004,-0.0029545266,-0.010889856,-0.0022312412,-0.0012098894000000002,5.175,0,0
0.00198998,0.0004224134000000005,-0.006788213999999999,-0.002805746,-0.0013138094000000001,5.176,0,0
0.00025683200000000013,0.0038460376000000007,-0.0008072339999999996,-0.002819938,-0.002134864,5.177,0,0
-0.001463934,0.0050549620000000005,0.004863266,-0.0018906240000000003,-0.002370894,5.178,0,0
-0.0025226800000000002,0.004234404,0.0077709020000000005,-0.0007592460000000001,-0.0020130242,5.179,0,0
-0.003635742,0.00147553,0.008676648,0.0003859759999999999,-0.0014834502000000002,5.18,0,0
-0.004340364,-0.0029133680000000004,0.008139612000000001,0.001503868,-0.00041315420000000006,5.181,0,0
-0.0037233784,-0.00756036,0.006563014000000001,0.002305436,0.0007561338,5.182,0,0
-0.0024032184,-0.009333002000000002,0.005648770000000001,0.0022555,0.0017653178,5.183,0,0
-0.0013961984000000003,-0.0065031002,0.006536092,0.0018011747999999998,0.00235518,5.184,0,0
-0.00012759040000000004,-0.0031678582,0.0076768980000000014,0.0015712248,0.002556256,5.185,0,0
0.0013523676,-0.0017009843999999997,0.0076392660000000005,0.0011007776,0.0021833040000000005,5.186,0,0
0.0018411360000000002,-0.0010977104000000001,0.006879954000000001,0.0004837376,0.0013118340000000002,5.187,0,0
0.0019480559999999999,-0.0015736984000000002,0.005356512,1.732779999999994e-05,0.00038154,5.188,0,0
0.0021993060000000003,-0.0022440722000000002,0.002731102,-0.000634281,-0.0005052640000000001,5.189,0,0
0.002037264,-0.0022205342,-0.00031532999999999995,-0.001662515,-0.0013299079999999999,5.19,0,0
0.001686778,-0.001737754,-0.002747848,-0.0022154458,-0.002080844,5.191,0,0
0.0017362280000000003,-0.0008219159999999998,-0.004802156,-0.0025758778,-0.00233218,5.192,0,0
0.001321515,0.0006262340000000001,-0.006760853999999999,-0.0030657020000000004,-0.0023249020000000002,5.193,0,0
-9.42549999999999e-05,0.0018673640000000003,-0.00749712,-0.002569734,-0.0020170168,5.194,0,0
-0.000996555,0.002960504,-0.006584806,-0.0014281799999999998,-0.0012503288,5.195,0,0
-0.0013880023999999999,0.004677748000000001,-0.004533872,-0.0005344679999999999,-0.0004967488,5.196,0,0
-0.0021409284,0.006667608,-0.0018988280000000004,0.000795776,0.00041656920000000006,5.197,0,0
-0.0023054793999999997,0.007226188000000001,0.0010462759999999998,0.00214784,0.0014068992000000002,5.198,0,0
-0.0014461202,0.0066409862,0.0033611760000000004,0.0025191680000000004,0.0020623020000000002,5.199,0,0
-0.0008169436000000001,0.0053225448000000005,0.003304218,0.002609414,0.0022950640000000003,5.2,0,0
-0.0004301162000000001,0.0024588047999999996,0.0009632079999999997,0.00251119,0.002462464,5.201,0,0
0.0004736558,-0.0006069351999999999,-0.0028375180000000007,0.002127012,0.0023137336000000003,5.202,0,0
0.0009740598,-0.0033563971999999997,-0.007024318,0.0015437780000000002,0.0016035556000000002,5.203,0,0
0.00090766308,-0.005752473399999999,-0.010097984,0.000921636,0.0008537748,5.204,0,0
0.00139230048,-0.006133306,-0.010446812000000001,-0.00014082800000000007,0.00017611580000000002,5.205,0,0
0.00179069048,-0.004311548,-0.007630817999999999,-0.0014431080000000002,-0.0004073382,5.206,0,0
0.0016078824800000002,-0.003140136,-0.0026044980000000002,-0.0022697900000000003,-0.0008450618,5.207,0,0
0.0014110842800000001,-0.002066194,0.002666582,-0.002910942,-0.0011556478000000002,5.208,0,0
0.0012205916,-0.00027348399999999995,0.006057608,-0.0030383240000000002,-0.0014314190000000002,5.209,0,0
0.0006153538000000002,-0.00025110599999999986,0.00780736,-0.0024386776,-0.0019515440000000002,5.21,0,0
-0.0004495342,-0.001088062,0.008411698,-0.0011518242000000001,-0.002281878,5.211,0,0
-0.0011574402,-0.0008859279999999998,0.007262022,-7.773619999999987e-05,-0.0019138510000000003,5.212,0,0
-0.001631346,-6.175218199999986e-05,0.005233494,0.0009460698000000002,-0.0013681118,5.213,0,0
-0.0019832198,0.0002932630180000001,0.004798494,0.0022094718,-0.0005254017999999998,5.214,0,0
-0.001937621,0.00013585301799999994,0.005280024,0.0030485474,0.0009644482000000001,5.215,0,0
-0.0016325776,0.00048055101800000005,0.004978418,0.00333203,0.0020269622000000003,5.216,0,0
-0.001308494,0.0012948030180000001,0.005255442000000001,0.003171574,0.0022868312000000005,5.217,0,0
-0.001255042,0.0007462332000000002,0.005966498000000001,0.00285544,0.0023625079999999997,5.218,0,0
-0.000867687,-0.0007962579999999999,0.005560454000000001,0.0019713739999999997,0.0023018940000000005,5.219,0,0
-0.000287208,-0.0010381579999999997,0.004439646,0.0010053892,0.0017308080000000001,5.22,0,0
0.0003796386,-0.001271716,0.0029587000000000007,0.00020859919999999992,0.001011866,5.221,0,0
0.001192965,-0.0017023680000000001,0.00044146000000000007,-0.0006562328000000001,0.0007532987999999998,5.222,0,0
0.001922349,0.0004718119999999996,-0.002713848,-0.0013706588000000001,0.0005996898000000001,5.223,0,0
0.0022742620000000004,0.004539078,-0.005978708,-0.0020232468000000005,0.0001512406,5.224,0,0
0.001982175,0.007750564000000001,-0.008895712,-0.0025604160000000003,-0.0005114314,5.225,0,0
0.0015202576,0.009075880000000001,-0.009971994,-0.00268363,-0.0005869334,5.226,0,0
0.0001980336,0.00785211,-0.009916530000000002,-0.002497236,-0.0008785342,5.227,0,0
-0.0005130844,0.003395094,-0.0077281186,-0.0013104079999999999,-0.0002940311999999999,5.228,0,0
-0.0015226764000000003,-0.0017887660000000007,-0.002990658600000001,0.0006575120000000001,0.0021100900000000002,5.229,0,0
-0.0020072054,-0.005882024000000001,-0.00040872259999999975,0.001241855,0.003360656,5.23,0,0
0.0010081219999999998,-0.009164100000000001,-0.0013780606000000004,4.9503000000000004e-05,0.0027678840000000004,5.231,0,0
0.003851832,-0.010120542000000003,-0.0034151125999999994,-0.002319561,0.0009462880000000004,5.232,0,0
0.004925034,-0.008211482,-0.006655863999999999,-0.006144249000000001,-0.0030041439999999994,5.233,0,0
0.006002777999999999,-0.005627062,-0.010865623999999999,-0.010376361,-0.008775924000000001,5.234,0,0
0.00526423,-0.0042700458,-0.012153046,-0.012178774,-0.012714572,5.235,0,0
1.871000000000034e-05,-0.0025219574,-0.010028872000000001,-0.010861912,-0.013890160000000002,5.236,0,0
-0.00488625,-6.903540000000041e-05,-0.005439696000000001,-0.007135696,-0.012396510000000001,5.237,0,0
-0.007874252,0.0022468506,0.0002794440000000002,-0.001799756,-0.007917504000000002,5.238,0,0
-0.01025859,0.0040376266,0.005474504,0.004197344,-0.002179824000000001,5.239,0,0
-0.010286874000000001,0.004863442400000001,0.01063409,0.009763492000000002,0.003912096,5.24,0,0
-0.008526084000000001,0.005125402,0.015357616000000001,0.013764296,0.009530676000000002,5.241,0,0
-0.0054146080000000004,0.004290494000000001,0.01888006,0.01598036,0.013763066000000001,5.242,0,0
-0.0019197400000000005,0.003100978,0.02024004,0.01614768,0.01577794,5.243,0,0
0.001800448,0.001880474,0.018408562000000003,0.014328834000000002,0.016067900000000003,5.244,0,0
0.005203122,0.0011990999999999998,0.013331526,0.0106671084,0.014436198,5.245,0,0
0.007938052,0.00180682,0.0065342460000000005,0.005605794400000001,0.010488804000000001,5.246,0,0
0.009823696,0.0030081220000000002,-0.0013167140000000005,-0.00015990560000000032,0.0053037200000000005,5.247,0,0
0.01043853,0.0030642679999999998,-0.009143614000000001,-0.0058232656,-0.0003664800000000006,5.248,0,0
0.009327518000000002,0.0009757519999999997,-0.014331176,-0.0106106796,-0.006225520000000001,5.249,0,0
0.006447903999999999,-0.0016878679999999997,-0.01538486,-0.013735494,-0.011108958000000002,5.25,0,0
0.0030445019999999993,-0.004441301999999999,-0.013750498,-0.01446652,-0.013613784,5.251,0,0
-0.0009285460000000004,-0.005773172399999999,-0.01057369,-0.0130001,-0.014354980000000003,5.252,0,0
-0.004747000000000001,-0.003999508399999999,-0.004959085999999999,-0.008941396,-0.012968818,5.253,0,0
-0.007407436,-0.00015092439999999947,0.0010902940000000001,-0.0023825359999999998,-0.009046498,5.254,0,0
-0.009059182,0.0042902096,0.004628048000000001,0.004661284,-0.0041735539999999995,5.255,0,0
-0.009365312,0.0076243056,0.006204808000000001,0.010735544,0.0009527259999999997,5.256,0,0
-0.008625152,0.008777380000000001,0.007185212000000001,0.015227044,0.006011346000000001,5.257,0,0
-0.007150410000000001,0.0068339136,0.007229920000000001,0.0170099,0.010068884,5.258,0,0
-0.004602034,0.0017495536000000003,0.00707986,0.015740484,0.012482324,5.259,0,0
-0.001172036,-0.0034241404,0.007775108,0.012317212000000001,0.01318868,5.26,0,0
0.0032327960000000005,-0.006189388400000001,0.008362838000000001,0.007221112000000001,0.011854968,5.261,0,0
0.007892704,-0.0069716624,0.006607906,0.0013650520000000003,0.00870376,5.262,0,0
0.011216074,-0.00577223,0.0016224940000000004,-0.004368208,0.004411239999999999,5.263,0,0
0.013264458,-0.002484906,-0.004675886000000001,-0.009975692000000001,-0.0006286800000000006,5.264,0,0
0.01325422,-1.884800000000002e-05,-0.010808888000000001,-0.014531540000000003,-0.00537458,5.265,0,0
0.009490688,-0.00023000400000000002,-0.01605552,-0.017224200000000002,-0.009367628000000001,5.266,0,0
0.0043551779999999995,-0.002055886,-0.01759534,-0.01806142,-0.011972860000000002,5.267,0,0
0.0001329240000000002,-0.00411236,-0.014477414000000001,-0.016883804,-0.01267292,5.268,0,0
-0.0041222360000000005,-0.0045529666,-0.00973794,-0.013646326,-0.012242756,5.269,0,0
-0.007634896,-0.0035365614,-0.004771365999999999,-0.008819786000000001,-0.01034378,5.27,0,0
-0.009177364,-0.00210987472,-3.959600000000014e-05,-0.0030690880000000006,-0.006651502,5.271,0,0
-0.009680307999999999,-0.00046985872,0.0031644340000000007,0.0024498520000000006,-0.0022254400000000004,5.272,0,0
-0.009563516,0.0008712192800000001,0.006081828000000001,0.0074781560000000006,0.0019824200000000004,5.273,0,0
-0.008140322,0.00144231988,0.010058274,0.011712078,0.005941796000000001,5.274,0,0
-0.005739604200000001,0.00132370768,0.013874440000000002,0.013952538,0.009076960000000002,5.275,0,0
-0.0031595081999999993,0.001135954,0.016835950000000002,0.01448892,0.010305466000000001,5.276,0,0
-0.00023587819999999998,0.0009439688,0.01798024,0.013238748,0.010146248,5.277,0,0
0.0025745758000000002,0.0003871223599999999,0.015200621,0.009822582,0.008655854,5.278,0,0
0.0044634138000000005,3.7410159999999994e-05,0.008434121,0.005105562000000001,0.005829242,5.279,0,0
0.0065364360000000005,0.0009915731600000002,-0.00010723899999999943,0.00011050199999999974,0.0024360259999999996,5.28,0,0
0.00885258,0.00212059616,-0.008502039,-0.004736538,-0.0011167039999999998,5.281,0,0
0.00918526,0.0017002473599999999,-0.015020659000000002,-0.008511806,-0.004626148,5.282,0,0
0.007595813000000002,0.0003974537999999999,-0.01840456,-0.0106066,-0.007479934000000001,5.283,0,0
0.005274471000000001,-0.0006229319999999999,-0.01933394,-0.011111022000000002,-0.008882656000000001,5.284,0,0
0.001539729000000001,-0.00097944,-0.01804972,-0.009898714000000001,-0.009347320000000001,5.285,0,0
-0.003211251,0.0001169760000000004,-0.0136887122,-0.007528754,-0.008458808,5.286,0,0
-0.006391859,0.0028811760000000005,-0.0073431322,-0.003911619999999999,-0.005913222000000001,5.287,0,0
-0.007416248,0.005090348000000001,-0.0008840921999999987,0.00012998200000000027,-0.00267869,5.288,0,0
-0.007383116,0.005735174000000001,0.006564667800000001,0.003223786,0.0008284239999999997,5.289,0,0
-0.0059231660000000005,0.006982950000000001,0.013712987800000003,0.005672128,0.0042158560000000005,5.29,0,0
-0.0033419260000000007,0.008555930000000002,0.017011060000000005,0.007373792,0.006892564,5.291,0,0
-0.0008407320000000002,0.00827719,0.016864574,0.007829064,0.008001534000000001,5.292,0,0
0.001084436,0.006886500000000001,0.014314410000000001,0.007295136000000001,0.007982812,5.293,0,0
0.0028881920000000004,0.005201860000000001,0.009141020000000001,0.006142148,0.007270778,5.294,0,0
0.0039282,0.0013779580000000007,0.0028642440000000006,0.0040105240000000006,0.0055203052,5.295,0,0
0.00348594572,-0.005088822000000001,-0.0023195159999999998,0.0011557260000000004,0.0031425512,5.296,0,0
0.00276729488,-0.010312322000000002,-0.00661403,-0.0018856059999999997,0.0007012692000000001,5.297,0,0
0.0018535246800000002,-0.012161574000000001,-0.010282666,-0.004762916,-0.0016871348000000001,5.298,0,0
0.00042586868,-0.012048358,-0.012051556000000001,-0.006663904,-0.0043608608,5.299,0,0
-0.0007984593200000001,-0.010286816,-0.011913304,-0.007257350000000001,-0.006503026,5.3,0,0
-0.00144180304,-0.006933334,-0.010498506000000001,-0.006805586,-0.007452088000000001,5.301,0,0
-0.0021171542,-0.0035445000000000003,-0.007348099999999999,-0.005318691000000001,-0.00756577,5.302,0,0
-0.002728316,-0.0015078759999999998,-0.002383904,-0.0027386069999999997,-0.00673784,5.303,0,0
-0.002969778,-0.00030973400000000004,0.0028094160000000003,8.834100000000024e-05,-0.004768202,5.304,0,0
-0.002945024,0.00047373399999999985,0.00676334,0.002944617,-0.0021110419999999996,5.305,0,0
-0.002406112,0.000553176,0.009545142000000001,0.005584047,0.000712712,5.306,0,0
-0.0014039560000000003,-3.709800000000011e-05,0.010981476000000002,0.007179474,0.003429766,5.307,0,0
-1.6854000000000174e-05,-0.0004887040000000002,0.010678538000000001,0.007816532000000001,0.005645974000000001,5.308,0,0
0.0013722259999999998,-0.0007239859999999999,0.009443762000000001,0.0074487600000000005,0.007084794,5.309,0,0
0.002336658,-0.001095608,0.0071890446000000005,0.0062172700000000004,0.007385018,5.31,0,0
0.0030861700000000005,-0.0008895259999999998,0.0028765445999999997,0.00458949,0.006748276000000001,5.311,0,0
0.0038693820000000006,0.000128456,-0.0033136954,0.0025454659999999997,0.005277564,5.312,0,0
0.004358364,0.0017125719999999999,-0.009476313400000002,-2.8870000000000284e-05,0.003011934,5.313,0,0
0.004310652,0.0025516172000000004,-0.0143513574,-0.0025975460000000005,0.0006722380000000002,5.314,0,0
0.0039420620000000005,0.0019345312000000003,-0.016696700000000002,-0.004660366000000001,-0.0016663600000000002,5.315,0,0
0.0034373912,0.0012976302,-0.0147061686,-0.0063391260000000005,-0.0038777720000000002,5.316,0,0
0.0020573652000000003,0.0012386762,-0.0094392946,-0.006975398,-0.005307132,5.317,0,0
0.0002803832,0.0011089162000000002,-0.0033729306,-0.00630715,-0.00601974,5.318,0,0
-0.0011314248,0.0013543774,0.0021824734,-0.004646896,-0.006047028,5.319,0,0
-0.0024490368,0.0022256714,0.006862453399999999,-0.0025460020000000003,-0.0048833434,5.32,0,0
-0.0034741760000000003,0.0028007444,0.009609402000000001,-0.0006767100000000001,-0.0028070754000000006,5.321,0,0
-0.004365354,0.0029154104,0.010589368000000002,0.0011637940000000001,-0.0003892714000000002,5.322,0,0
-0.004632928,0.0035760364,0.011174524000000002,0.002802024,0.0020283986,5.323,0,0
-0.003918148,0.00499445,0.011075308,0.003930576,0.0040558306,5.324,0,0
-0.0029138000000000007,0.005435138,0.009894134000000002,0.004268732,0.00548593,5.325,0,0
-0.0021129822000000003,0.004899426,0.007784138,0.004360548,0.00570344,5.326,0,0
-0.00036785820000000006,0.00370481,0.005137984,0.004171132,0.0052282660000000005,5.327,0,0
0.0016356918000000002,0.0005379679999999998,0.0019269960000000003,0.0028994466,0.004544454,5.328,0,0
0.0023287818,-0.002843304,-0.0018710920000000004,0.0010284546,0.002965634,5.329,0,0
0.0030691438,-0.00410569,-0.005061678,-0.0007012254,0.00121198,5.33,0,0
0.0036835600000000007,-0.004741702,-0.007202943999999999,-0.0021668914000000004,-0.000498426,5.331,0,0
0.0029189854,-0.004611504400000001,-0.008927750000000002,-0.0035723914000000004,-0.002324784,5.332,0,0
0.0015813787999999999,-0.0023077464,-0.009532312,-0.004302084000000001,-0.0038723159999999998,5.333,0,0
0.00046169879999999997,-4.510439999999983e-05,-0.008247506,-0.004332276,-0.004985380000000001,5.334,0,0
-0.0009181412,0.0010520616000000002,-0.006247298399999999,-0.004082996,-0.005630426000000001,5.335,0,0
-0.0023134032000000004,0.0018437136,-0.0039110344,-0.0033194684,-0.005353368,5.336,0,0
-0.0031722126000000004,0.0021998836,-0.0006098583999999997,-0.0019112544000000004,-0.0041176824,5.337,0,0
-0.0035468600000000006,0.0011648496000000001,0.0025443476000000004,-0.0002510844000000002,-0.0028545154,5.338,0,0
-0.0035466,-0.0006958204,0.0049095576,0.0011889316,-0.0008813234000000002,5.339,0,0
-0.0031421300000000004,-0.0022077784,0.006298864,0.0023500136,0.0014325346,5.34,0,0
-0.002054958,-0.0035070303999999997,0.006574796000000001,0.003027404,0.0031230186,5.341,0,0
-0.0007466440000000001,-0.004486216,0.006237294000000001,0.0031289900000000003,0.004242139000000001,5.342,0,0
4.075800000000006e-05,-0.00396523334,0.004953259800000001,0.0031407500000000003,0.004913574,5.343,0,0
0.0006959900000000001,-0.00222857334,0.0028644358,0.0029890220000000005,0.005259668,5.344,0,0
0.001542636,-0.0010762133399999999,0.0006612498000000001,0.002161562,0.004632044,5.345,0,0
0.002148212,0.00030605066000000017,-0.0015504602000000003,0.0011301520000000006,0.0034082906000000007,5.346,0,0
0.0023750340000000003,0.0014328986600000001,-0.0039005162000000006,4.464600000000029e-05,0.0017695666000000004,5.347,0,0
0.0023440882000000003,0.0013179618000000004,-0.005627130000000001,-0.0015156940000000002,-0.0002083533999999998,5.348,0,0
0.0022441012,0.0010591180000000002,-0.006601934,-0.0029358760000000005,-0.0024233454,5.349,0,0
0.0016181032000000001,0.0007547956000000001,-0.0066826260000000005,-0.0033140440000000004,-0.0041866374,5.35,0,0
0.0006033908000000001,0.00025692160000000006,-0.0055195370000000014,-0.0030924780000000005,-0.004860752,5.351,0,0
-0.00029901919999999994,-0.0001759856,-0.003853299,-0.0029199079999999997,-0.004992444,5.352,0,0
-0.0014291174,-0.0002736654,-0.001595867,-0.002178188,-0.004078336,5.353,0,0
-0.0020658204,-0.00030922099999999993,0.0009299650000000003,-0.0007852680000000001,-0.002673836,5.354,0,0
-0.0018732120000000002,-0.00021361759999999992,0.0028030650000000004,0.00033771799999999987,-0.001612084,5.355,0,0
-0.0014003156000000003,-0.00012136699999999996,0.004156354,0.001349234,-0.00078330448,5.356,0,0
-0.0006932296000000003,-0.00041711980000000003,0.00530003,0.0024428699999999998,0.00025758152000000004,5.357,0,0
0.0005154344000000001,-0.0007832198000000001,0.005758992,0.00296991,0.00124512552,5.358,0,0
0.0016990744000000002,-0.0014414404000000001,0.005686814,0.0029449000000000003,0.0016927055200000002,5.359,0,0
0.002108982,-0.0020179454000000003,0.005490522,0.0027566500000000002,0.00249182152,5.36,0,0
0.002362454,-0.00180531,0.00427250794,0.0022711180000000004,0.003208356,5.361,0,0
0.00271858,-0.0009373660000000002,0.0024524099399999997,0.0016826454,0.003166848,5.362,0,0
0.003002166,0.0006283119999999998,0.00127580794,0.00118838728,0.002698648,5.363,0,0
0.00298054,0.002714666,-1.0168059999999992e-05,0.00043532328,0.0025014940000000004,5.364,0,0
0.0025909479999999996,0.0050230660000000005,-0.00148343606,-0.0005039907200000001,0.002448028,5.365,0,0
0.0016954159999999995,0.006682018,-0.0025624040000000003,-0.0016889107200000002,0.0018620898000000002,5.366,0,0
0.00030271399999999993,0.007143402,-0.0032588,-0.00283024612,0.0010069278,5.367,0,0
-0.00107536,0.0062686912,-0.004426102000000001,-0.0037462,-1.0652199999999952e-05,5.368,0,0
-0.0029076740000000003,0.0038797251999999997,-0.006605448000000001,-0.004391432000000001,-0.0014564941999999999,5.369,0,0
-0.004741964,0.00040473320000000007,-0.009075724,-0.004250072000000001,-0.0031191882,5.37,0,0
-0.005009484000000001,-0.0032887268000000003,-0.011295923999999999,-0.0033749568,-0.0038845779999999996,5.371,0,0
-0.0038964860000000002,-0.005920440800000001,-0.012619082000000002,-0.0022952482000000002,-0.004268396000000001,5.372,0,0
-0.0024735000000000004,-0.00704392,-0.01191215,-0.0011271902000000002,-0.0043462,5.373,0,0
-0.00043670800000000006,-0.006159410000000001,-0.007160870000000001,0.0005944378,-0.0032029876000000002,5.374,0,0
0.0022275260000000005,-0.003456906,8.733000000000005e-05,0.0022111038,-0.0017348756,5.375,0,0
0.004007104000000001,0.00033111199999999994,0.00756859,0.0031459586,-0.0006510435999999998,5.376,0,0
0.004687918,0.00434041,0.01406019,0.003717606,0.0007128224000000002,5.377,0,0
0.005159820000000001,0.006774184000000001,0.01657348,0.004033884000000001,0.0024175124000000003,5.378,0,0
0.004716492,0.0067524360000000005,0.014953832,0.0037310820000000006,0.0032897760000000003,5.379,0,0
0.0033630759999999996,0.00469145,0.011791133999999998,0.002894336,0.003746768,5.38,0,0
0.001760496,0.0013277140000000002,0.008746878,0.0020508716,0.004224826000000001,5.381,0,0
-0.0005636859999999999,-0.002847258,0.005632878000000001,0.0008290156,0.004307364,5.382,0,0
-0.0035869020000000003,-0.006690148000000001,0.00374619,-0.00046066840000000004,0.0037853720000000004,5.383,0,0
-0.006369338,-0.00920062,0.0026398759999999998,-0.0013380884,0.0029403258,5.384,0,0
-0.008655630000000001,-0.010757188,-0.00014478600000000048,-0.0021654244,0.0018529518,5.385,0,0
-0.011085628,-0.011310148,-0.004540290000000001,-0.0027698,0.00033159180000000006,5.386,0,0
-0.012238178,-0.009425456,-0.00895261,-0.002465076,-0.0009508042,5.387,0,0
-0.010908114,-0.004890296000000001,-0.012187362,-0.0020631020000000003,-0.0019699701999999998,5.388,0,0
-0.007856722,0.0010785640000000002,-0.01432702,-0.0019887359999999996,-0.0029782640000000004,5.389,0,0
-0.004093464000000001,0.007506924000000001,-0.01375992,-0.001316507,-0.003937148,5.39,0,0
0.00027267000000000025,0.012423960000000001,-0.009335178000000001,-0.0003650790000000001,-0.004696648,5.391,0,0
0.004226000000000001,0.012834212000000001,-0.003486358,0.0002304530000000001,-0.005459556000000001,5.392,0,0
0.00588267,0.008845980000000002,0.001826262,0.000891817,-0.0062462640000000005,5.393,0,0
0.006552018000000001,0.002950040000000001,0.0066026620000000005,0.0018477190000000003,-0.0062483980000000005,5.394,0,0
0.007344952,-0.0033901,0.009391272,0.0024677120000000004,-0.005272406,5.395,0,0
0.008249098,-0.007423278,0.009110138,0.00298794,-0.0036549200000000007,5.396,0,0
0.009586187999999999,-0.00667312,0.007097374,0.00321553,-0.0013192739999999996,5.397,0,0
0.010737832,-0.002048508,0.004002456000000001,0.0029589286,0.0010354420000000001,5.398,0,0
0.010586502000000001,0.0043767120000000005,0.0006941760000000006,0.0021906308,0.0025304740000000004,5.399,0,0
0.008728384599999998,0.009670292,-0.0005348659999999998,0.0008904927999999999,0.0031965200000000004,5.4,0,0
0.0051805866,0.010811059200000002,-0.00032407400000000015,-0.0003040892,0.003208152,5.401,0,0
0.0006028686000000003,0.009144393200000002,-7.515400000000024e-05,-0.0014898492,0.002675138,5.402,0,0
-0.0031399393999999997,0.005768995200000002,0.0008944276,-0.0023712098000000003,0.002256188,5.403,0,0
-0.005496757400000001,-0.00014946879999999988,0.0022831176,-0.002821564,0.002742016,5.404,0,0
-0.006402494,-0.0047989208,0.0027312296,-0.0032657580000000005,0.0035637160000000006,5.405,0,0
-0.005652428,-0.004583396,0.0017719052000000001,-0.0036359280000000005,0.004498396000000001,5.406,0,0
-0.0038429555999999997,-0.002256918,0.001380409,-0.0032571860000000005,0.005113924000000001,5.407,0,0
-0.0016075975999999999,-0.00035415999999999985,0.0023382074000000003,-0.0025371344000000005,0.004991482,5.408,0,0
0.00010681840000000009,0.0012003660000000002,0.0029769174,-0.002080118,0.004317352,5.409,0,0
0.0008923032000000002,0.0010593960000000002,0.0029413194,-0.001360396,0.002506296,5.41,0,0
0.0017947752000000003,-0.0017518579999999998,0.0027853438000000003,-0.00045249200000000003,0.00019250799999999987,5.411,0,0
0.0023927808000000004,-0.00632604,0.0020318999999999997,0.00035897800000000003,-0.0015275660000000002,5.412,0,0
0.0013025428000000003,-0.00986682,0.000750684,0.0008201684,-0.002704452,5.413,0,0
0.00023886480000000015,-0.01085405,-0.00134537,0.0009631297600000001,-0.00358391,5.414,0,0
0.00034328240000000023,-0.010251636000000001,-0.004793712,0.00100325976,-0.0036966440000000002,5.415,0,0
-0.00037480359999999993,-0.008829888000000001,-0.008784412000000002,0.00032425176,-0.0035239060000000003,5.416,0,0
-0.0014509296,-0.006868672000000001,-0.012995748000000001,-0.00097550024,-0.003916518000000001,5.417,0,0
-0.0010046604,-0.005055766000000001,-0.016269374000000003,-0.00201544624,-0.004579244,5.418,0,0
-0.0005799848000000001,-0.0035919804000000004,-0.016163522,-0.0031193220000000003,-0.005787540000000001,5.419,0,0
-0.0005300808,-0.0008353943999999999,-0.011522426,-0.0043968340000000005,-0.007137288000000002,5.42,0,0
0.0005258972000000001,0.0032929576,-0.003256986,-0.004820546,-0.008204676000000001,5.421,0,0
0.0012238332000000002,0.007021781600000001,0.0059562339999999995,-0.004105072,-0.008679026000000001,5.422,0,0
0.0013477722000000002,0.0095409156,0.012838253999999999,-0.0025562500000000004,-0.007890148,5.423,0,0
0.0018811986000000001,0.010295546000000001,0.016144596,0.0005277440000000001,-0.005947674000000001,5.424,0,0
0.0020629162,0.00860476,0.015327756,0.004763258,-0.002606148000000001,5.425,0,0
0.0014690902000000002,0.005544752420000002,0.010372074,0.008695920000000001,0.002040512,5.426,0,0
0.0008356882000000001,0.0035781024199999997,0.0038729339999999998,0.01187984,0.007469594,5.427,0,0
0.00016220399999999978,0.0028166604200000004,-0.002056586,0.014044746,0.013078178000000001,5.428,0,0
-0.001492456,0.0029105384200000008,-0.006991206000000001,0.015037680000000001,0.018427306,5.429,0,0
