bandpass 1,bandpass 2,bandpass 3,bandpass 4,bandpass 5,time,onset,mark
0.0006307416,-0.0002629684,0.00048207000000000013,0.0009658780000000001,-0.0019462843999999999,3.749,0,0
0.0004813964,-0.0002915,3.744000000000078e-06,0.0010083628000000001,-0.0013845524,3.75,0,0
0.00036479879999999995,-0.00023834239999999998,-6.922299999999992e-05,0.0010404886000000002,-0.0009065643999999999,3.751,0,0
-0.00021269820000000006,0.00027198200000000004,-0.000912197,0.0007650620000000001,0.0011062296,3.752,0,0
-0.0006951952000000001,0.0007518568,-0.001830653,0.0006011014000000001,0.0031937796,3.753,0,0
-0.001010488,0.0006748398,-0.002046681,7.511400000000004e-06,0.004111826000000001,3.754,0,0
-0.0012487928000000001,0.0006241876000000001,-0.002108427,-0.0005906574000000001,0.004466366,3.755,0,0
-0.0014471672,0.0007057206000000001,-0.002508748,-0.0008001812000000001,0.004872476,3.756,0,0
-0.0010854839999999998,0.0006418006000000001,-0.00249524,-0.0011697246000000002,0.004283638,3.757,0,0
-0.00048333799999999993,0.0007691206000000001,-0.0018481690000000002,-0.0015633380000000003,0.0022763420000000006,3.758,0,0
-0.00033847719999999997,0.0011187168000000001,-0.001183257,-0.0015812460000000003,0.0007085759999999999,3.759,0,0
-0.0001731432,0.0008137246000000002,-0.00018580099999999998,-0.0015693,-0.0012528080000000002,3.76,0,0
2.821799999999998e-05,6.0090000000000165e-05,0.0011174470000000001,-0.001731056,-0.003544722,3.761,0,0
-0.0003676742000000001,-0.000480892,0.0022536790000000006,-0.0014104416000000001,-0.004653904,3.762,0,0
-0.0005858451999999999,-0.0007009020000000002,0.0029854100000000004,-0.0009062756000000002,-0.004938692,3.763,0,0
-6.775579999999997e-05,-0.0007184420000000002,0.00315969,-0.0003910834000000001,-0.004937902,3.764,0,0
0.0005795382,-0.0009073680000000001,0.002909486,0.00037132059999999995,-0.004395248,3.765,0,0
0.001261913,-0.00129066,0.0023335920000000002,0.0011705046,-0.0029566802,3.766,0,0
0.0019347169999999999,-0.0011915144,0.0014172400000000002,0.0015950502,-0.0016349921999999997,3.767,0,0
0.002251136,-0.0005127204000000002,0.00018297400000000003,0.0015877642,-3.44462e-05,3.768,0,0
0.001978549,0.00041376360000000003,-0.000816558,0.00169953,0.0020548458,3.769,0,0
0.0009996050000000002,0.0026731676,-0.0019573280000000004,0.0015222192,0.0039370018,3.77,0,0
-0.0003794050000000001,0.0043765236,-0.0031599260000000004,0.0008841971999999999,0.00526158,3.771,0,0
-0.0015133030000000001,0.002873664,-0.00338446,0.00011028320000000004,0.005849066,3.772,0,0
-0.0023386890000000006,0.000494188,-0.0028995241999999997,-0.0004221448,0.005908656,3.773,0,0
-0.0028783920000000005,-0.001263222,-0.0020651061999999998,-0.0007055949400000001,0.0045501124,3.774,0,0
-0.0024202428000000007,-0.0031178922,-0.0009901332,-0.00097798614,0.0024476704,3.775,0,0
-0.0014805309999999998,-0.0036038442,-2.2909299999999984e-05,-0.00107361014,0.0003376963999999999,3.776,0,0
-0.0007547280000000002,-0.0020326982000000004,0.0005693027000000001,-0.0009657781400000001,-0.0022507856,3.777,0,0
0.00010291400000000001,-0.000790882,0.0011042189,-0.00077140274,-0.0044591576,3.778,0,0
0.0007401360000000002,-0.00028923580000000005,0.0015735509,-0.000597027,-0.005436700000000001,3.779,0,0
0.0011660508000000001,-0.00023975740000000003,0.0019041399,4.7453000000000035e-05,-0.0055192060000000005,3.78,0,0
0.0014348730000000001,-0.0008153474,0.00218302,0.000633181,-0.005248252000000001,3.781,0,0
0.0015091422000000003,-0.000611581,0.0023359540000000003,0.0009936092,-0.004009800000000001,3.782,0,0
0.0014027202000000002,0.00016815880000000001,0.002048228,0.0015522058000000001,-0.0020119,3.783,0,0
0.0012060796,0.0004539506,0.0013192486,0.0016180582,-0.00037136199999999986,3.784,0,0
0.0008635616000000001,0.0004684855999999999,0.0007571100000000001,0.0013365094,0.0012789680000000001,3.785,0,0
0.00014886560000000002,0.0009330326,0.00010406799999999997,0.0010688566,0.003383606,3.786,0,0
-0.00030292860000000004,0.0014119462,-0.0007039380000000001,0.00037869840000000004,0.0049436739999999995,3.787,0,0
-0.0006200494,0.0012321062,-0.001554026,-0.0006260376000000001,0.005588456,3.788,0,0
-0.0008447448000000001,0.0009609426000000001,-0.0023607786,-0.0013895556,0.005868728,3.789,0,0
-0.0007094674000000001,0.0011378064,-0.00288919,-0.0020725888,0.0052121872,3.79,0,0
-0.0002868586,0.0008742518000000002,-0.002779608,-0.0023469140000000003,0.0032160172000000003,3.791,0,0
0.00028684340000000003,-0.0001369262,-0.0022283956000000004,-0.002156402,0.0013344671999999994,3.792,0,0
0.0006106922,-0.000587735,-0.0012927596000000003,-0.0015383664000000001,-0.00039370279999999985,3.793,0,0
0.0006946102,-0.00053133696,0.00010126239999999989,-0.0006047864000000002,-0.0026430428000000002,3.794,0,0
0.0007103351999999999,-0.00025327796,0.0011682704,6.045599999999975e-06,-0.004095906,3.795,0,0
0.0008308224000000001,0.0007763716400000001,0.0019864804000000002,0.0006145196,-0.004581672,3.796,0,0
0.0008742384,0.0023838396400000005,0.002507618,0.0012485336,-0.00485472,3.797,0,0
0.0009512224,0.0031193584400000004,0.00261997,0.001569412,-0.0049026,3.798,0,0
0.0009203682,0.0019104580000000007,0.002363178,0.0017842959999999999,-0.003776738,3.799,0,0
0.0003384878,-0.00016884199999999956,0.0019147922380000001,0.00210657,-0.001877452,3.8,0,0
-6.834479999999997e-05,-0.0016568279999999997,0.001203223638,0.00211375,-0.0002315459999999998,3.801,0,0
-0.0004827814000000001,-0.0028750742,8.421763799999998e-05,0.0017573128000000003,0.001897152,3.802,0,0
-0.0011837854,-0.00356079914,-0.0009613603619999999,0.0009454367999999999,0.004153464,3.803,1,1
-0.0014190152,-0.0021940141399999996,-0.001766918362,0.00018855920000000005,0.005506014,3.804,0,0
-0.0013439692,1.808785999999989e-05,-0.0022047606000000003,-0.0002039888,0.00589705,3.805,0,0
-0.0013913906000000001,0.00108537986,-0.002501236,-0.0008598868000000001,0.005752246,3.806,0,0
-0.001577826,0.00097846566,-0.002538554,-0.0010780936000000002,0.004254003199999999,3.807,0,0
-0.0013525576,0.00021722259999999976,-0.0018503044000000002,-0.0009032116,0.0014664212,3.808,0,0
-0.0006631536000000001,-0.0005117984000000002,-0.0009855504,-0.000998886,-0.0008209788000000003,3.809,0,0
5.421639999999986e-05,-0.0011093104000000002,-0.0002722364,-0.0010899248,-0.0031255488,3.81,0,0
0.0006449884,-0.0016944840000000002,0.0009180396,-0.0008657897999999999,-0.0055501788000000005,3.811,0,0
0.0011698024,-0.0016295774000000002,0.0021436816000000004,-0.0006122209999999999,-0.0061874700000000005,3.812,0,0
0.0015037100000000001,-0.0010269876000000002,0.0024999320000000003,-0.0003292492,-0.005348846000000001,3.813,0,0
0.0012339084,-0.0006637742,0.00251846,1.8277600000000016e-05,-0.0047612819999999995,3.814,0,0
0.0009078596000000001,-0.00033756020000000006,0.0025431860000000002,0.00033519440000000006,-0.0035701841999999998,3.815,0,0
0.0007530336,0.00022580340000000003,0.0018321358000000002,0.0006636134000000001,-0.0012701042,3.816,0,0
0.00046041659999999994,0.0006486652000000002,0.0007995178,0.0007933092,0.0002542058,3.817,0,0
-0.00015673940000000006,0.0009454590000000002,4.9371800000000095e-05,0.0005869772,0.0014847938,3.818,0,0
-0.0006549778,0.0012772732,-0.0009211802,-4.1095600000000095e-05,0.0035551718,3.819,0,0
-0.0008466970000000001,0.00126105,-0.0019712102000000002,-0.0006352676000000001,0.0051484040000000005,3.82,0,0
-0.0013855950000000003,0.001473958,-0.0025910780000000006,-0.0012379716,0.0056741380000000004,3.821,0,0
-0.0014197514,0.002394304,-0.0026830600000000006,-0.0016847702000000002,0.005725262000000001,3.822,0,0
-0.0009331338,0.0029763144,-0.0028447180000000004,-0.0019444400000000002,0.005085366000000001,3.823,0,0
-0.0007411726,0.0030560148,-0.002851598,-0.002033362,0.0033337620000000005,3.824,0,0
-0.000512805,0.0023948019999999997,-0.0021228706,-0.001796851,0.0012951220000000001,3.825,0,0
1.0904000000000057e-06,0.00112072,-0.0014758414,-0.001440351,-0.00011455999999999999,3.826,0,0
0.0001423478,0.00019269999999999997,-0.0008248954000000001,-0.0010635432,-0.001538908,3.827,0,0
0.00020081519999999998,4.211599999999992e-05,0.00025082060000000006,-0.0005261182000000001,-0.0029439260000000004,3.828,0,0
0.0007918179999999999,-0.00024343920000000017,0.0012426406000000001,0.0005044758,-0.0028721978000000002,3.829,0,0
0.00074552602,-0.0013019972000000001,0.0015885752000000001,0.0009576108000000001,-0.0021055118000000003,3.83,0,0
0.00065530042,-0.0022682692,0.0015161660000000002,0.0015712448000000001,-0.0015937728000000003,3.831,0,0
0.00094601442,-0.0034005731999999997,0.0013103884000000001,0.001855391,-0.00040666880000000017,3.832,0,0
0.00087031962,-0.0039714869,0.0007105262,0.0002935100000000003,-0.00019482480000000018,3.833,0,0
0.00043525082,-0.0036108777,0.00042397440000000006,-0.000961754,-0.002990953,3.834,0,0
0.00038330840000000004,-0.0026107417,0.0010335404,-0.001287526,-0.007045277000000001,3.835,0,0
0.0009454486,-0.0013870056999999998,0.0026182204000000002,-0.0017647790000000002,-0.011292232000000001,3.836,0,0
0.0015711486000000003,-0.0007935101,0.004719646000000001,-0.0009597989999999997,-0.015517830000000003,3.837,0,0
0.0026843444,-0.0010858184,0.0067838702,0.001799375,-0.01668046,3.838,0,0
0.0039154152,-0.0017168364,0.008224862000000001,0.004151343,-0.014102820000000002,3.839,0,0
0.0045031920000000005,-0.0012481934,0.008177064000000001,0.005582571000000001,-0.009293186000000002,3.84,0,0
0.0036269260000000004,-0.0005364834000000001,0.006329310000000001,0.006275130000000001,-0.001756526,3.841,0,0
0.0016679740000000007,0.000278013,0.0028706260000000003,0.005938748000000001,0.0071621540000000004,3.842,0,0
-0.0007488479999999999,0.0015272390000000001,-0.0012655140000000001,0.0045256222,0.014722014,3.843,0,0
-0.0035797420000000003,0.002811689,-0.005529000000000001,0.0022944742,0.021011534,3.844,0,0
-0.005603248000000001,0.0038317520000000003,-0.009367882000000001,-9.321980000000013e-05,0.025727939999999998,3.845,0,0
-0.006479318,0.00401344,-0.012049404000000001,-0.0025273438000000003,0.026475500000000003,3.846,0,0
-0.006734060000000001,0.003642164,-0.01319588,-0.0048120438000000005,0.02344512,3.847,0,0
-0.006289432000000001,0.002647091,-0.01245128,-0.006376222,0.01824871,3.848,0,0
-0.004866040000000001,0.001459109,-0.010156798,-0.007002894000000001,0.010805764,3.849,0,0
-0.0030576600000000002,0.00022486099999999997,-0.006544174000000001,-0.006680526000000001,0.0013391040000000007,3.85,0,0
-0.0011980480000000002,-0.000981073,-0.001748694,-0.005307910200000001,-0.007917896,3.851,0,0
0.0009437820000000001,-0.002008541,0.002844826,-0.0038752324000000003,-0.015208356,3.852,0,0
0.0030609800000000005,-0.0026104000000000006,0.006466146000000001,-0.0019284524,-0.020790126,3.853,0,0
0.004786068000000001,-0.0025712644000000003,0.009112084,0.0006765196000000002,-0.02408166,3.854,0,0
0.005864056,-0.0025148924,0.010352064,0.0029899836000000005,-0.02296064,3.855,0,0
0.006135038000000001,-0.0021077284000000003,0.009953512000000001,0.0046034878,-0.018646276,3.856,0,0
0.005650354000000001,-0.0011359731999999998,0.008578719999999998,0.005889264,-0.013171262000000001,3.857,0,0
0.0042903704,-8.178319999999995e-05,0.0063958328,0.006596012000000001,-0.005275682000000002,3.858,0,0
0.0021042084000000003,0.0010503232000000002,0.0030618988,0.005576058,0.0033606580000000003,3.859,0,0
-0.00039665959999999993,0.0024859252,-0.00037260920000000016,0.003996369,0.009830578,3.86,0,0
-0.0025436656,0.0036133592,-0.0034532912,0.0024613518,0.015081554,3.861,0,0
-0.0040170676,0.0036477960000000005,-0.0063306592,0.0007589778,0.01917588,3.862,0,0
-0.0049814080000000005,0.002715922,-0.008494692000000002,-0.0010270542,0.01968124,3.863,0,0
-0.00517523,0.00149311,-0.008981250000000001,-0.0027192761999999997,0.017236684000000002,3.864,0,0
-0.004726803999999999,0.00037645459999999996,-0.008224773999999999,-0.0040365092,0.0132083326,3.865,0,0
-0.0038685440000000002,-0.0008396434000000002,-0.0065692188,-0.0047117980000000005,0.0064998726000000005,3.866,0,0
-0.0024016940000000002,-0.0018928793999999998,-0.0035594467999999994,-0.0049261059999999995,-0.0016157873999999997,3.867,0,0
-0.0005664139999999999,-0.0024126314000000003,-4.492680000000009e-05,-0.00443556,-0.0084872274,3.868,0,0
0.0011421640000000002,-0.0029695014,0.0032884852,-0.0025921340000000003,-0.013730851399999999,3.869,0,0
0.002502882,-0.003573608,0.0060925132,-0.000826326,-0.017342339999999998,3.87,0,0
0.0035327120000000004,-0.0034283440000000003,0.008171832,0.0006202600000000001,-0.0182854,3.871,0,0
0.0041223760000000005,-0.002453686,0.0087957,0.0025415380000000003,-0.016376284,3.872,0,0
0.00435122,-0.001115018,0.008320976,0.0040516120000000004,-0.012890054,3.873,0,0
0.004138528000000001,0.00022528400000000007,0.007067497999999999,0.004652388,-0.008130514,3.874,0,0
0.003237864,0.0011622400000000001,0.004337278,0.004866948000000001,-0.0014880339999999992,3.875,0,0
0.0018644780000000001,0.0016216720000000002,0.0010581660000000001,0.0043645736,0.005325266,3.876,0,0
0.00012562199999999993,0.0018725120000000002,-0.00188739,0.0030395312000000003,0.01064735,3.877,0,0
-0.002001596,0.002016538,-0.004583268,0.0015938672000000002,0.01464966,3.878,0,0
-0.003557468,0.0019712740000000003,-0.006792966,-0.0003887328000000001,0.01683958,3.879,0,0
-0.004017092,0.0019446860000000002,-0.0077448000000000005,-0.0024962648,0.016255040000000002,3.88,0,0
-0.00388051,0.002108266,-0.0075125980000000005,-0.0037489184000000005,0.013500702,3.881,0,0
-0.0033903320000000007,0.0017008300000000002,-0.006593004,-0.00465551,0.009358162,3.882,0,0
-0.002265963,0.0007468700000000001,-0.00483522196,-0.0052098299999999995,0.0037149640000000003,3.883,0,0
-0.0010057490000000002,-0.00017266799999999995,-0.0021332019600000004,-0.004502768,-0.0024281360000000004,3.884,0,0
-2.3860999999999913e-05,-0.000910762,0.0008553700399999999,-0.0029940322000000003,-0.008067376000000001,3.885,0,0
0.001199921,-0.0015891820000000002,0.00346538004,-0.0016475182,-0.012345018000000003,3.886,0,0
0.0022078070000000004,-0.001725387,0.00585425604,-0.00022333220000000015,-0.014818638000000002,3.887,0,0
0.0027073340000000005,-0.0006006829999999999,0.007272404000000001,0.0013865158,-0.0151573,3.888,0,0
0.0030776060000000005,0.0008904090000000002,0.007115228,0.0028222378,-0.013153702,3.889,0,0
0.0031830780000000006,0.0016065630000000003,0.006289004000000001,0.003565282,-0.0099093178,3.89,0,0
0.0026291020000000008,0.0016000490000000003,0.00493692,0.003865342,-0.005766365799999999,3.891,0,0
0.0020187944,0.00104441,0.0027864540000000003,0.004020886,-0.0007354818000000003,3.892,0,0
0.0012658985999999999,-0.0004694339999999998,0.00030535399999999987,0.0034583380000000005,0.004113498199999999,3.893,0,0
0.00019659259999999998,-0.0016555102,-0.0019852000000000003,0.002046776,0.0080613402,3.894,0,0
-0.0008428794000000001,-0.0014288382,-0.004264008,0.0006077439999999998,0.011199456,3.895,0,0
-0.0018201834,-0.0009930143999999999,-0.006222906,-0.0006065100000000001,0.012855524,3.896,0,0
-0.0024514258000000004,-0.0008605023999999999,-0.007042202000000001,-0.0023128280000000003,0.012108066,3.897,0,0
-0.0025476839999999997,-0.0002213603999999999,-0.0067189139999999994,-0.003625316,0.009810828,3.898,0,0
-0.0020612192,0.0004593218000000001,-0.0054178864,-0.004045898000000001,0.006594158,3.899,0,0
-0.0016060382000000002,0.0004045578,-0.0033167864,-0.004165668,0.0019091239999999999,3.9,0,0
-0.0008564584,0.00041420140000000003,-0.0009224004,-0.003837062,-0.0028207960000000004,3.901,0,0
0.00024792360000000014,0.00033774940000000006,0.0013008796,-0.0025458342000000004,-0.006499282,3.902,0,0
0.0009281596000000002,-0.00034640059999999984,0.0034498156000000004,-0.0009750662,-0.009509123999999999,3.903,0,0
0.0009649956000000001,-0.0015334286,0.005115538,0.00018231379999999998,-0.011353473999999999,3.904,0,0
0.0012399264,-0.0028675686000000002,0.005902552,0.0018131138000000002,-0.01103817,3.905,0,0
0.0015699326,-0.0035155460000000005,0.005894252,0.0031213638,-0.009309076,3.906,0,0
0.0013264646,-0.0030113236000000004,0.005275008,0.0033621299999999996,-0.007049143400000001,3.907,0,0
0.0010624278,-0.0017372416000000003,0.0038334159999999996,0.0030961919999999998,-0.0031101514000000004,3.908,0,0
0.000638495,-0.0006048835999999998,0.001471526,0.0022268120000000003,0.0011776686,3.909,0,0
0.0004106057999999999,5.402219999999999e-05,-0.0006854640000000001,0.000784498,0.004416498600000001,3.91,0,0
-7.554399999999949e-06,0.0005902984000000001,-0.0024993360000000004,-0.0003174604000000001,0.0077405046,3.911,0,0
-0.0008903623999999999,0.001214228,-0.00410397,-0.0009309464,0.010624172000000001,3.912,0,0
-0.0016170756,0.001095246,-0.004954620000000001,-0.0017677224000000001,0.010957324000000001,3.913,0,0
-0.0020517216,0.001083984,-0.004797300000000001,-0.0022610764,0.009668198000000001,3.914,0,0
-0.0023387402,0.0025271142,-0.004336382000000001,-0.0024200504,0.008198,3.915,0,0
-0.002261899,0.003961498000000001,-0.0033879564000000007,-0.002854416,0.004733762000000001,3.916,0,0
-0.001733623,0.004528458000000001,-0.0016236204000000002,-0.00291162,0.00018758600000000022,3.917,0,0
-0.0009268150000000001,0.00404106,-7.140239999999995e-05,-0.00174728,-0.003299344,3.918,0,0
0.00012555900000000002,0.0021516080000000006,0.0014133096,-0.00021726999999999988,-0.006296978,3.919,0,0
0.0009941910000000002,-0.0005086159999999995,0.0029239656000000004,0.000826186,-0.00899104,3.92,0,0
0.0016935000000000001,-0.002622942,0.00383779,0.001964402,-0.00972222,3.921,0,0
0.002243086,-0.0038171028,0.003774442,0.0028616460000000002,-0.008376536,3.922,0,0
0.0024988880000000003,-0.0038150428,0.00365186,0.0028152040000000004,-0.006748168,3.923,0,0
0.002464266,-0.0022434674,0.003650534,0.0026880980000000003,-0.004259374,3.924,0,0
0.0020883052,-0.0004886873999999999,0.00293223,0.0028289000000000005,-0.0007246600000000002,3.925,0,0
0.0012983483999999999,0.00045884260000000004,0.0017432980000000001,0.0024120328000000004,0.002078702,3.926,0,0
0.00039315639999999995,0.0009537614000000002,0.00035092399999999996,0.0017743208000000003,0.004087348,3.927,0,0
-0.0005595036,0.0014674654,-0.001235038,0.0011995374000000002,0.006192256,3.928,0,0
-0.0013636016,0.00153345,-0.00291932,0.0005761276,0.007739638000000001,3.929,0,0
-0.0020054088,0.00126702,-0.003992486,-4.4938199999999996e-05,0.007809586000000001,3.93,0,0
-0.002393866,0.001007847,-0.0045091820000000005,-0.000637203,0.006873602,3.931,0,0
-0.0020930035999999997,0.0006087277999999999,-0.004607866,-0.001255431,0.0055387781999999995,3.932,0,0
-0.0014494292,0.00012641780000000004,-0.0036651376,-0.0018596296,0.003060214200000001,3.933,0,0
-0.0007265951999999999,-0.0006271861999999999,-0.0022712816,-0.0024010058,-0.00036603579999999985,3.934,0,0
-6.278219999999998e-05,-0.0012149982,-0.0009513255999999998,-0.002565484,-0.0027762757999999998,3.935,0,0
0.0005904744,-0.0012820512,0.0008669104000000001,-0.001917354,-0.0043195718,3.936,0,0
0.001018518,-0.000946046,0.0025647464,-0.0011345006,-0.005928666000000001,3.937,0,0
0.0011333636,-0.0006302364000000001,0.0033546120000000003,-0.00029255860000000004,-0.006373724000000001,3.938,0,0
0.0008892696,-0.0001950796,0.0034883320000000002,0.0005478754,-0.0052084359999999994,3.939,0,0
0.0008461212000000001,0.00020004460000000004,0.0033144320000000004,0.0008546406,-0.004469364,3.94,0,0
0.0011045966,0.00042934660000000003,0.0026715000000000003,0.0010101486,-0.003759,3.941,0,0
0.0008196058,0.0004555646,0.001637726,0.0013047852,-0.001337416,3.942,0,0
0.00030012579999999994,0.00041435040000000004,0.0006366680000000002,0.0012852704,0.0009813820000000003,3.943,0,0
-4.324219999999999e-05,0.0012281736000000001,-0.0005137079999999999,0.0009745276,0.0023793160000000002,3.944,0,0
-0.0005621588,0.0023216554,-0.001609742,0.00045581840000000006,0.004008650000000001,3.945,0,0
-0.0015957388,0.0033275694,-0.002318278,-0.00031817559999999996,0.005300972000000001,3.946,0,0
-0.0021015260000000003,0.0029697494,-0.00251138,-0.0009746536,0.004951554,3.947,0,0
-0.0018706060000000001,0.0010812199999999997,-0.002657338,-0.0014203768000000002,0.003977938,3.948,0,0
-0.001692186,-0.0005895620000000001,-0.0020452955999999997,-0.0015096322000000002,0.0031620284,3.949,0,0
-0.0013340716,-0.002064998,-0.0007393716,-0.0010381766,0.0012120123999999999,3.95,0,0
-0.0002457236,-0.0035525220000000002,-0.0002366322000000001,-0.0002676306,-0.0009566736,3.951,0,0
0.0007858684,-0.0036885464,0.00027634919999999997,0.0001721454,-0.0022851636000000004,3.952,0,0
0.0011641964,-0.0022114584,0.0009773911999999998,0.000343426,-0.0036631996,3.953,0,0
0.0017300984000000001,-0.0014854284000000001,0.0011332987999999999,0.0007555342,-0.004952132000000001,3.954,0,0
0.002074288,-0.0012956464,0.0011685808,0.0010941666000000001,-0.004729918,3.955,0,0
0.0018244099999999998,-0.0011226884,0.0014470094000000003,0.0008409072,-0.003862198,3.956,0,0
0.0013219069999999998,-0.0009119912000000001,0.0016471500000000004,0.000531788,-0.0035088579999999997,3.957,0,0
0.0008814648,-0.00023081920000000001,0.0017408740000000003,0.0006530690000000002,-0.002036512,3.958,0,0
0.00034918739999999996,0.0004545787999999999,0.0014879906,0.000678955,9.275000000000017e-05,3.959,0,0
-0.0003500826,0.00068654456,0.0006154946000000001,0.000438764,0.0014830160000000002,3.96,0,0
-0.0007475588,0.0002843985600000001,-0.0003184214,0.00011098739999999997,0.0031435900000000004,3.961,0,0
-0.0010895538,0.00037778455999999997,-0.0011697034,-0.00023700740000000004,0.0051337660000000005,3.962,0,0
-0.0014505176000000001,0.00032722456,-0.0021170374,-0.0006175850000000001,0.005980602000000001,3.963,0,0
-0.0014789540000000002,-0.00023258803999999997,-0.0024915220000000004,-0.001319227,0.005433988000000001,3.964,0,0
-0.0012442584,-0.0003765171999999999,-0.0021241246000000004,-0.001842724,0.004246940000000001,3.965,0,0
-0.0011884488000000002,-0.00023110920000000003,-0.0016199402000000001,-0.0018179038,0.0023468820000000007,3.966,0,0
-0.000879452,-0.00034937858000000003,-0.0008627341999999999,-0.0016470898,-0.0001376919999999998,3.967,0,0
-0.000206436,-0.0002707485800000001,-9.342479999999997e-05,-0.0016408578000000002,-0.00205456,3.968,0,0
0.00021407580000000004,0.0004311060200000001,0.0003184,-0.0015014778,-0.00330931,3.969,0,0
0.0006512402,0.0014825854200000003,0.0006985346,-0.0011609324,-0.00384108,3.97,0,0
0.0011770948000000001,0.00293423342,0.0011646541999999998,-0.0010853436,-0.0035867720000000002,3.971,0,0
0.0011873810000000002,0.003654592,0.0011188180000000002,-0.0006220998,-0.0029558120000000004,3.972,0,0
0.0006886630000000002,0.0026470680000000007,0.0011886046,0.00047987219999999996,-0.0023567828000000002,3.973,0,0
0.0005603428,0.0007969939999999999,0.0015465338000000002,0.0021361782,-0.0020359088,3.974,0,0
0.0006258528,-0.00045341800000000025,0.0010126914000000002,0.0039695868,-0.0010771316,3.975,0,0
0.00035639800000000007,-0.0014850702,0.0004859492,0.0053046278,-1.5371600000000014e-05,3.976,0,0
0.0004738434000000001,-0.0022632054000000005,0.0004323368,0.006154648,0.0005216844,3.977,0,0
0.0009639234,-0.0014869582,-2.334320000000001e-05,0.006371238000000001,0.0013412591999999999,3.978,0,0
0.0009329248,-0.00027146500000000003,-0.0005603580000000001,0.005181576400000001,0.0024743592,3.979,0,0
0.0006185076879999999,-0.00012238700000000003,-0.0006416176,0.0027805144,0.0025732680000000005,3.98,0,0
0.0003545144879999999,-0.0004765368,-0.0007173794,0.0007435423999999998,0.0019707522,3.981,0,0
-8.711111999999964e-06,-0.0010524536,-0.0009435694,-0.0012775376,0.0019852482,3.982,0,0
-0.00023663111200000002,-0.0014870368,-0.0009659854000000001,-0.0032428216,0.0014079016,3.983,0,0
-0.0005499243120000001,-0.0014336400000000001,-0.0007356564,-0.0043680260000000005,7.151759999999999e-05,3.984,0,0
-0.0007394471999999999,-0.0010036520000000003,-0.00046146039999999994,-0.004860118,-0.0005372104,3.985,0,0
-0.0005189596,4.805799999999991e-05,-0.00025618080000000006,-0.004977860000000001,-0.0009037526000000001,3.986,0,0
-0.0003421563124,0.001256826,0.00032768179999999997,-0.0050507040000000005,-0.0019197026000000003,3.987,0,0
-0.0002536157124,0.00185253,0.0010946258,-0.004549542,-0.002287368,3.988,0,0
-0.0001448325124,0.0017159936,0.0014545456,-0.0036008620000000007,-0.001790448,3.989,0,0
-0.0002813325124,0.0010503216,0.0017150236,-0.0025647724000000005,-0.0016037762,3.99,0,0
-0.0005387519124,0.0001393844,0.0017837906,-0.0015849842,-0.0011264366,3.991,0,0
-0.00040580180000000007,-0.00041799140000000007,0.0011350262,-0.0007277926000000001,-5.9306600000000006e-05,3.992,0,0
-0.0003232586,-0.000864693,0.00048007999999999997,-0.00029432279999999997,0.0001651886,3.993,0,0
-0.00031467680000000006,-0.0007831518,-0.00023225799999999994,-0.000194122,0.00029746339999999995,3.994,0,0
-1.7743999999999998e-05,-0.0002180246,-0.0010416380000000001,0.0002401944,0.0012030856,3.995,0,0
3.5396799999999986e-05,4.452900000000001e-05,-0.0013726926,0.0007290402000000001,0.00133609,3.996,0,0
-0.0001855332,0.0005180868,-0.0016072402,0.0012171086000000002,0.0009884904000000002,3.997,0,0
-0.0003261226,0.0009563904,-0.0015018520000000001,0.0015247748,0.0013106252000000002,3.998,0,0
-0.00032172280000000004,0.00102746036,-0.0010889360000000002,0.0016633960000000001,0.0016832944000000005,3.999,0,0
-7.382960000000002e-05,0.0010969891600000003,-0.00058481656,0.0014819336000000002,0.0011135424,4.0,0,0
0.00030528740000000003,0.00112784636,-0.00012063276000000005,0.0011144184,0.000797335,4.001,0,0
0.00045836900000000003,0.00063147036,0.00031643936000000004,0.0010591144,0.0009984746,4.002,0,0
0.00044754558000000005,-2.2565639999999935e-05,0.00040876516000000007,0.0009691676000000001,0.0004029865999999999,4.003,0,0
0.00045586518,-0.0002355444,0.00046684096,0.0008439590000000001,-0.0003966474000000001,4.004,0,0
0.00011173518000000005,-0.00014166639999999996,0.00085579952,0.0008018756000000001,-0.0007676938000000001,4.005,0,0
-0.00042346482,-0.00064515,0.0008028109200000001,0.0005948052000000001,-0.0009262290000000001,4.006,0,0
-0.00063781802,-0.0015465600000000002,0.00079318582,0.0004509242000000001,-0.001526631,4.007,0,0
-0.0005512506000000001,-0.001529482,0.0008569320200000001,0.000589511,-0.001593037,4.008,0,0
-0.00041562680000000005,-0.0013696246,0.00053335982,0.0007519756,-0.0009225709999999999,4.009,0,0
-0.00016650680000000005,-0.0016316004000000003,8.684581999999995e-05,0.0007972216,-0.0009348586,4.01,0,0
0.0004710472,-0.001248755,-0.00010660178000000003,0.0008585201600000001,-0.0007964285999999999,4.011,0,0
0.0009185486,-0.0002097628,-0.00039855680000000005,0.00108238916,0.00013472340000000009,4.012,0,0
0.0007596948,0.0004579032,-0.0007379492,0.0008658619600000001,0.0007671814,4.013,0,0
0.00047103860000000005,0.0008042978000000001,-0.0006609448,0.0003683559600000001,0.0004802076000000001,4.014,0,0
0.00031356540000000005,0.0011312256,-0.0006550256,0.00032914016,0.0007523242,4.015,0,0
-8.909799999999994e-06,0.0008999966,-0.0006472178,0.0003880506,0.0008874487999999999,4.016,0,0
-0.00027737279999999996,0.0006262684000000002,-0.0004410982,-6.812799999999963e-06,-6.727319999999998e-05,4.017,0,0
-0.00011667099999999995,0.0009859144000000002,-0.00019107380000000005,-4.923279999999998e-05,-3.45392e-05,4.018,0,0
0.00023160720000000003,0.0014539444000000001,4.2561999999999976e-05,0.00044491320000000003,0.0006738646,4.019,0,0
0.0005295704,0.0016569844,0.000112287,0.0006252028,0.0007369322,4.02,0,0
0.0007246216,0.0015376760000000002,6.787560000000001e-05,0.0009260654,0.0006242706000000001,4.021,0,0
0.0006542766,0.00088404,0.00016281047999999997,0.0010940826000000001,0.0009526667999999999,4.022,0,0
0.00033831020000000005,-0.00024974799999999994,0.00029005568,0.0008735902,0.00033022880000000007,4.023,0,0
0.000270489,-0.0013838519999999999,0.00017637828,0.0005096780000000001,-0.0009514232000000001,4.024,0,0
0.00022230700000000004,-0.00222322,0.00011986007999999999,-2.3251999999999973e-05,-0.0011643254,4.025,0,0
1.6205799999999997e-05,-0.002337312,0.00015665648,-0.00050469,-0.0012689002,4.026,0,0
-0.000124552,-0.0016853178,0.000128888,-0.0009826398,-0.0015111724,4.027,0,0
-0.000125604,-0.0012556866000000002,0.00021410880000000002,-0.0012104822,-0.0010086174,4.028,0,0
-0.000407465,-0.0010635504,0.00023695440000000002,-0.0010705354,-0.0002253222,4.029,0,0
-0.0010728349999999998,0.00020995360000000002,0.0002314144,-0.0009856387999999999,-0.0002786266,4.03,0,0
-0.0011767411999999999,0.0017897376000000002,0.00031808526000000006,-0.000956505,-0.0001884512,4.031,0,0
-0.0008745674000000001,0.0025116574,0.00018306826000000003,-0.00045636439999999993,0.00032473880000000004,4.032,0,0
-0.0005059713999999999,0.0026424374000000002,8.069659999999999e-06,2.0251999999999995e-05,0.0003009368000000001,4.033,0,0
-6.854300000000001e-05,0.0017130352000000006,4.234586000000001e-05,5.9410199999999975e-05,0.00033159080000000004,4.034,0,0
0.0002893984,0.00017171120000000013,-3.681053999999999e-05,0.000219093,0.0009686352000000001,4.035,0,0
0.0001963568,-0.00096787956,-0.00013626300000000002,0.00016250160000000002,0.0015053422,4.036,0,0
-0.0001429932,-0.00146973996,-0.00039757600000000007,-0.000170021,0.0013435370000000001,4.037,0,0
-0.0004153866,-0.00107355716,-0.0007351714000000001,-0.0003757364,0.0013609919999999999,4.038,0,0
-0.001009069,0.0007688628400000002,-0.0006153136000000001,-0.0007114112000000001,0.0013641028,4.039,0,0
-0.0008754296,0.0023537748400000004,-0.00047363220000000005,-0.0009900746,0.0005922508000000002,4.04,0,0
-0.00016810459999999996,0.0019901496,-0.000359277,-0.0008918610000000001,-0.0004497132,4.041,0,0
-5.2462199999999974e-05,0.00010410799999999989,-9.336160000000004e-05,-0.000763127,-0.0007732240000000001,4.042,0,0
-5.716599999999985e-06,-0.0021466460000000003,-1.7141400000000032e-05,-0.0007606417999999999,-0.0011402620000000002,4.043,0,0
0.0007089334,-0.003887064,-0.00014650420000000006,-0.0004469082,-0.0018822620000000002,4.044,0,0
0.0009459366000000001,-0.005436044000000001,-0.00028863960000000003,0.0001031898,-0.0016907518000000002,4.045,0,0
0.0005755584,-0.0050134656,-0.00027471060000000005,0.00021727940000000002,-0.0012403214,4.046,0,0
0.0008256994000000001,-0.0025375996,-2.25654e-05,0.0003346994,-0.0013204494000000002,4.047,0,0
0.0008243714000000001,-0.00018411760000000023,0.00024736020000000003,0.0007158592000000001,-0.0012563735999999999,4.048,0,0
0.0005085673999999999,0.0013452444,0.00030896100000000007,0.0005747872000000001,-0.0008884556,4.049,0,0
0.0004529454000000001,0.0021537303999999997,0.000328764,0.00032828459999999996,-0.0009187568,4.05,0,0
0.00036257680000000003,0.0021968701999999997,0.0002260506000000001,0.0005441770000000001,-0.00042151320000000006,4.051,0,0
-0.00011903860000000001,0.0015883358,-0.000192176,0.0006104068,0.0008405028,4.052,0,0
-0.00034719279999999997,0.0009972498,-0.0005673878,0.0004843032,0.001545697,4.053,0,0
-0.0005637048,0.000529646,-0.0005906265999999999,0.0007253846000000001,0.0019366244,4.054,0,0
-0.0010056068,0.0005858840000000001,-0.00039192979999999996,0.0006579218,0.0021444613999999996,4.055,0,0
-0.0008773302000000001,0.0008101538000000001,-0.0003477454000000001,1.3437799999999988e-05,0.0016377226,4.056,0,0
-0.000422438,0.000722586,-9.331039999999999e-05,-0.00029764600000000004,0.0002867665999999999,4.057,0,0
-2.699580000000005e-05,0.0007678248000000001,0.0004524356,-0.0004411264000000001,-0.0009003554000000002,4.058,0,0
0.00017859980000000002,0.0009358126,0.0005814524,-0.0005027969999999999,-0.0016128128000000002,4.059,0,0
0.00041084195999999996,0.0008195226,0.000666572,-0.0005087825999999999,-0.0024226568,4.06,0,0
2.682456000000004e-05,0.0004751126,0.001042338,-0.0006115506000000001,-0.002676554,4.061,0,0
-0.00021259264,0.00013439480000000008,0.0012619480000000001,-0.0005379338,-0.0020567747999999998,4.062,0,0
-0.00019398823999999996,-3.555599999999998e-05,0.0011142120000000003,-0.0004476666,-0.0013021310000000002,4.063,0,0
-0.00030400244,-0.0002442172,0.001051384,-0.0007447318,-0.000779347,4.064,0,0
-0.0002129196,-0.0005348808,0.0007933171999999999,-0.0008993396000000001,0.00014989700000000002,4.065,0,0
-0.0001803764,-0.00034305040000000005,-8.601280000000006e-05,-0.0002455376,0.000885527,4.066,0,0
0.00010553720000000002,3.121427999999998e-05,-0.0005787338000000002,8.650000000000034e-06,0.0010327818,4.067,0,0
0.00017811040000000002,0.00017653848,-0.0008254568000000001,-5.808435999999996e-05,0.001623674,4.068,0,0
0.00023768360000000002,0.00036975167999999997,-0.0014364288000000003,0.00011914044000000003,0.0023042500000000003,4.069,0,0
0.00020906260000000003,0.00067080128,-0.0016177650000000002,-7.943676e-05,0.0026063600000000003,4.07,0,0
0.00023040600000000003,0.0005736512800000001,-0.0010586632000000001,-0.0005784267600000002,0.00271352,4.071,0,0
2.254159999999998e-05,0.00029981660000000005,-0.0007220642400000001,-0.00086658396,0.002942852,4.072,0,0
-0.0004130622,7.118640000000005e-05,-0.0009109212400000001,-0.000836334,0.0027143140000000002,4.073,0,0
-0.00035214480000000004,-0.0003152048000000001,-0.0006697316400000001,-0.0011769240000000002,0.001702278,4.074,0,0
-0.0002108408,-0.0005943948,-0.00010962964000000002,-0.001242098,0.0010222094,4.075,0,0
0.00021362220000000002,-0.0005500752000000001,0.00022909455999999998,-0.0009625320000000001,0.0004128109999999998,4.076,0,0
0.0008765180000000001,1.8546800000000037e-05,0.0009387596000000002,-0.0011403792,-0.0008497490000000001,4.077,0,0
0.001398374,0.0007365128000000001,0.0017444396000000002,-0.0013225172000000001,-0.0016690610000000001,4.078,0,0
0.0015659286000000003,0.001273538,0.0020077254000000003,-0.0010723066,-0.0012448662000000001,4.079,0,0
0.0015563446000000003,0.0014328474000000003,0.0018982494,-0.0006565130000000001,-0.0010971436,4.08,0,0
0.0010128386,0.0013424256000000002,0.0015341459400000001,-0.00015072299999999996,-0.001095794,4.081,0,0
0.0001371445999999999,0.0012504176,0.0007304161399999999,0.000882835,0.00022678200000000013,4.082,0,0
-7.360760000000003e-05,0.0001130816,3.936114000000003e-05,0.0013225982,0.001344562,4.083,0,0
-0.00021634744000000007,-0.0017420883999999998,-0.00020613266,0.0013779286,0.0014034882000000001,4.084,0,0
-0.0006959194400000001,-0.0025903878,-0.00065878666,0.001780617,0.0018383402000000004,4.085,0,0
-0.0006681314400000001,-0.002627916786,-0.0009024212000000001,0.0016796110000000001,0.002517501,4.086,0,0
-0.00054841284,-0.0028226130259999998,-0.0010732114,0.001416503,0.0024726570000000005,4.087,0,0
-0.00106342864,-0.002280589426,-0.0011799803999999999,0.001460919,0.002280631,4.088,0,0
-0.0012480838,-0.0008812614260000001,-0.001290832,0.001621921,0.0024579180000000003,4.089,0,0
-0.0010619300000000002,1.9783739999999696e-06,-0.0012935300000000002,0.0013153566,0.0019253554000000003,4.09,0,0
-0.001092668,0.00025326115999999997,-0.000732764,0.0008273696000000001,0.00038741139999999997,4.091,0,0
-0.0008975762,0.00014363899999999998,-0.0003174936,0.00021076799999999999,-0.0011861346000000001,4.092,0,0
-0.0003387608,0.00026265714,0.00020575040000000004,-0.000377194,-0.0029122146000000004,4.093,0,0
2.9972799999999965e-05,0.00078744514,0.0008178444000000001,-0.0003180648,-0.0045858226,4.094,0,0
0.00021230119999999999,0.00103744734,0.0011399974000000002,-1.2676400000000013e-05,-0.00531275,4.095,0,0
0.0004244696,0.00100886334,0.0010463194000000001,0.0002467856,-0.00506655,4.096,0,0
0.0005685472,0.0010185545399999999,0.0010095644,0.0006459832000000001,-0.004509766,4.097,0,0
0.0007154778,0.0008192103999999998,0.0008849806,0.0011379312,-0.0034712838,4.098,0,0
0.0005050646,0.0005036898000000001,0.00048245160000000005,0.0009980826000000002,-0.0020611748,4.099,0,0
0.00023666840000000002,0.00013986800000000005,0.00044305059999999994,0.0006527698,-0.0012896718,4.1,0,0
0.0001452414,-3.644799999999996e-05,0.00023644600000000002,0.0008821528,-0.00044944500000000003,4.101,0,0
-0.00018098420000000001,0.0005375692000000002,-0.00032151939999999996,0.0010590348,0.0009918970000000003,4.102,0,0
-0.0006154586,0.0006684402000000001,-0.0007219556,0.0009645148,0.0020413808,4.103,0,0
-0.0007757738,-6.301919999999995e-05,-0.0006836786,0.0010985116000000001,0.0021780898000000005,4.104,0,0
-0.00029455780000000003,-0.00027970719999999993,-0.0007933616,0.0009715634,0.0021944996000000006,4.105,0,0
0.00011082680000000001,-0.0001280111999999999,-0.001250427,0.00034281339999999995,0.0018677428000000006,4.106,0,0
7.657760000000002e-05,-0.0005082028000000001,-0.0011511870000000001,-0.0002949626,-4.0035199999999965e-05,4.107,0,0
0.00041631540000000003,-1.1219400000000057e-05,-0.0006975574,-0.0006049774,-0.0018569772000000002,4.108,0,0
0.0007584137999999999,0.0012301266,-0.000508759,-0.000822773,-0.0022824672,4.109,0,0
0.00054297,0.0019326684,-0.0003115034,-0.001122418,-0.0030095720000000003,4.11,0,0
0.000669652,0.0024813784000000004,0.00021698159999999998,-0.001269222,-0.0034672120000000003,4.111,0,0
0.0009409214,0.0016308860000000002,0.0008538676000000001,-0.0013788799999999999,-0.002591905,4.112,0,0
0.000566218,-0.0004884400000000001,0.0008805454000000002,-0.0013886718000000002,-0.0018715562,4.113,0,0
0.0002687935999999999,-0.001843722,0.00071200584,-0.0010692606,-0.0015985868,4.114,0,0
0.00018291064000000004,-0.002702536,0.00060337272,-0.00019251860000000002,-0.0004355567999999999,4.115,0,0
-0.00018878496,-0.003654232,0.00029355972,0.0007276273999999999,0.0010596712,4.116,0,0
-0.0003456879600000001,-0.0030488632,0.00021545372000000002,0.0012858724,0.0016353682,4.117,0,0
-0.00019884176,-0.0013797012000000002,4.747054000000001e-05,0.0012799130000000001,0.0024520014,4.118,0,0
-0.00046811056000000003,-0.0006092512000000002,-0.00044278230000000007,0.0006814950000000001,0.003477972,4.119,0,0
-0.0007698258000000001,-0.000205635,-0.00074803178,-0.00014029899999999998,0.003777798,4.12,0,0
-0.0009017252000000001,0.000463445,-0.0008971637800000001,-0.0007555408,0.0036698620000000003,4.121,0,0
-0.0012254688000000002,0.0016369622000000001,-0.0014381977800000004,-0.0009974546,0.00368576,4.122,0,0
-0.0011948762,0.0028042402000000004,-0.0015135596000000002,-0.0012950946,0.0030990166,4.123,0,0
-0.0006303478,0.0026138518,-0.0008903244,-0.0012374546,0.0011780126,4.124,0,0
-0.0001169518000000001,0.0015032355999999997,-0.0002622704,-0.000833965,-0.0003953814,4.125,0,0
0.00023566319999999996,0.0005527716000000001,0.0004353696,-0.0007363208000000001,-0.0016560014,4.126,0,0
0.0005835432,-0.0009033564000000003,0.0010736116000000001,-0.0006800561,-0.0030332954,4.127,0,0
0.0007794484,-0.0022840684000000003,0.0015811352,3.9627900000000014e-05,-0.0034117179999999998,4.128,0,0
0.0010052280000000002,-0.0019959682000000004,0.001852686,0.0007153939,-0.0026960358,4.129,0,0
0.00120154,-0.0010547680000000002,0.0018758820000000002,0.0006237843000000002,-0.0018557197999999997,4.13,0,0
0.0012308240000000002,-0.0006959404000000002,0.0019262180000000004,0.0006700597000000002,-0.0014400341999999998,4.131,0,0
0.0011193110000000002,-0.00035598240000000005,0.0020581980000000002,0.0008518308000000002,-0.000649167,4.132,0,0
0.0006431230000000001,0.0002188536,0.0018571780000000001,0.0005909828,0.00033340500000000005,4.133,0,0
0.0002059634,0.0007334538,0.0013168726000000002,7.71642e-05,0.0009665148000000002,4.134,0,0
-0.0002933425999999999,0.0009429180000000001,0.0005696006,-8.493599999999976e-06,0.0019193508,4.135,0,0
-0.0009703586,0.0008327424,-0.0003996954000000001,-4.6804999999999997e-05,0.0032036392,4.136,0,0
-0.0011917096,0.0008136014000000001,-0.0014361334000000002,-0.0005747840000000001,0.003677824,4.137,0,0
-0.0014351216,0.0009861854,-0.0022230694,-0.0008924780000000002,0.003474666,4.138,0,0
-0.0017589139999999999,0.0007997974,-0.0026143340000000003,-0.0012557954000000002,0.00352278,4.139,0,0
-0.0015842078,0.00023109900000000002,-0.0025389540000000004,-0.0021061256,0.0024645137999999996,4.14,0,0
-0.0011367416000000001,4.901300000000004e-05,-0.0019226165999999998,-0.0026303820000000006,0.0004743317999999999,4.141,0,0
-0.0005470936,0.0001469416000000002,-0.0011434962,-0.0025202880000000003,-0.0002530442000000001,4.142,0,0
0.00027329240000000004,-0.00037221491999999995,-0.00033864619999999986,-0.0023688634000000003,-0.0011600082000000002,4.143,0,0
0.0009091564,-0.0010315499199999999,0.0005984878,-0.0015943374000000003,-0.0027866542000000005,4.144,0,0
0.0009601178000000001,-0.0005297105200000001,0.0014783138,-0.00020039340000000007,-0.003348336,4.145,0,0
0.0008795010000000001,0.0004102934800000001,0.0017700784000000002,0.0005761265999999999,-0.0031745740000000003,4.146,0,0
0.0008658470000000001,0.0003883438800000001,0.0019294020000000002,0.0011249186000000001,-0.00335615,4.147,0,0
0.0007569756000000001,0.00010831240000000008,0.00212719,0.001829406,-0.0031948700000000003,4.148,0,0
0.0004253566,0.00038124780000000014,0.001541728,0.002143368,-0.001831476,4.149,0,0
0.00037099660000000005,0.00023766340000000015,0.0005750100000000001,0.002062556,-0.000566892,4.15,0,0
0.0006435952,-0.0004198336000000001,-0.00020218399999999995,0.0021669140000000003,0.0007111120000000001,4.151,0,0
0.0004745986000000001,-0.00047546560000000004,-0.0011488180000000002,0.0023071240000000002,0.0026243440000000002,4.152,0,0
0.00031219600000000004,-0.00017326360000000004,-0.0020595920000000003,0.0018395340000000003,0.003989316,4.153,0,0
0.00019732220000000006,-4.443400000000007e-05,-0.002383458,0.0010666836000000001,0.004138336,4.154,0,0
-0.00018400339999999994,4.260657999999994e-05,-0.0024917380000000003,0.00013646559999999988,0.004044198000000001,4.155,0,0
-0.000566688,-0.0002487564200000001,-0.0025114220000000006,-0.0008172764000000001,0.0037001320000000005,4.156,0,0
-0.0007724342000000001,-0.00053434642,-0.0020927660000000002,-0.0013021378000000004,0.0018388140000000002,4.157,0,0
-0.0006430664,-0.0006461432200000002,-0.0013882300000000003,-0.0012350612000000003,8.347600000000019e-05,4.158,0,0
-0.0003713546,-0.00115286322,-0.0005850600000000002,-0.0007281248000000002,-0.0007689499999999999,4.159,0,0
-5.80012e-05,-0.0015540748,0.00040684200000000003,0.00013626119999999995,-0.002146366,4.16,0,0
0.0003620374,-0.0008196508,0.0015155560000000002,0.0009630252,-0.003374856,4.161,0,0
0.0006238960000000001,0.0007325052000000001,0.0022649280000000003,0.0012235446000000002,-0.003448218,4.162,0,0
0.0006662596000000001,0.0019018940000000001,0.002424438,0.0011860444000000002,-0.003257168,4.163,0,0
0.0009101506,0.0025502040000000004,0.002317796,0.0010536984,-0.003515042,4.164,0,0
0.00090688382,0.002043682,0.0019464016000000002,0.0008223714000000002,-0.002803206,4.165,0,0
0.00041211582,0.00040102400000000026,0.0010974156,0.0005803497800000001,-0.0013485939999999998,4.166,0,0
0.00036444442000000007,-0.00136993,0.00029277360000000007,0.0005115297800000001,-0.0005588639999999998,4.167,0,0
0.00030871082,-0.0026092144,-0.0001272664,0.00041688538000000003,0.0007340320000000001,4.168,0,0
-0.00010124977999999998,-0.0024053184,-0.0007561804000000001,9.801717999999998e-05,0.002767724,4.169,0,0
-0.0002935854,-0.0009075023999999998,-0.00148261,-5.4130620000000015e-05,0.004061588,4.17,0,0
-0.0004102174000000001,0.00040472200000000005,-0.001723058,-0.00044258700000000004,0.004419198,4.171,0,0
-0.0006724946,0.0010034851800000003,-0.001996524,-0.0011022290000000001,0.004611222,4.172,0,0
-0.0008530826000000001,0.00133381378,-0.002266998,-0.001763699,0.003981932600000001,4.173,0,0
-0.0007838620000000001,0.00101513978,-0.0017670522,-0.0024988368,0.0022160246000000002,4.174,0,0
-0.0006914984,0.00072489178,-0.0008608462,-0.0027219180000000003,0.0005197966000000001,4.175,0,0
-0.0005220934,0.0007914769800000001,1.9969800000000108e-05,-0.0022141094,-0.0011477734,4.176,0,0
-0.00028301240000000005,0.00018477780000000007,0.0010905158,-0.0015443266,-0.0031380694000000004,4.177,0,0
-4.7642800000000004e-05,-0.00036767239999999996,0.0017647297999999999,-0.0005839746000000001,-0.00450175,4.178,0,0
7.889839999999996e-05,-0.0005666942,0.001964696,0.0005979894,-0.004686006,4.179,0,0
0.00024305559999999998,-0.0008724535,0.0021268800000000003,0.0010161528,-0.004619982,4.18,0,0
0.0006376126000000001,-0.0006349651,0.0018339048,0.0007781142000000002,-0.004145604,4.181,0,0
0.0008698444000000001,0.0004219929000000001,0.0013837728,0.00061256824,-0.002303964,4.182,0,0
0.0006332954,0.0014868269000000002,0.0012636288,0.00039568244000000004,-0.00040276600000000015,4.183,0,0
0.0005151854400000001,0.0019908747000000004,0.0009275728,0.00020476404,0.000800572,4.184,0,0
0.00039469284000000004,0.0024720340000000006,-5.841199999999933e-06,0.00031477244000000003,0.002399596,4.185,0,0
-0.00015303116000000002,0.0021756620000000005,-0.000648046,0.00032400424,0.00385529,4.186,0,0
-0.00037732396000000006,0.0008367760000000002,-0.001051648,0.00011908619999999998,0.004279672,4.187,0,0
-0.00020134616000000004,-0.0003214219999999999,-0.001932382,-0.000122658,0.00424853,4.188,0,0
-0.00016856180000000002,-0.001131764,-0.002558002,-0.00048473159999999995,0.004006684,4.189,0,0
-0.00017006540000000003,-0.0017530967999999998,-0.002343944,-0.0005923074,0.0025131899999999998,4.19,0,0
-4.764480000000001e-05,-0.001816578,-0.00183942254,-0.000302411,0.00029805,4.191,0,0
-0.000270642,-0.0015729140000000003,-0.00137234594,-0.00028281439999999997,-0.0012430599999999998,4.192,0,0
-0.0005246842,-0.001691006,-0.00030910594000000004,-0.00015219479999999997,-0.0030757560000000002,4.193,0,0
-0.00048202480000000006,-0.0015100615999999998,0.00103785006,0.0001880974,-0.004856606,4.194,0,0
-0.0003467008,-0.0014091254000000001,0.00187416806,0.0003304534,-0.005112392,4.195,0,0
-0.0001149446,-0.0016383181999999998,0.0023242126,0.0006623251999999999,-0.004410514,4.196,0,0
0.00011829520000000003,-0.001099135,0.0024287280000000002,0.0010627478,-0.0038658780000000005,4.197,0,0
0.00025065620000000005,-0.0003439774000000001,0.002276038,0.0012989176,-0.0028953734000000007,4.198,0,0
0.00036288460000000005,-3.4595800000000005e-05,0.0016742494,0.0014046554,-0.0008850274000000003,4.199,0,0
0.00047357100000000005,0.00029952479999999996,0.0009828934,0.0011135794,0.0007823225999999999,4.2,0,0
0.0002064662,0.0005020798,0.0005699494,0.0005198516,0.0018924706,4.201,0,0
-0.0004098896,0.0007014969999999999,-2.111260000000004e-05,0.00017505739999999998,0.0034650386000000004,4.202,0,0
-0.0008653086000000002,0.0011432674,-0.0005670086,-0.000384578,0.004919662,4.203,0,0
-0.0011538164000000001,0.0012359074000000002,-0.0012943660000000001,-0.0008771479999999999,0.005049916000000001,4.204,0,0
-0.0014450904000000004,0.0011177802000000001,-0.001855798,-0.0008814194,0.0046034660000000005,4.205,0,0
-0.0014270264000000002,0.0011069101999999999,-0.0021214660000000002,-0.0011896776,0.004182394,4.206,0,0
-0.0007989366000000001,0.0009826498,-0.002282032,-0.0015106314,0.00260174,4.207,0,0
-9.526259999999997e-05,0.0005317648000000001,-0.0020051540000000003,-0.0013567494000000001,0.000542314,4.208,0,0
-2.8238199999999993e-05,0.00010492459999999999,-0.0012679986000000002,-0.001067816,-0.000958378,4.209,0,0
0.0003066598000000001,-3.0269000000000018e-05,-0.0004169972000000001,-0.0008809280000000001,-0.0026866320000000004,4.21,0,0
0.0011462138000000001,5.099599999999999e-05,0.0004120148000000001,-0.0004471884000000001,-0.00413608,4.211,0,0
0.0014405740000000002,-9.039200000000004e-05,0.0013665108000000003,4.923339999999999e-05,-0.00438931,4.212,0,0
0.001204212,-0.00029195500000000005,0.0017734928000000005,0.0005704654,-0.004352508,4.213,0,0
0.0011669658000000001,-0.00016398402000000002,0.0021424814000000005,0.001248678,-0.00424817,4.214,0,0
0.0010118746000000003,-0.0006565852200000001,0.0022713080000000005,0.0015234194000000002,-0.0030318518,4.215,0,0
9.586259999999999e-05,-0.00139899322,0.00191903,0.0016847618000000002,-0.0014567518000000003,4.216,0,0
-0.0005659394,-0.00155259122,0.0012787098,0.001779716,-0.0004198378000000001,4.217,0,0
-0.0005026922000000001,-0.00136945102,0.00038622380000000005,0.001527989,0.0010991602,4.218,0,0
-0.0005398502,-0.0004709778000000001,-0.0003176822,0.0010215428000000001,0.0030739422,4.219,0,0
-0.0006106012000000001,0.0013228062000000002,-0.0013392402000000003,0.0004154368000000001,0.004434602,4.22,0,0
-0.00014249579999999994,0.0029226702,-0.0020801682000000004,-1.0252000000000254e-06,0.004947218,4.221,0,0
0.00014157220000000003,0.003266441,-0.0021865260000000003,-0.0001850556,0.004844588,4.222,0,0
-2.4457799999999974e-05,0.0023392768,-0.002242154,-0.0005630566,0.004140594000000001,4.223,0,0
-1.1295600000000008e-05,0.0006789188000000004,-0.0020234788,-0.0010752824,0.0022988099999999997,4.224,0,0
2.9483800000000004e-05,-0.0008745732000000001,-0.0011629382000000001,-0.0010663678000000002,-0.00011252799999999987,4.225,0,0
-4.820100000000002e-05,-0.0019053752000000002,-0.0005022108000000001,-0.0011773958000000002,-0.001957298,4.226,0,0
-1.452280000000001e-05,-0.0020846768,-7.337900000000004e-05,-0.0013467934000000003,-0.0036738520000000005,4.227,0,0
0.00041488600000000005,-0.0009910988,0.000810095,-0.0008232994,-0.004885932000000001,4.228,0,0
0.0006225366,5.811720000000001e-05,0.0015717558,-0.00022255139999999995,-0.004880524,4.229,0,0
0.0004001298,0.0007101092000000001,0.0020300152,0.00012386060000000004,-0.004186058,4.23,0,0
0.0006098232000000001,0.0019282392,0.0023676298,0.0007596406,-0.0032502686,4.231,0,0
0.001033323,0.0025620879999999997,0.0022986954,0.0014574746,-0.0017165846,4.232,0,0
0.000952271,0.0020846714,0.0015118874,0.0015467166,0.0002365634,4.233,0,0
0.0009721502,0.0010466114,0.0005657054,0.0013060608,0.0016255554,4.234,0,0
0.0013174018,-0.0007988066,-0.0004485886000000001,0.0012366360000000002,0.0030487754000000002,4.235,0,0
0.0008480536000000001,-0.0028321926,-0.0017514246,0.0010523568000000002,0.004564592,4.236,0,0
-0.00024772840000000004,-0.0036946626000000002,-0.002299428,0.0002258147999999999,0.005128156,4.237,0,0
-0.0012055364000000002,-0.0035740589999999997,-0.0021623759999999997,-0.00039890720000000006,0.004576706000000001,4.238,0,0
-0.0018323122000000003,-0.00288456,-0.00218284,-0.0006273726000000002,0.004017256,4.239,0,0
-0.0022346882000000004,-0.0014303786000000001,-0.0018753734,-0.0010656004000000002,0.0028796060000000003,4.24,0,0
-0.0022660738000000002,-0.00018739060000000002,-0.0009971904000000001,-0.0013026444,0.0003493559999999999,4.241,0,0
-0.0016516138,0.0003841414,-0.00025625039999999994,-0.0011424476,-0.001546988,4.242,0,0
-0.0009371398000000001,0.0004275704,0.00022653560000000003,-0.0009558366,-0.0031288400000000004,4.243,0,0
-0.00023135980000000002,0.00029787779999999994,0.0011180516,-0.0007640363400000001,-0.005061948,4.244,0,0
0.00019954420000000003,0.00015154460000000003,0.0018804050000000004,-0.0005466327400000001,-0.005838894000000001,4.245,0,0
0.00037549599999999996,-0.00014186200000000003,0.0019664634000000005,-0.0004124927400000001,-0.005316808,4.246,0,0
0.000707514,-0.000360396,0.0020487874,0.00015191245999999996,-0.004452737200000001,4.247,0,0
0.0011857360000000002,-0.000508147,0.0023797834,0.00076324146,-0.0030317556000000003,4.248,0,0
0.001229258,0.00012307460000000002,0.0022410254,0.0012837944000000001,-0.0009792756,4.249,0,0
0.0009090029999999999,0.0008901084,0.0014697576,0.0019498368000000002,0.00045177040000000013,4.25,0,0
0.0010059492,0.0008672258,0.0010243582,0.0020221886,0.0015986504000000002,4.251,0,0
0.0007682347999999999,0.0008730858000000001,0.0004440201999999998,0.0015480192,0.0029645856000000003,4.252,0,0
4.411479999999999e-05,0.0013959448000000001,-0.0006210197999999999,0.0005924612,0.0038502740000000003,4.253,0,0
-0.00027168460000000005,0.0020858068000000002,-0.0016609458,-0.0005614468,0.004258390000000001,4.254,0,0
-0.0002032476,0.0034347308,-0.002424508,-0.0011407196,0.0046837680000000005,4.255,0,0
-0.0005267098,0.005549358000000001,-0.0030488240000000003,-0.0014596902,0.004721304,4.256,0,0
-0.0007635550000000002,0.0057246818,-0.0032919439999999998,-0.0018177108000000002,0.0032753100000000005,4.257,0,0
-0.0006328394000000001,0.0035790638,-0.002562642,-0.0017241948000000001,0.0012760060000000003,4.258,0,0
-0.0008177280000000001,0.0006611997999999991,-0.0018656036000000002,-0.0014144508,-0.0003402339999999997,4.259,0,0
-0.00077445114,-0.003087136200000001,-0.0007048255999999998,-0.0014713760000000002,-0.00252609,4.26,0,0
-0.00012732913999999996,-0.0064158182,0.0011679984,-0.0011748864000000001,-0.004623542,4.261,0,0
0.00045743845999999996,-0.0071741700000000005,0.0021545244,-0.00033255039999999995,-0.004959984,4.262,0,0
0.00105874486,-0.005725482,0.0023484064,0.00048264560000000007,-0.00435686,4.263,0,0
0.00201162886,-0.0039793376,0.002755988,0.0009342922,-0.004007628,4.264,0,0
0.0022190660000000004,-0.0023646891999999997,0.002931556,0.0011024088,-0.0028470580000000004,4.265,0,0
0.0016115740000000002,-0.0014028412,0.00197355356,0.0012964092000000002,-0.0007512260000000001,4.266,0,0
0.000889442,-0.0009769378,0.0011125135600000002,0.0011091512000000001,0.0005584480000000001,4.267,0,0
-0.00010223799999999999,-0.0004347738000000001,0.0004328475600000001,0.0008199344000000001,0.001462724,4.268,0,0
-0.001078346,-8.782020000000008e-05,-0.00068077044,0.0008755402,0.0031429380000000005,4.269,0,0
-0.0015015680000000002,0.00044289340000000006,-0.00182338244,0.00082828274,0.004204402,4.27,0,0
-0.0017303280000000002,0.0011326334000000002,-0.0026116620000000003,0.0005314327400000001,0.004376362,4.271,0,0
-0.0018705500000000003,0.0014743438,-0.002665288,0.00036494774000000004,0.004912832,4.272,0,0
-0.001586072,0.0013307600000000003,-0.0027019680000000003,-6.294545999999999e-05,0.0044895336,4.273,0,0
-0.00108017,0.0008111479999999999,-0.0022762894,-0.0006963598599999999,0.0023045796,4.274,0,0
-0.000602252,0.0015991960000000002,-0.0012015774000000003,-0.000828032,0.0005983695999999997,4.275,0,0
-0.0001967284,0.00477421,-0.0002629846,-0.0009409296,-0.0009414824000000001,4.276,0,0
0.0004201512,0.0086671442,0.00030996940000000003,-0.0012670546,-0.0034188644000000003,4.277,0,0
0.0008877192,0.011937166,0.0010114574,-0.0008477564000000001,-0.004691984000000001,4.278,0,0
0.0007869754000000001,0.011531084000000002,0.0019024648000000003,-0.00012398440000000003,-0.0046370100000000004,4.279,0,0
0.0007342574,0.006286550000000001,0.0021629848,3.113279999999992e-05,-0.004984848000000001,4.28,0,0
0.0012585458,2.394999999999958e-05,0.0024075499999999996,0.0004767064,-0.0048786279999999994,4.281,0,0
0.0015592301999999998,-0.00674813,0.002604546,0.0012449003999999999,-0.003435833,4.282,0,0
0.0010875122000000002,-0.012778330000000001,0.0023223828000000003,0.0015472602,-0.001752277,4.283,0,0
0.000681636,-0.012836726000000001,0.00155827758,0.0015759822000000001,-7.702299999999996e-05,4.284,0,0
0.0003657088,-0.008517116000000002,0.00054416958,0.0016925297999999997,0.002268593,4.285,0,0
-0.0005480172,-0.005633137600000002,-0.00058293042,0.0011582458,0.004520875000000001,4.286,0,0
-0.0014910292000000001,-0.0032345876000000003,-0.0016713844200000002,-5.2034199999999916e-05,0.005515562000000001,4.287,0,0
-0.0016683572,-0.0005522476000000001,-0.00226170722,-0.0010925302,0.005715632,4.288,0,0
-0.0015687212000000002,0.00017890400000000007,-0.0027786200000000003,-0.0018898662,0.005314958,4.289,0,0
-0.0016272446000000001,9.637319999999998e-05,-0.002690712,-0.00264597,0.0038701426,4.29,0,0
-0.0013850332,0.0004086148,-0.0017848952,-0.0027284080000000003,0.0013551566000000001,4.291,0,0
-0.0007473168,0.0007655560000000001,-0.0010035789999999999,-0.002261182,-0.0009777274,4.292,0,0
-2.7330800000000053e-05,0.0007957976000000001,-0.0005293209999999999,-0.0020757120000000004,-0.0026300894,4.293,0,0
0.0008246092000000001,0.0004139460000000001,0.00030855100000000006,-0.0015442786,-0.0043914634,4.294,0,0
0.0016213938000000001,-0.0001298651999999999,0.001081949,-0.0005935205999999999,-0.005150908000000001,4.295,0,0
0.0021516484,-0.00026916719999999997,0.0012456322,0.00019944540000000005,-0.004418640000000001,4.296,0,0
0.00235845,0.0003140436000000001,0.0015578260000000002,0.0008673074,-0.003666964,4.297,0,0
0.0022191008,0.0008040100000000002,0.0018313180000000002,0.0015961154,-0.003103318,4.298,0,0
0.00153784508,0.0015266580000000002,0.0014773902000000002,0.001799234,-0.0013487619999999999,4.299,0,0
0.00042063707999999997,0.0024405220000000005,0.0008776524,0.0014244134,0.0005191680000000002,4.3,0,0
-0.00046601292000000003,0.00265643,0.0003885768,0.0011905014,0.0015103640000000002,4.301,0,0
-0.00117721492,0.0026123120000000003,-0.0005245632,0.0009310944,0.0031004760000000004,4.302,0,0
-0.0018402137200000002,0.0024995160000000002,-0.0012706912,0.00045356400000000005,0.00467325,4.303,0,0
-0.00224747,0.002077054,-0.0016106294,0.00010918099999999996,0.004890686,4.304,0,0
-0.0020138960000000003,0.0012145520000000003,-0.0020112216,-0.00018336040000000006,0.0044130540000000005,4.305,0,0
-0.001497732,0.0005025244000000001,-0.00215491,-0.0007973804,0.003991568,4.306,0,0
-0.0010446952,-0.00013150379999999994,-0.0017410859999999998,-0.0012594994000000002,0.002643776,4.307,0,0
-0.000497128,-0.0008633038,-0.0007822159999999999,-0.0012416518000000001,0.0006778760000000001,4.308,0,0
1.101800000000005e-05,-0.0011451338,6.319400000000003e-05,-0.0008957868,-0.000616724,4.309,0,0
0.0007085680000000001,-0.0011738638,0.0009582060000000001,-0.00042225300000000015,-0.0022638040000000003,4.31,0,0
0.001264454,-0.0011164508,0.001798062,-6.536176600000002e-05,-0.004274992,4.311,0,0
0.0014398672,-0.0008978114000000001,0.00238828,0.0006138662340000001,-0.005176568,4.312,0,0
0.0015042322000000002,-0.0006091638000000001,0.0026456540000000003,0.0013121390340000002,-0.005127614,4.313,0,0
0.0016292622,-0.00019261600000000003,0.0027147920000000006,0.0013955110340000002,-0.004919082,4.314,0,0
0.0015205662000000002,0.00032427840000000003,0.0026767040000000002,0.001536807234,-0.0039547826,4.315,0,0
0.0009284254,0.0004857834,0.00212980654,0.0016804826,-0.0021448046,4.316,0,0
0.0003281294000000001,0.0003786658,0.0016424215399999998,0.0012398720000000002,-0.0004382705999999999,4.317,0,0
0.00014090180000000003,0.0008942501999999999,0.00067451954,0.000811807,0.0013729074000000002,4.318,0,0
-0.00014895659999999994,0.0020311004000000002,-0.00075773446,0.0005867655999999999,0.0034081534,4.319,0,0
-0.0007195806,0.002754676,-0.0018510184600000002,2.3737600000000008e-05,0.00489425,4.32,0,0
-0.0009840558,0.0026327112,-0.002495827,-0.00034524100000000004,0.005529156,4.321,0,0
-0.0011260078,0.0014964495999999997,-0.0027835,-0.00043465120000000005,0.005607922000000001,4.322,0,0
-0.0013218124000000003,-0.00021215639999999994,-0.002847632,-0.0008597502000000001,0.004805838,4.323,0,0
-0.0015394520000000002,-0.0013459114000000001,-0.00218455,-0.0012858128,0.0026461120000000004,4.324,0,0
-0.0013792988000000002,-0.0016118374000000002,-0.0013390660000000003,-0.0012701868,0.0005642600000000003,4.325,0,0
-0.0008980063999999999,-0.0016609300000000001,-0.0006048104000000001,-0.0011839170000000003,-0.0009887619999999998,4.326,0,0
-0.0005390578,-0.001677266,0.00018627359999999992,-0.0011393274000000002,-0.003293828,4.327,0,0
-2.3901800000000002e-05,-0.001840838,0.0009922696,-0.0008413234000000002,-0.005026924,4.328,0,0
0.0007309802000000001,-0.002634541,0.0017681456,-0.0003760646,-0.005099494,4.329,0,0
0.0009717666,-0.0033333088,0.0023715736,0.00012707940000000002,-0.004876474,4.33,0,0
0.000904967,-0.0031722826,0.002794372,0.0003633976,-0.004648904,4.331,0,0
0.0011742066000000001,-0.0022006250000000003,0.002237181,0.0006481266,-0.0029346102,4.332,0,0
0.0009687802000000001,-0.0006132034,0.0012758609999999999,0.0009741146,-0.0006425382000000001,4.333,0,0
0.0005400570000000001,0.0007775026,0.0004500450000000001,0.0007973776,0.0006869197999999999,4.334,0,0
0.0003200646,0.0016146864,-0.000618979,0.0005232866000000001,0.0022956898000000003,4.335,0,0
8.026040000000002e-05,0.0023206052,-0.0017871730000000002,0.0003746412,0.0041463018,4.336,0,0
-0.0001789692,0.0026541016,-0.0024241720000000005,0.00015571080000000001,0.004959428,4.337,0,0
-0.0006909508,0.002000824,-0.00228012,3.3681400000000006e-05,0.004704156,4.338,0,0
-0.0014124516,0.000935808,-0.002266842,8.065974000000001e-05,0.004344306000000001,4.339,0,0
-0.0017950608,0.0007513,-0.0021926460000000004,-0.00014220126000000002,0.0033011108,4.34,0,0
-0.0017073092,0.000938614,-0.0018925640000000002,-0.0006545518600000001,0.0012848908000000002,4.341,0,0
-0.0013986477999999999,0.000974848,-0.001478286,-0.0011059472600000002,-0.0003401792,4.342,0,0
-0.0004964338000000001,0.0010470240000000001,-0.0008738099999999998,-0.00140869946,-0.0017370092000000001,4.343,0,0
0.0006620502,0.0010021259999999999,-9.762400000000004e-05,-0.0012898386,-0.0034087572,4.344,0,0
0.0013954242,-0.00019345799999999998,0.000876922,-0.0007259266,-0.004498080000000001,4.345,0,0
0.0015012850000000002,-0.0025102480000000005,0.001897412,0.0001533554,-0.0046193760000000006,4.346,0,0
0.0013845734000000002,-0.003950856,0.002807462,0.0008284136,-0.0047478139999999995,4.347,0,0
0.0013433794000000002,-0.003247556,0.0032412020000000003,0.0013438132000000002,-0.004147666,4.348,0,0
0.0008310382,-0.0007231579999999998,0.002934084,0.0016228422,-0.0022267339999999997,4.349,0,0
0.0005448652,0.002426894,0.0019435180000000004,0.0010230162,-0.00042397799999999977,4.35,0,0
0.0008656262,0.006601246,0.0008244679999999999,0.00048721219999999996,0.0011947620000000003,4.351,0,0
0.0008021358,0.009018390000000001,-0.0006637240000000001,0.0003901561999999999,0.003300938,4.352,0,0
0.00024234379999999998,0.006007504,-0.002313892,8.62614e-05,0.0048559680000000004,4.353,0,0
-0.0006607050000000001,0.00040030400000000107,-0.0029639440000000005,-0.0003443166000000001,0.005057658,4.354,0,0
-0.0016522440000000002,-0.004114642,-0.002879908,-0.0003506026,0.004767792000000001,4.355,0,0
-0.0022134018,-0.0076876800000000006,-0.0027102560000000003,-0.00020571479999999996,0.004524254,4.356,0,0
-0.0026492298,-0.0088941616,-0.0019184364,-0.0002501084,0.0032533968000000003,4.357,0,0
-0.00247757776,-0.006030265200000001,-0.0005191884,-0.00020216179999999994,0.0008680628,4.358,0,0
-0.00082390976,-0.0026161254,0.0004181856,-0.00016509219999999994,-0.0008257352,4.359,0,0
0.00063307024,-0.0006474802,0.0007963219999999999,-0.0002154502,-0.0023408552000000003,4.36,0,0
0.00124415604,0.00012872200000000003,0.001508006,-0.000152884,-0.0042104212,4.361,0,0
0.00213936604,-0.00013245039999999997,0.0021690604,0.0002650354000000001,-0.00506327,4.362,0,0
0.0022870446,-0.0005075108,0.0019890424,0.0007031856,-0.004873732,4.363,0,0
0.0015584186,-0.0004880636,0.0018225624,0.001007618,-0.0045170720000000004,4.364,0,0
0.0014943005999999998,-5.0944799999999926e-05,0.002075616,0.0015151744000000001,-0.0034254304000000007,4.365,0,0
0.0014581086,0.0004459370000000001,0.001758103,0.0018362624,-0.0013034104000000004,4.366,0,0
0.000894805,0.0007245784000000002,0.0010916952,0.0013406634,0.00020221759999999975,4.367,0,0
0.0006576114000000001,0.0009102444000000001,0.0007933152000000002,0.0004715954000000001,0.0014191176,4.368,0,0
0.00044182339999999996,0.0012926594000000002,0.00028881519999999995,0.00010847620000000004,0.0033944456,4.369,0,0
-0.00026218459999999993,0.0012323194,-0.00042930280000000006,-0.0004039322,0.004791694,4.37,0,0
-0.0010393846,0.0010375994,-0.0011378678000000001,-0.0014008062000000002,0.004708756,4.371,0,0
-0.001530479,0.0014632080000000001,-0.0018057239999999999,-0.0016985092000000002,0.004688872000000001,4.372,0,0
-0.0016396908000000003,0.001872472,-0.002460788,-0.0016212692000000001,0.00469326,4.373,0,0
-0.0014146677400000002,0.001936306,-0.00263781,-0.0019088340000000003,0.0028577460000000004,4.374,0,0
-0.0010670773400000002,0.00210096,-0.0022436080000000002,-0.00189093,0.000557712,4.375,0,0
-0.00041308734000000013,0.002192636,-0.0015667938,-0.0013541128,-0.000987318,4.376,0,0
-3.2595399999999874e-06,0.001976408,-0.00036738379999999994,-0.0011025274000000002,-0.002838492,4.377,0,0
0.00015338626000000003,0.001349992,0.0007823782,-0.0010131696,-0.0044345980000000005,4.378,0,0
0.0006458032,0.000195546,0.0014045062,-0.0004640696000000001,-0.004836522,4.379,0,0
0.0008204228000000001,-0.0006767520000000001,0.0015553462,0.0001997904,-0.004923394000000001,4.38,0,0
0.0007412874,-0.0010113262000000002,0.0018314179999999998,0.0005932432000000001,-0.004921864000000001,4.381,0,0
0.0011226716000000002,-0.0010335502000000003,0.0017263,0.0010142778000000001,-0.0038376350000000003,4.382,0,0
0.0015381246,-0.0004231722000000001,0.001012762,0.001551,-0.002099343,4.383,0,0
0.0011896906,0.00048422340000000007,0.0005533036000000001,0.001549744,-0.0006912070000000001,4.384,0,0
0.0004278506,0.0006054424000000002,7.370159999999998e-05,0.0011333075999999998,0.0010491670000000002,4.385,0,0
-0.00025133800000000004,0.0002947526000000001,-0.0008589804,0.0009548469999999999,0.003371489,4.386,0,0
-0.00081185,0.00014280500000000008,-0.0017135724000000001,0.0007468086,0.004858188,4.387,0,0
-0.001694972,-5.418999999999997e-06,-0.0018635004,6.730860000000001e-05,0.0051746019999999995,4.388,0,0
-0.002200678,-6.584599999999995e-05,-0.0018698635999999998,-0.0005641374,0.005396334,4.389,0,0
-0.0017659208,-5.7471399999999966e-05,-0.0018588756,-0.000915357,0.00512005,4.39,0,0
-0.0013285212000000001,0.00014177920000000004,-0.0014004954,-0.0014591423999999998,0.003093544,4.391,0,0
-0.0008928328000000003,0.00017718920000000003,-0.0005172134,-0.0016203174000000002,0.0008424499999999998,4.392,0,0
-0.00035232559999999995,-0.0004693768,0.0003002646,-0.0010863214,-0.000947114,4.393,0,0
0.0002140024,-0.0015467853999999999,0.0009212602000000001,-0.0005917278000000001,-0.003368724,4.394,0,0
0.0006281952,-0.002207467,0.0015892681999999999,0.00012548020000000004,-0.004773718,4.395,0,0
0.0008452616,-0.0023209898,0.00210562,0.0010096022000000001,-0.004650492,4.396,0,0
0.0009284208,-0.0020003682,0.002262018,0.0011844634000000003,-0.004669294,4.397,0,0
0.0011060896,-0.0009326202000000001,0.00215801,0.0010139702000000002,-0.004186118,4.398,0,0
0.0012024596000000001,0.0004803637999999999,0.0018727284000000003,0.0010866630000000003,-0.002040192,4.399,0,0
0.000935672,0.0011417188,0.0014380319800000002,0.0010771670000000002,-0.0006022859999999999,4.4,0,0
0.0008235716,0.001118977,0.00099166918,0.0010271490000000002,-0.0001956657999999999,4.401,0,0
0.0004575642000000001,0.001428979,-2.4712819999999952e-05,0.0010925112,0.0018186182000000002,4.402,0,0
-0.00029676180000000004,0.001730447,-0.00132104082,0.0007514784000000001,0.0039737222,4.403,0,0
-0.0009527638000000001,0.001539837,-0.0020519172200000003,0.000303688,0.004239946200000001,4.404,0,0
-0.0014582922,0.001224596,-0.0023599188,1.650600000000002e-05,0.0043321642,4.405,0,0
-0.0019704418,0.0005890760000000001,-0.002669854,-0.0004999212,0.004836568,4.406,0,0
-0.001997952,-0.0006948520000000001,-0.0026560919999999997,-0.0007438992000000001,0.00338542,4.407,0,0
-0.0013331298,-0.0018153992000000002,-0.0016151254,-0.00043344320000000006,0.0008811280000000003,4.408,0,0
-0.0006680157999999999,-0.0022748332000000005,-0.0005378134000000002,-0.00035043920000000004,-0.000623838,4.409,0,0
2.5810199999999985e-05,-0.0020273672,0.00015299660000000012,-0.0005980592,-0.0023360860000000002,4.41,0,0
0.0006176236000000001,-0.001368972,0.0011989646,-0.0004949454,-0.00454431,4.411,0,0
0.0009537694000000001,-0.0009389976000000001,0.0023322866000000005,-0.000494807,-0.00559719,4.412,0,0
0.0010186404,-0.0007176712000000001,0.002726348,-0.0006568424000000001,-0.005503402,4.413,0,0
0.0009503764000000001,-0.00043810840000000007,0.0027197840000000003,-0.00020176840000000004,-0.005244858,4.414,0,0
0.0009784624,-0.00014038540000000003,0.002919826,0.0004725176,-0.004195823600000001,4.415,0,0
0.0009808198,-2.8867000000000013e-05,0.0022429034000000002,0.0007317690000000001,-0.0019312196000000005,4.416,0,0
0.0009656580000000001,-0.00010376160000000001,0.0011695374,0.0008082694,0.00020567239999999998,4.417,0,0
0.0009986168000000002,-0.0004156628,0.0003039274,0.0011320188,0.0017294584,4.418,0,0
0.0009090032,-0.0004270966,-0.0007770986,0.0008864459800000001,0.0036937484000000003,4.419,0,0
0.0005093478,-0.00013125960000000004,-0.0019492426,8.643398000000011e-05,0.005230926,4.42,0,0
0.00026676179999999996,0.0005687468,-0.0029182419999999997,-0.00023068661999999993,0.005533484,4.421,0,0
2.695699999999998e-05,0.001500893,-0.0030825360000000003,-0.0005235994199999999,0.005570604,4.422,0,0
-0.000478257,0.002074633,-0.00293825,-0.0011606574199999999,0.005087744000000001,4.423,0,0
-0.0008718053999999999,0.0023446480000000004,-0.0025182746,-0.0015073506,0.003039212,4.424,0,0
-0.001060026,0.0016850100000000002,-0.0021012916,-0.0013096934000000001,0.000580234,4.425,0,0
-0.0010676192,0.00046386400000000003,-0.0013671716,-0.0012861953999999999,-0.001100498,4.426,0,0
-0.0008709598000000001,-0.00035685180000000004,-0.00015975960000000008,-0.0012098118000000001,-0.002797094,4.427,0,0
-0.00038386980000000006,-0.0009794358000000001,0.0005511104,-0.0008130338000000001,-0.003937546,4.428,0,0
0.00026547820000000005,-0.0017491698,0.001200995,-0.0004339186000000001,-0.004034062000000001,4.429,0,0
0.0008336102000000001,-0.0017730318,0.001821538,-2.051180000000005e-05,-0.0039196560000000005,4.43,0,0
0.0008866080000000002,-0.0011980678,0.002253816,0.0005161708000000001,-0.0037094000000000007,4.431,0,0
0.0006574528,-0.000294076,0.002079818,0.0009939352000000001,-0.0027835898,4.432,0,0
0.0001195188000000001,0.0011608259999999998,0.0014858244,0.0009877752,-0.0013770898,4.433,0,0
-0.0005785472000000001,0.0027884959999999997,0.0007922864,0.0011166888,-0.0001884297999999999,4.434,0,0
-0.0005251832,0.003994232,0.00011554040000000002,0.0012001388000000002,0.0015653162,4.435,0,0
-0.0006462053999999999,0.0031464799999999997,-0.0005060436000000001,0.000640431,0.0035653142,4.436,0,0
-0.0010740507999999998,0.0014686419999999998,-0.0013732196,4.325900000000003e-05,0.0045560819999999995,4.437,0,0
-0.0009961288,0.0008226340000000001,-0.0016154099999999998,-0.00015852500000000002,0.004713836,4.438,0,0
-0.0010163907999999999,0.0008052359999999998,-0.001666702,-0.00044268220000000003,0.00480496,4.439,0,0
-0.0012680164,0.000533606,-0.001718836,-0.0009913882000000002,0.0038970269000000004,4.44,0,0
-0.0007682556000000001,-0.000341556,-0.00130753728,-0.0012601544,0.0015578109000000003,4.441,0,0
0.00020573040000000003,-0.001476826,-0.00063873128,-0.0011148632000000003,-0.00031040310000000025,4.442,0,0
0.0008568584000000001,-0.002978548,0.0003383507200000001,-0.000954381,-0.0019093771000000003,4.443,0,0
0.0017623644000000003,-0.0042215318,0.00109782672,-0.000986948,-0.0038746191,4.444,0,0
0.00243345,-0.0037927817999999997,0.0019109427200000003,-0.00035626200000000004,-0.004856652,4.445,0,0
0.0022725668,-0.0017474538000000006,0.0026714580000000003,0.00053286,-0.004378526000000001,4.446,0,0
0.0017755212,-0.0003791458000000004,0.0029217520000000006,0.0008476132000000001,-0.003917568000000001,4.447,0,0
0.0013661472,-0.00018427980000000025,0.002828324,0.0013505130000000002,-0.0035307080000000005,4.448,0,0
0.0006290984000000002,-0.0004598640000000002,0.002338366,0.0020587564000000003,-0.0019943412000000002,4.449,0,0
-0.0002556458,-0.0009870940000000002,0.001549984,0.0021417864000000003,-0.0002492572000000002,4.45,0,0
-0.0002381938,-0.0007839780000000002,0.0006895774000000001,0.0018671824000000001,0.0008073848,4.451,0,0
-0.00031067660000000006,0.00025004799999999984,-0.0002849566,0.0015634124,0.0022084888,4.452,0,0
-0.0009189686,0.0011825628,-0.0016606146000000001,0.0007916483999999999,0.0038762168000000003,4.453,0,0
-0.0012835258,0.0012593468,-0.0024074766000000006,-8.489360000000004e-05,0.004543986,4.454,0,0
-0.0014225336,0.0006013081999999999,-0.0024727746,-0.0008294176,0.004559062,4.455,0,0
-0.001679693,-0.0003471778,-0.002588758,-0.0014357256,0.0045303620000000005,4.456,0,0
-0.0020154306,-0.0006962709999999999,-0.002165019,-0.0017503220000000001,0.0036504332,4.457,0,0
-0.0016662966,-0.00010513180000000001,-0.0011870478,-0.0018665760000000002,0.0016683371999999998,4.458,0,0
-0.0007672326000000001,0.0003784302,-0.00037348059999999997,-0.0015907318,-2.9678800000000052e-05,4.459,0,0
-0.00018887860000000006,0.0006034548000000001,0.00020286740000000002,-0.0013778770000000002,-0.0018622088000000002,4.46,0,0
0.00013906799999999995,0.0008448308000000001,0.0011094634,-0.0011924496000000001,-0.0044052248,4.461,0,0
0.0008278552,0.0005202340000000001,0.0017952424,-0.0005319556000000001,-0.0058632879999999995,4.462,0,0
0.0013420152000000003,8.8706e-05,0.0019000432000000002,0.0001485384,-0.005601416,4.463,0,0
0.0012589752,0.00028042800000000005,0.0019072422,0.0007947902,-0.004962546,4.464,0,0
0.0012231472,0.000849902,0.0017092544,0.0015579054000000002,-0.0039797328,4.465,0,0
0.0012244492000000001,0.0018279960000000001,0.0009994964,0.002304196,-0.0014377828,4.466,0,0
0.0009997076,0.002978552,0.00017294800000000003,0.002619082,0.0009243772000000001,4.467,0,0
0.0005702404,0.003830598,-0.000501934,0.0024627218000000005,0.0021168092,4.468,0,0
0.000140973,0.003944273999999999,-0.0010624542,0.0018311098000000003,0.0034748872,4.469,0,0
-0.00041900300000000004,0.0021741800000000004,-0.0016114504,0.0008766458000000003,0.00466904,4.47,0,0
-0.001071387,-0.00046051399999999976,-0.0023981064,-0.0001599382,0.00484584,4.471,0,0
-0.0014247426,-0.002392964,-0.002788936,-0.0010866402,0.00425896,4.472,0,0
-0.0019607674,-0.004333698,-0.002562988,-0.001464496,0.003958918,4.473,0,0
-0.002324716,-0.005496852,-0.0020972898000000003,-0.00200443,0.0028706188,4.474,0,0
-0.0018742436000000003,-0.0042346466,-0.0013436858,-0.0022162180000000003,0.0005703568000000002,4.475,0,0
-0.0010951856,-0.0020502365999999998,-0.0001614918000000001,-0.001740888,-0.0012915732000000001,4.476,0,0
-0.00015729159999999993,-0.0004965126,0.0009547362000000002,-0.0014363758,-0.0028780491999999998,4.477,0,0
0.0011090504,0.0014745954000000001,0.0018244242000000003,-0.0010943264,-0.0046497232,4.478,0,0
0.0022323244,0.0038127174000000003,0.002645002,-0.0002840184,-0.00556478,4.479,0,0
0.0025385560000000004,0.00531411,0.0030380760000000002,0.0002902642,-0.00514093,4.48,0,0
0.0021332296,0.004214848,0.0031570700000000005,0.00010105200000000002,-0.004685979999999999,4.481,0,0
0.0014864924000000004,0.0008033739999999999,0.002899128,-1.669619999999995e-05,-0.0035345702,4.482,0,0
0.0008285684000000001,-0.0021339239999999997,0.0021037876000000004,-0.00018342519999999993,-0.0012726742000000002,4.483,0,0
0.00025473739999999997,-0.004269382,0.0011113416,-0.0006921272,0.00037603980000000005,4.484,0,0
-8.269299999999998e-05,-0.005807106,-5.364839999999992e-05,-0.000869836,0.0018427618,4.485,0,0
-0.0004919725999999999,-0.004615066,-0.0012579784,-0.0005177418,0.0038175358,4.486,0,0
-0.0007178633999999999,-0.0010616360000000001,-0.0022475944,-0.00026517440000000005,0.005137750000000001,4.487,0,0
-0.00039319140000000007,0.0012891460000000001,-0.002862082,4.8676799999999994e-05,0.005218042,4.488,0,0
-0.0004104698,0.0013614160000000003,-0.003419562,0.0006003468000000001,0.0049879239999999995,4.489,0,0
-0.0006192776000000001,0.0008394020000000003,-0.0035439100000000004,0.0007787472000000001,0.004308398800000001,4.49,0,0
-0.00015145420000000007,0.000705518,-0.0027267434000000004,0.0006950466,0.0022772027999999997,4.491,0,0
0.00025845640000000003,0.00016106319999999999,-0.0016496034000000003,0.0007302626,8.23248e-05,4.492,0,0
0.0001041824,-0.000534025,-0.0006201893999999999,0.0005842576,-0.0015310952000000002,4.493,0,0
0.0003953118,-0.0005135490000000001,0.0006110666000000002,0.00046408280000000005,-0.0032066612000000005,4.494,0,0
0.0011523380000000001,-0.000310253,0.0017753486000000001,0.0007672006000000001,-0.004327804,4.495,0,0
0.0014894126,-0.00036501499999999995,0.0021683860000000004,0.0010704632,-0.004395538,4.496,0,0
0.001693624,-0.00016677820000000004,0.002375856,0.0015518218,-0.004290798,4.497,0,0
0.00165274042,0.00020981599999999993,0.0026641700000000004,0.0018372992000000002,-0.004273546,4.498,0,0
0.00080580642,0.00039601899999999995,0.002454606,0.0017749203999999998,-0.0030126094,4.499,0,0
-0.00028010957999999997,0.0004726353999999999,0.001997568,0.0014910872,-0.0011817794,4.5,0,0
-0.00106053358,0.00035155159999999996,0.0013768486,0.0008996232,-4.813739999999988e-05,4.501,0,0
-0.00161562958,0.0004156015999999999,0.0005396905999999999,0.0005049884000000001,0.0015693886000000003,4.502,0,0
-0.00202737,0.0008062216,-0.0005345994000000001,8.133060000000002e-05,0.0036050206,4.503,0,0
-0.0019077120000000002,0.0011801906,-0.0016926994000000003,-0.00046704779999999995,0.004740744,4.504,0,0
-0.001738418,0.0011096502,-0.0023881554000000004,-0.0008602206,0.005007682,4.505,0,0
-0.0018868920000000003,0.0009478242000000001,-0.0025765760000000006,-0.0012104626,0.0048940960000000006,4.506,0,0
-0.0017712452,0.0011665302,-0.0025655860000000003,-0.0019013598,0.0038930821999999996,4.507,0,0
-0.0013364979999999998,0.0018827962,-0.0018369880000000001,-0.002274846,0.0017640181999999996,4.508,0,0
-0.0008586022000000002,0.0029556802000000005,-0.0006658999999999999,-0.002120002,-0.0006718958000000001,4.509,0,0
-0.0002817662000000001,0.0040036602,-0.00017919020000000004,-0.002114016,-0.0026263758,4.51,0,0
0.0004490252000000001,0.0038792922000000004,0.00032212180000000003,-0.0017068436,-0.0041556578,4.511,0,0
0.0005842100000000002,0.0010018442,0.0011167958000000001,-0.0009754098,-0.005056226,4.512,0,0
0.0005767678000000001,-0.0027837238000000004,0.0011641978000000001,-0.00021055979999999998,-0.004850141999999999,4.513,0,0
0.0007995300000000001,-0.004641265800000001,0.0010274702,0.0005546202000000001,-0.004255924,4.514,0,0
0.000748264,-0.004747519800000001,0.0014894264000000002,0.0015240242000000002,-0.0035558540000000002,4.515,0,0
0.0009129386000000001,-0.0038811240000000006,0.0018205784,0.0022292618,-0.0018778599999999999,4.516,0,0
0.001438093,-0.0015657378,0.0012938464,0.002106639,-9.837399999999992e-05,4.517,0,0
0.001616146,0.0005772042000000001,0.0007895704,0.0018281188000000002,0.001183922,4.518,0,0
0.00113683,0.0015600922000000004,0.00047312359999999987,0.0011008168,0.003196206,4.519,0,0
0.0007293902000000001,0.0020539202000000004,-0.0004604464000000002,0.00019313299999999995,0.005026640000000001,4.52,0,0
0.0002805154000000001,0.0014173514,-0.0014559544,-0.0005903090000000001,0.005551442,4.521,0,0
-0.0005154586,0.0002704512000000004,-0.0019648824,-0.0012707880000000001,0.00532341,4.522,0,0
-0.0010913726000000002,-0.00028502279999999985,-0.0021114364,-0.0015171858,0.004846258,4.523,0,0
-0.0012733086000000001,-0.0005744775999999997,-0.0020039012,-0.0013038948,0.0032849966,4.524,0,0
-0.0013202838,-0.0011816816,-0.0014320208000000003,-0.0012878654,0.0009590145999999999,4.525,0,0
-0.0010222638,0.00011329920000000015,-0.0007501068,-0.0013056114,-0.0006890214000000001,4.526,0,0
-9.490380000000019e-05,0.0023288352000000005,5.082520000000007e-05,-0.0007656768,-0.0022305014000000003,4.527,0,0
0.0006742662,0.0020026452000000004,0.0009583892000000001,-0.00024535679999999996,-0.0038224734,4.528,0,0
0.0011638412,-0.00012610599999999996,0.0014867464000000003,0.0003099202,-0.004672402000000001,4.529,0,0
0.0015229759999999999,-0.0025130860000000003,0.0018572200000000004,0.0007516826,-0.004665598,4.53,0,0
0.0014443682000000002,-0.004878282,0.002048854,0.0012391226,-0.004530992,4.531,0,0
0.0009521974,-0.006061950400000001,0.0021412980000000002,0.001808268,-0.00362897,4.532,0,0
0.000427354,-0.004703598000000001,0.0018300836000000003,0.001819156,-0.001694366,4.533,0,0
0.00027573100000000003,-0.0021625299999999997,0.0012411966000000002,0.0011328374,-1.4828000000000042e-05,4.534,0,0
0.00023340280000000001,0.000577198,0.0005825025999999999,0.0005093074,0.0012877780000000003,4.535,0,0
-5.386900000000001e-05,0.002608464,-0.00047796540000000004,0.00030592299999999994,0.0029661800000000006,4.536,0,0
-0.00048200620000000006,0.0032912984,-0.0014066754000000002,-0.00012191479999999995,0.0047945060000000005,4.537,0,0
-0.0006021888000000001,0.0032688760000000004,-0.002101131,-0.0004116677400000001,0.005307434000000001,4.538,0,0
-0.0009978908,0.0030105440000000004,-0.002558604,-4.115134000000004e-05,0.0051094,4.539,0,0
-0.0016439524,0.002369512,-0.002710128,0.00021563285999999998,0.004736358,4.54,0,0
-0.001767522,0.001051878,-0.0022197586,-1.5192739999999997e-05,0.002983684,4.541,0,0
-0.001475744526,0.00028890440000000007,-0.0012918565999999996,0.00010405726,0.0006055459999999998,4.542,0,0
-0.001266031326,0.00027630800000000007,-0.0003944525999999997,0.0001388802,-0.0011666880000000004,4.543,0,0
-0.0009567839260000001,-0.00030006400000000006,0.0006436954,-0.0002525406,-0.0027842860000000004,4.544,0,0
2.532607399999997e-05,-0.00090865,0.0017151114000000002,-0.00011725819999999998,-0.00378559,4.545,0,0
0.0007416760740000001,-0.0008112080000000001,0.002676988,0.000194216,-0.0038935820000000005,4.546,0,0
0.0009821726000000001,-0.0008777504000000001,0.0028858440000000003,0.00022163980000000004,-0.004076304,4.547,0,0
0.0014568474,-0.0009726260000000002,0.0027224980000000003,0.0005984698000000001,-0.0038726820000000006,4.548,0,0
0.001847842,-0.0006853300000000002,0.0023599188,0.0010726228000000001,-0.0025651240000000002,4.549,0,0
0.0013753220000000002,-0.0001961926,0.0015968362,0.0010754701999999999,-0.0010502680000000003,4.55,0,0
0.0008790134,0.0004659334000000001,0.0005509922,0.001082454,0.00012721399999999984,4.551,0,0
0.0007620468,0.0009528534000000001,-0.0006095658000000001,0.0007605368,0.0018545480000000001,4.552,0,0
8.329480000000003e-05,0.0010964314,-0.0012797778,-0.00031068320000000003,0.0034579160000000005,4.553,0,0
-0.0005460292,0.0014313074000000003,-0.0016698986000000002,-0.0014327612,0.0037016920000000004,4.554,0,0
-0.0007599992000000001,0.0013163800000000002,-0.0019349480000000001,-0.0023958692,0.0033968160000000004,4.555,0,0
-0.0009955166000000003,0.00022440600000000002,-0.002241058,-0.0032523192,0.003188658000000001,4.556,0,0
-0.0011114037200000001,-0.0001636428,-0.002502686,-0.0038210180000000002,0.002074574,4.557,0,0
-0.0006855745200000001,-7.419680000000001e-05,-0.002272514,-0.0035563160000000003,1.9231999999999995e-05,4.558,0,0
-0.00010734452000000008,-0.0005018454,-0.0018493192,-0.0027318420000000004,-0.0015276579999999999,4.559,0,0
0.00028054788,-0.0002841354,-0.0011123292,-0.0017636574,-0.0029278840000000004,4.56,0,0
0.00052871208,0.0004634174,0.0004125107999999998,-0.0007611093999999999,-0.004730734,4.561,0,0
0.0004977046000000001,0.0002682802000000001,0.0017168188,-3.77276e-05,-0.0058186800000000006,4.562,0,0
0.00034320319999999995,-0.0007318298000000001,0.0022170168,0.0005271962,-0.005719674,4.563,0,0
7.611720000000002e-05,-0.0015492452,0.002526596,0.0009788382000000002,-0.00532474,4.564,0,0
-0.0001003852,-0.0022483852,0.0023712396,0.0012521556000000002,-0.004744628,4.565,0,0
9.54684e-05,-0.0023024906,0.0016359476,0.00116612,-0.0026990539999999993,4.566,0,0
0.00034375160000000004,-0.0014084666000000001,0.0012316502000000002,0.0013490522,-0.00023965800000000002,4.567,0,0
0.0004943744,-0.0002468945999999998,0.0009188942,0.0016853304000000002,0.0015903400000000002,4.568,0,0
0.0005088344,0.0014109874,0.00040532020000000004,0.0017965784000000002,0.0038962600000000003,4.569,0,0
0.00013253440000000004,0.0028494154000000002,-3.9165399999999996e-05,0.0019712904000000002,0.005660178,4.57,0,0
-0.0004238274,0.0032487780000000003,-0.0009329934,0.002019106,0.005946388,4.571,0,0
-0.0008761734,0.00307112,-0.0018852959999999998,0.0016633226000000003,0.00585559,4.572,0,0
-0.001245196,0.002940326,-0.002499042,0.0007836586000000002,0.0055316060000000005,4.573,0,0
-0.0012686350000000002,0.00195554,-0.0026588479999999997,-0.0002041334000000001,0.0040197544000000005,4.574,0,0
-0.00087821084,-0.000359074,-0.0020151559999999997,-0.0010784554,0.0020089984000000003,4.575,0,0
-0.00050528384,-0.002230424,-0.0008525739999999999,-0.0014881914000000002,0.00042123440000000007,4.576,0,0
-9.412203999999998e-05,-0.0032848940000000004,0.00023239599999999995,-0.0015301986,-0.0016304796000000002,4.577,0,0
0.00056681596,-0.003955162,0.0012022,-0.0012471308,-0.0036810696000000006,4.578,0,0
0.00095436096,-0.0038357504000000003,0.0018913940000000002,-0.0006458009999999999,-0.0048081420000000005,4.579,0,0
0.0012018568000000001,-0.0024038400000000004,0.0016411532000000003,-0.0001739612,-0.004989510000000001,4.58,0,0
0.0016540278000000002,-0.0008909626,0.0012075716000000002,0.00028358280000000005,-0.004547136000000001,4.581,0,0
0.001788034,-0.0002866352,0.0011209902000000002,0.0007570294000000001,-0.0036547296,4.582,0,0
0.0013075819999999998,0.0002225654,0.0007327734000000001,0.0012448456,-0.0016240756,4.583,0,0
0.000504938,0.0003838134000000001,0.0004820840000000001,0.0015757498000000003,0.0004386244,4.584,0,0
2.8783999999999852e-05,0.0003255968,0.0005781298,0.0016308266,0.0021516024,4.585,0,0
-0.0005514702,0.0007281574,0.0002067474,0.0015074780000000002,0.0040808104,4.586,0,0
-0.0014978042000000002,0.0011093680000000001,-0.0005337632000000001,0.0013174222000000002,0.005382046000000001,4.587,0,0
-0.0017780422,0.0009871226000000002,-0.0011335004,0.0007056124,0.005390954,4.588,0,0
-0.0015204101999999999,0.0010059574,-0.0020397070000000004,-8.903960000000003e-05,0.0048895219999999994,4.589,0,0
-0.0016527822,0.00096455,-0.002981908,-0.00033612420000000005,0.004292306,4.59,0,0
-0.0015362914,0.0005866094,-0.0030209020000000002,-0.0008158456000000001,0.00220115,4.591,0,0
-0.00090254706,0.0005629674000000001,-0.0024080024,-0.0016314458000000003,3.830599999999989e-05,4.592,0,0
-0.00052969446,0.0009327882000000001,-0.0013301124000000002,-0.0016826980000000003,-0.001364816,4.593,0,0
3.293154e-05,0.0012981918,0.00016103960000000018,-0.0013324172,-0.003074782,4.594,0,0
0.00088589154,0.0009438554000000001,0.0017733356000000002,-0.0011741724000000002,-0.004621944000000001,4.595,0,0
0.0015099689400000001,0.00053987,0.0028435676,-0.0005503884,-0.005035434000000001,4.596,0,0
0.0020761626,0.000871276,0.00318272,0.00031572579999999994,-0.0046153,4.597,0,0
0.002359864,0.000945298,0.0030584140000000006,0.0005822060400000001,-0.004668402,4.598,0,0
0.0020072352,0.00018800399999999997,0.0023271748000000003,0.00087241924,-0.004180746000000001,4.599,0,0
0.0014211453999999999,-0.000454016,0.0013221096000000003,0.00114411844,-0.0026460819999999997,4.6,0,0
0.0007206282,-0.000877526,0.0004918818000000001,0.0009145552400000001,-0.000962178,4.601,0,0
-1.0009600000000101e-05,-0.001826486,-7.711419999999997e-05,0.00090536324,0.0008976560000000004,4.602,0,0
-0.0005659710000000001,-0.001927746,-0.0008780402000000001,0.0009130846000000001,0.00346123,4.603,0,0
-0.0007763624000000001,0.0004360820000000002,-0.001666857,0.0004941400000000001,0.00559837,4.604,0,0
-0.0008364794,0.0035120080000000005,-0.0020067698,2.3044999999999994e-05,0.006149944000000001,4.605,0,0
-0.0011921522000000002,0.0036522840000000004,-0.002208756,-0.0004950058,0.005947078000000001,4.606,0,0
-0.0014293424000000002,0.0018907799999999999,-0.0022328400000000003,-0.0012691,0.004917434000000001,4.607,0,0
-0.0012424790000000001,0.000566128,-0.0016277902,-0.0018806876000000002,0.0025582540000000003,4.608,0,0
-0.0010599268,-0.0018990820000000003,-0.0006451642,-0.002377835,-4.183200000000011e-05,4.609,0,0
-0.0008112364,-0.004632356000000001,0.00022953580000000006,-0.0023820816,-0.0018422439999999998,4.61,0,0
-8.773240000000001e-05,-0.004541224000000001,0.0011048958,-0.0016839016,-0.003832778,4.611,0,0
0.0006435316000000001,-0.0024465677000000004,0.0018122258,-0.0010489027999999998,-0.005474466000000001,4.612,0,0
0.0012175976000000002,-0.0011781257000000002,0.002241546,-0.0003029799999999999,-0.005521900000000001,4.613,0,0
0.0016571256000000002,-0.0006534889000000001,0.002321594,0.0006678020000000001,-0.00500406,4.614,0,0
0.0016798946000000001,-5.737490000000001e-05,0.002069954,0.0012309456,-0.0042177694,4.615,0,0
0.0012915334000000002,0.00033126550000000003,0.0014862579999999999,0.0013691856000000002,-0.0023437374000000004,4.616,0,0
0.0005702194000000002,0.00033244856000000004,0.0008567344,0.0018076908,-0.00040178140000000017,4.617,0,0
-0.00018455299999999995,0.00015332936,0.00027641220000000004,0.001981652,0.0007373986,4.618,0,0
-0.0007107744,0.00023112556,-0.00033917979999999995,0.001978048,0.0024632926,4.619,0,0
-0.0009841648,0.00027976056000000003,-0.0010070898,0.001980252,0.004132922,4.62,0,0
-0.0012328616000000002,0.00030164396,-0.0016328738000000002,0.0016266314000000003,0.0048231920000000005,4.621,0,0
-0.0013634936000000001,0.0002713246,-0.0020040742000000003,0.0012291872000000001,0.005265922,4.622,0,0
-0.0012933755999999998,4.9022000000000155e-06,-0.0025341100000000004,0.0007447152,0.005340602,4.623,0,0
-0.0013082367999999998,-0.00048467880000000005,-0.00289074,0.0001691126,0.0041968638,4.624,0,0
-0.0012041028,-0.0008905038000000001,-0.0026092560000000003,-0.0005414174,0.0019419878,4.625,0,0
-0.0005954198,-0.0003033996000000001,-0.001686738,-0.0008218428,3.679979999999996e-05,4.626,0,0
-3.470519999999997e-05,0.0010307244000000004,-0.0006975920000000001,-0.0008943126000000001,-0.0021332182,4.627,0,0
0.00014075900000000004,0.0025246520000000005,0.000527846,-0.0010092426,-0.0043636022,4.628,0,0
0.00047422360000000006,0.0037053360000000005,0.0019164320000000002,-0.001022996,-0.00544821,4.629,0,0
0.0006298478000000001,0.0034569979999999998,0.002705746,-0.0008217535999999999,-0.00543621,4.63,0,0
0.0007173968000000001,0.001566988,0.002888372,-0.0006553682,-0.005199210000000001,4.631,0,0
0.0011311122000000002,-0.0005572259999999996,0.0025363654,-0.0005705002,-0.004509246,4.632,0,0
0.0015509024,-0.002303598,0.0017883306,-0.0002446688,-0.002283482,4.633,0,0
0.0016763904,-0.0034469080000000003,0.0009204852,-0.0003121568,-0.00043526399999999977,4.634,0,0
0.0015956747999999999,-0.0028417,0.0004274408000000001,-0.00043347320000000004,0.0011052460000000003,4.635,0,0
0.0014552936,-0.001147136,-0.0003667192,-0.0006739486,0.002138184,4.636,0,0
0.0007786276,0.00027092800000000003,-0.0007489206,-0.0009877866,0.0037499739999999997,4.637,0,0
-4.496639999999999e-05,0.0009678400000000002,-0.0013581058000000001,-0.0014782900000000002,0.0033645842000000004,4.638,0,0
-0.000440836,0.0013834614000000002,-0.0014248232000000003,-0.0011854694000000001,-0.0015194938000000005,4.639,0,0
-0.0009993188,0.0012807302000000004,0.0008929331999999997,0.0005701926,-0.0046282578000000005,4.64,0,0
-0.0014580496,0.0005971282000000002,0.0026609512,0.0023145326,-0.0044322558,4.641,0,0
-0.0008641496,0.00027010820000000004,0.0027731728,0.0036735926,-0.003007857799999999,4.642,0,0
-0.000551276,0.00017392019999999998,0.0025917868,0.004638914599999999,0.0011653420000000002,4.643,0,0
-0.0011455404000000001,0.0002744348,0.0010739136,0.0045156573999999994,0.010151882000000001,4.644,0,0
-0.0015638084,0.000866598,-0.0034795463999999997,0.0023366574,0.017987642,4.645,0,0
-0.0024249444,0.0014894060000000002,-0.0074392044,-0.00040689860000000003,0.02099326,4.646,0,0
-0.0038892904000000002,0.0014842800000000001,-0.009204512,-0.0027695566000000005,0.020073568,4.647,0,0
-0.004489964000000001,0.001828912,-0.009733464,-0.0047109566,0.015302726000000001,4.648,0,0
-0.0040182836,0.002161496,-0.008386778000000001,-0.006119514,0.007843646,4.649,0,0
-0.0025640976,0.0016134843999999998,-0.005554310000000001,-0.006747882,-0.0019477940000000005,4.65,0,0
-7.114359999999985e-05,0.0006820724,-0.0013136020000000005,-0.006218966000000001,-0.011067414000000001,4.651,0,0
0.0021543203999999996,-0.0010149596000000004,0.0030759859999999997,-0.005186838,-0.018324942,4.652,0,0
0.0039334544,-0.0030504716,0.006821752,-0.003266384,-0.023551060000000002,4.653,0,0
0.005645226,-0.004474039600000001,0.009715976000000001,-0.0008208160000000001,-0.026095780000000002,4.654,0,0
0.006497518,-0.004873430000000001,0.011554488000000002,0.00161456,-0.02530966,4.655,0,0
0.006077492,-0.0043478328,0.011547952000000002,0.003584748,-0.02115099,4.656,0,0
0.005334728,-0.0030813534000000004,0.009874416000000002,0.00490569,-0.015050360000000002,4.657,0,0
0.004304915,-0.0015157666000000002,0.007692387000000001,0.005406516,-0.007113560000000001,4.658,0,0
0.002479325,-0.00022123059999999998,0.004371085,0.00497227,0.0022255599999999997,4.659,0,0
0.00030585300000000003,0.00035016760000000007,0.00019640899999999982,0.004020298,0.01055322,4.66,0,0
-0.001764923,0.0010210584000000002,-0.003739823,0.0027722352,0.01695465,4.661,0,0
-0.003685381,0.002585331,-0.007155567,0.0014146452000000003,0.021683140000000004,4.662,0,0
-0.0054894,0.0034090562000000002,-0.009732018,-0.00021382079999999993,0.023201680000000002,4.663,0,0
-0.006388808000000001,0.0034592162,-0.010878214,-0.0018061008,0.020895488,4.664,0,0
-0.006117000000000001,0.003831976,-0.010426974,-0.0029875908000000003,0.016180240800000002,4.665,0,0
-0.0050460428,0.003280817,-0.008507094,-0.0033339040000000004,0.009592624800000001,4.666,0,0
-0.0031565067999999997,0.000569791,-0.005401615999999999,-0.0033076900000000003,0.0012914048000000002,4.667,0,0
-0.0006515907999999999,-0.002156481,-0.0015821239999999999,-0.0027686654000000006,-0.0063280552,4.668,0,0
0.0013414832000000002,-0.003266143,0.0023583939999999998,-0.0011822054000000001,-0.012171703200000002,4.669,0,0
0.0030096252,-0.003799916,0.00588973,0.0004906445999999999,-0.016520116,4.67,0,0
0.004694214,-0.0038548980000000003,0.00843253,0.0019189006,-0.01829418,4.671,0,0
0.005402276,-0.0023564080000000004,0.009409522,0.0035075166,-0.016851988000000002,4.672,0,0
0.005419356,0.0001463539999999999,0.008960328,0.0045589540000000005,-0.013337102,4.673,0,0
0.005294010000000001,0.0021040760000000003,0.00731666,0.004601592000000001,-0.00844769,4.674,0,0
0.004373162000000001,0.004329361,0.004734312,0.004386084,-0.0017301499999999997,4.675,0,0
0.0025709700000000005,0.005230810000000001,0.001740682,0.0034764856000000003,0.004577290000000001,4.676,0,0
0.0004986039999999999,0.002531778,-0.0009339760000000002,0.0018536776000000002,0.009319098000000001,4.677,0,0
-0.002008268,-0.0008191100000000001,-0.0036816700000000006,8.397560000000012e-05,0.013424852000000001,4.678,0,0
-0.004051878,-0.002454628000000001,-0.006492802000000001,-0.0014547604000000002,0.01602448,4.679,0,0
-0.005162338000000001,-0.003956864,-0.008056382,-0.0027861564000000003,0.015756440000000003,4.68,0,0
-0.005688112,-0.0043987060000000005,-0.00822308,-0.004118170000000001,0.013035020000000001,4.681,0,0
-0.005169188,-0.0016504360000000004,-0.0073844620000000005,-0.00471478,0.009330922,4.682,0,0
-0.0038477340000000002,0.0010457182000000002,-0.005178778,-0.004460986,0.0037512680000000003,4.683,0,0
-0.002180868,0.0012192106,-0.001729974,-0.004000106000000001,-0.0027799120000000007,4.684,0,0
-0.0007858240000000001,0.00045174580000000014,0.0012169600000000002,-0.0033536898000000007,-0.007860892000000001,4.685,0,0
0.0003633139999999999,-0.0003139382,0.0035882360000000007,-0.0018916258000000001,-0.011765912,4.686,0,0
0.001956762,-0.0011559142000000001,0.005778620000000001,-0.0002501678000000001,-0.014666134,4.687,0,0
0.0033426900000000006,-0.0015369804,0.007047490000000001,0.0012000702,-0.014852706000000002,4.688,0,0
0.0034977100000000002,-0.0011685988000000001,0.0073878,0.0026868402,-0.012594224000000001,4.689,0,0
0.003307852,-0.0003358060000000001,0.0066968060000000005,0.0037984639999999997,-0.009909995,4.69,0,0
0.003300868,0.0013370180000000001,0.005092269,0.004360956,-0.005515703,4.691,0,0
0.002090784,0.0026754360000000002,0.002978091,0.004469838,0.00026453700000000045,4.692,0,0
0.00045513,0.0026391160000000004,0.0003178949999999997,0.004084682,0.005037023,4.693,0,0
-0.00043754400000000005,0.00271936,-0.002628727,0.0030081962,0.009034201,4.694,0,0
-0.001359546,0.0028681,-0.005052199,0.0017803162000000002,0.012786952,4.695,0,0
-0.0023814120000000003,0.002145212,-0.006653982,0.0005865461999999999,0.01513292,4.696,0,0
-0.0029385540000000003,0.0013724522,-0.007530516000000001,-0.0011541538,0.014687558,4.697,0,0
-0.0029546520000000003,0.0013052201999999998,-0.007446412,-0.0028663978,0.012177338,4.698,0,0
-0.002989218,0.0008256967999999998,-0.006104258,-0.0036317440000000006,0.008518618,4.699,0,0
-0.0025119582,-0.00021189580000000009,-0.0036479980000000004,-0.003927460000000001,0.0032710620000000004,4.7,0,0
-0.0014931502,-0.0011159138000000001,-0.00095276,-0.0038268300000000002,-0.002757158,4.701,0,0
-0.0006104821999999999,-0.0019160080000000003,0.001359776,-0.0027529780000000005,-0.007437356000000001,4.702,0,0
0.0005560737999999999,-0.00227391,0.003771056,-0.0013881122000000002,-0.010359036000000002,4.703,0,0
0.0017587758,-0.0025953726000000005,0.00560942,-0.0005429432,-0.012349676,4.704,0,0
0.0026248260000000002,-0.0027996040000000002,0.006344968,0.00043129879999999994,-0.012271994000000001,4.705,0,0
0.0032234159999999998,-0.0026490236000000006,0.0064338239999999994,0.0013706007999999999,-0.009783204,4.706,0,0
0.003607454,-0.0023830216,0.0058378760000000005,0.0016526688000000002,-0.007027774400000001,4.707,0,0
0.003375352,-0.0018693036,0.004235648600000001,0.002178629,-0.0037858204000000006,4.708,0,0
0.0025737836,-0.0009485875999999999,0.0018745445999999997,0.002729176,0.0007910595999999998,4.709,0,0
0.0014648856,-0.00011318959999999986,-0.0002179094,0.0025924240000000003,0.0046020336,4.71,0,0
-0.00013081040000000017,0.000580702,-0.0023164294,0.0020700852,0.0072076036,4.711,0,0
-0.0016062664000000002,0.0018244900000000002,-0.0042313274,0.0012347952000000002,0.009903874,4.712,0,0
-0.0028153484000000006,0.0026931700000000004,-0.005419394000000001,6.512119999999998e-05,0.011252184,4.713,0,0
-0.0036805320000000002,0.0028008320000000005,-0.005667924,-0.0009978268,0.009958858000000001,4.714,0,0
-0.003632736,0.0028803580000000004,-0.005168382,-0.0018908708,0.0076454842,4.715,0,0
-0.0029403402000000006,0.00275608,-0.0042276878,-0.002646082,0.0044665522000000004,4.716,0,0
-0.0020565946,0.0024766300000000005,-0.0026217578,-0.0026444480000000006,-1.1079799999999832e-05,4.717,0,0
-0.0008551626000000002,0.0017947196000000002,-0.0007033177999999998,-0.0023943840000000003,-0.0042387238,4.718,0,0
0.0006589054000000001,0.00029430160000000006,0.0009932822,-0.0022726540000000003,-0.007610557800000001,4.719,0,0
0.0017155574,-0.0013117544000000002,0.0021698202000000003,-0.0018115078,-0.009801664,4.72,0,0
0.0024586036000000004,-0.0023411384,0.0033010900000000004,-0.0008806258000000002,-0.010568368000000002,4.721,0,0
0.003079778,-0.0029513224000000003,0.003939130000000001,0.00025107419999999996,-0.009702456,4.722,0,0
0.0029523758000000004,-0.003218034,0.004138188,0.0010715561999999998,-0.007761294,4.723,0,0
0.0026669438,-0.0027000780000000003,0.003967232000000001,0.0013658032,-0.0054794380000000005,4.724,0,0
0.0020280000000000003,-0.0014568948,0.0029061060000000003,0.0012315549999999998,-0.00256778,4.725,0,0
0.0007066320000000001,-0.0003936688000000001,0.0013690380000000002,0.000552959,0.00040217599999999997,4.726,0,0
-0.00036021999999999996,5.180919999999995e-05,-0.0002492759999999999,-0.0007595010000000001,0.0030068580000000003,4.727,0,0
-0.0013083598,0.0006538752,-0.0018084400000000001,-0.00134598928,0.005423896,4.728,0,0
-0.0026462018,0.0013277292000000002,-0.0032424940000000003,-0.0010852162800000001,0.00746776,4.729,0,0
-0.003592236,0.0012914838000000002,-0.0038625820000000003,-0.00098527628,0.008110736,4.73,0,0
-0.0036800140000000005,0.0010487224000000001,-0.0037397040000000004,-0.0006669044799999999,0.007554062,4.731,0,0
-0.0033796162000000003,0.0010740384000000002,-0.0030708714000000003,-0.00021012747999999998,0.0061286904,4.732,0,0
-0.0023462822,0.0010287064,-0.0021341634,-0.0004688012,0.0030704543999999995,4.733,0,0
-0.0008905202000000002,0.0008429873999999999,-0.0009327634000000001,-0.0007305414,-0.0003290096000000001,4.734,0,0
0.00029930179999999987,0.0008347628,0.00047942060000000003,-0.00018485340000000004,-0.0024957436,4.735,0,0
0.0012821158,0.0009051862000000001,0.0015474886,5.8474399999999983e-05,-0.0043091376,4.736,0,0
0.0016842140000000003,0.0006034224,0.0022841780000000004,0.00016862200000000003,-0.006363474000000001,4.737,0,0
0.0016660940000000001,-0.00035452160000000004,0.0027383100000000003,0.0005652432000000001,-0.007048876,4.738,0,0
0.001898574,-0.0014756186000000001,0.0031588160000000005,0.0010515434,-0.006218548,4.739,0,0
0.002082582,-0.0021876058,0.0032430580000000005,0.0011646814,-0.005519704,4.74,0,0
0.002072258,-0.0025563772,0.0028081760000000003,0.0005549818,-0.004475916,4.741,0,0
0.002255468,-0.0022992634000000003,0.0020718354000000003,0.0003809324,-0.00197592,4.742,0,0
0.0021197314000000003,-0.0008584234000000002,0.0011646974,0.0006974072,0.000807866,4.743,0,0
0.0014579314000000001,0.0014154426,5.512339999999994e-05,0.0004607754,0.0028945660000000003,4.744,0,0
0.0007783048,0.0033081846000000007,-0.0011741386000000001,0.0003874414,0.004712666,4.745,0,0
-0.0002054852,0.0037608580000000006,-0.0024116785999999998,0.0012364294000000002,0.006461798,4.746,0,0
-0.0013966452,0.0022814180000000008,-0.0033451260000000003,0.0015561382000000002,0.007421518,4.747,0,0
-0.0020891346,0.0003264360000000007,-0.0036073600000000004,0.0014858702,0.007430156,4.748,0,0
-0.0024760086000000002,-0.001210056,-0.0035042320000000004,0.0014240312000000001,0.0071330560000000005,4.749,0,0
-0.002652124,-0.0027730520000000007,-0.0028725560000000005,0.0008692352000000002,0.005967654,4.75,0,0
-0.0021025844,-0.0029177802,-0.001447338,0.0007470612,0.0039625319999999995,4.751,0,0
-0.0008915003999999999,-0.0009045622,-7.113000000000009e-05,0.0009627152000000001,0.0020676,4.752,0,0
0.0001447076000000001,0.0017260778,0.000867524,0.0011698092,1.3453999999999875e-05,4.753,0,0
0.0006837544,0.0027359398,0.002161548,0.0018238759999999999,-0.001971954,4.754,0,0
0.0011221342,0.0014521978,0.003034712,0.002353098,-0.00263994,4.755,0,0
0.0012378824000000002,-0.0005388040000000004,0.002846726,0.002334076,-0.0023562934,4.756,0,0
0.0007110364,-0.0016247760000000005,0.0026056244,0.0021185339999999996,-0.0023265234,4.757,0,0
0.00017175060000000002,-0.0019654520000000003,0.0020401390000000003,0.0014239513999999998,-0.0016026588000000001,4.758,0,0
-9.3773e-05,-0.002300672,0.0008249990000000001,0.0006350084,-0.00010611080000000003,4.759,0,0
-7.544400000000009e-06,-0.0018068520000000005,-0.00011966079999999999,0.0001773636,5.046300000000001e-05,4.76,0,0
0.0004901758000000001,-0.0005755580000000002,-0.0007094088,-0.00036246840000000004,-0.0004222176,4.761,0,0
0.0008509758000000002,-0.0005110380000000001,-0.0014062331999999999,-0.0007811604000000001,0.00010836839999999999,4.762,0,0
0.0011315456,-0.0016149788,-0.0017303178000000002,-0.0010719538,0.0004247974,4.763,0,0
0.0014721564000000002,-0.0018359004000000003,-0.001517517,-0.0018749308,-0.0006066126,4.764,0,0
0.0011928131999999999,-0.0007477901999999999,-0.0014550138,-0.0027518480000000003,-0.0012391584,4.765,0,0
0.00031775719999999985,9.727180000000001e-05,-0.0014592557999999999,-0.0035036220000000005,-0.0017335104000000003,4.766,0,0
-0.00018744480000000005,0.00041009879999999996,-0.0008898967460000001,-0.004650126000000001,-0.0038855584,4.767,0,0
-0.0005823962000000001,0.0014551536,-0.00010466674600000006,-0.0052567280000000004,-0.005895504,4.768,0,0
-0.0009246992,0.0037484672,0.00029846445400000005,-0.004840536,-0.0066297180000000015,4.769,0,0
-0.0007541704,0.005867991,0.000603705054,-0.004101288,-0.006857452000000001,4.77,0,0
-0.0006963304,0.007168277000000001,0.0012390690540000002,-0.0030184984,-0.006604712000000001,4.771,0,0
-0.0005124544000000001,0.00744087,0.0016850320000000002,-0.0013845684,-0.005101782000000001,4.772,0,0
0.00016047499999999998,0.004192154,0.0017557940000000002,3.29256000000001e-05,-0.0031569614000000004,4.773,0,0
0.0005603100000000001,-0.0008430260000000002,0.001877572,0.0007851136,-0.0016515934000000002,4.774,0,0
0.0006330966,-0.003331888,0.001821918,0.0011215666,-3.36713999999999e-05,4.775,0,0
0.0007615206,-0.003601824,0.001412369,0.001296327,0.0015409026,4.776,0,0
0.0007429450000000001,-0.002622818,0.000771872,0.001399573,0.0028814706000000003,4.777,0,0
0.000549157,-0.0007406159999999999,-6.5258e-05,0.0014015170000000001,0.00407694,4.778,0,0
0.00019983419999999998,0.0005567480000000004,-0.001177554,0.0014165990000000002,0.005383862,4.779,0,0
-0.00026015040000000004,0.0006567620000000002,-0.001882158,0.0012178568,0.006053992,4.78,0,0
-0.0006077504,-0.00084346,-0.001956355,0.0009771127999999999,0.005552474,4.781,0,0
-0.0012036248000000002,-0.003285962,-0.0019264070000000002,0.0009481088000000001,0.0046974814,4.782,0,0
-0.0019480328000000002,-0.004082152,-0.0014073028000000003,0.0006992526000000001,0.0033018394,4.783,0,0
-0.0019992748000000004,-0.003726346,-0.0006298151999999999,0.0006561426000000001,0.0012881394,4.784,0,0
-0.0016999748000000002,-0.00405721,-0.00021410519999999993,0.0010938998,-0.0001654754,4.785,0,0
-0.0012636852000000001,-0.00435756,0.00016868820000000005,0.0011523834,-0.0008908594000000001,4.786,0,0
-0.0004388832000000001,-0.003922218,0.0006765712,0.000965901,-0.0017134568,4.787,0,0
0.00031088479999999993,-0.0027992905999999996,0.0010179210000000002,0.0010132292,-0.0019579748,4.788,0,0
0.0007786836,-0.0012517326,0.0012502914000000003,0.0009614048,-0.0014191598000000002,4.789,0,0
0.0011439536,-8.105459999999966e-05,0.0015334474000000002,0.0007249986,-0.0014087918000000002,4.79,0,0
0.001471668,0.0008606754000000001,0.0013936412000000002,0.0006447058,-0.0013315358,4.791,0,0
0.0015413400000000002,0.0021575314,0.0007222272,0.0007613502,-0.00011680780000000013,4.792,0,0
0.0013158078000000003,0.0026791700000000002,6.811319999999998e-05,0.0010497362,0.0011180942,4.793,0,0
0.0006206318000000002,0.00232056,-0.00035520580000000004,0.0012048246000000002,0.0015888112,4.794,0,0
-0.00022673420000000004,0.002334794,-0.0009272398000000001,0.0010520008,0.002584812,4.795,0,0
-0.0008363602,0.0025707020000000002,-0.0016147950000000002,0.000772106,0.003707118,4.796,0,0
-0.0012968004,0.002248962,-0.0015490170000000002,3.880800000000004e-05,0.0032918756,4.797,0,0
-0.0013352636000000001,0.0018292466,-0.0012363220000000002,-0.0007684760000000001,0.0021422055999999997,4.798,0,0
-0.0008721296000000002,0.0018094194,-0.0013741804000000002,-0.0013094136000000004,0.0015364250000000001,4.799,0,0
-0.0003883468,0.0013604694000000001,-0.0011128036,-0.0016254636000000002,0.00047200460000000003,4.8,0,0
-0.00019753560000000003,0.00069388548,-0.00025814239999999997,-0.0014131046,-0.0010441494,4.801,0,0
2.3210599999999706e-06,0.00031204108,0.00022861160000000003,-0.0005943646,-0.0011612064,4.802,0,0
-0.00011790514000000003,5.519648000000001e-05,0.0002797660000000001,0.00036629139999999995,-0.000977171,4.803,0,0
-0.00023131772000000003,-0.00041406032,0.00047927852,0.0010718330000000001,-0.0014183064,4.804,0,0
0.00014818747999999996,-0.0008058737200000001,0.0007006055200000001,0.001597623,-0.0013935142,4.805,0,0
0.00027084628,-0.0005478518000000001,0.0005284175200000001,0.0016158410000000002,-0.0006389080000000001,4.806,0,0
0.00043903602,-0.00029309400000000004,0.00010510011999999996,0.000883493,-0.0006992454000000001,4.807,0,0
0.00082386562,-0.000361414,-0.00013619528000000005,0.00017785260000000003,-0.0010876148,4.808,0,0
0.0007750158,-0.0006194639999999999,1.3747999999999977e-05,-0.0004123988000000001,-0.0004935756,4.809,0,0
0.0004198598,-0.0006788246,0.00019637219999999998,-0.0013929128,-0.0007538314000000001,4.81,0,0
0.00028895380000000005,-0.00045558860000000014,0.00011713819999999999,-0.0017070478,-0.0014034636,4.811,0,0
-8.85224e-05,-0.00010858999999999999,9.732159999999997e-05,-0.001480864,-0.0012312652000000001,4.812,0,0
-0.0006097464,0.00039365599999999993,-7.902840000000006e-05,-0.0017134256,-0.0007711812000000001,4.813,0,0
-0.00054996696,0.0008143507999999999,-0.00022986694000000005,-0.00161627336,-0.0006716584,4.814,0,0
-0.00058288676,0.000952021,-0.00033164294,-0.0008537425599999999,-0.00011885360000000002,4.815,0,0
-0.0003861025600000001,0.000706167,-0.0005020281399999999,-0.00061695516,0.0005159436,4.816,0,0
7.294344000000001e-05,0.0006766010000000001,-0.00029781214,-0.0006524639600000001,-3.816200000000006e-05,4.817,0,0
0.00035745464000000004,0.001187619,0.00014402506000000008,-0.00045347436000000007,-0.0006166440000000002,4.818,0,0
0.0005355922000000001,0.0016275702000000001,0.00014926560000000006,-0.000520398,-0.0009085122000000002,4.819,0,0
0.0006371754,0.0018903514000000003,-0.00010462139999999997,-0.0005966574000000001,-0.0011245548000000003,4.82,0,0
0.0008452152,0.001647633852,-7.066020000000002e-05,-0.0009331648000000001,-0.0012549636000000002,4.821,0,0
0.0008675192,0.00030309785199999996,2.7903799999999995e-05,-0.000844412,-0.0008148898000000001,4.822,0,0
0.000790286,-0.0015838661480000002,0.00030768459999999995,-0.0002485636,-5.8672399999999984e-05,4.823,0,0
0.0004727853999999999,-0.0031287041480000002,0.0005454202,-7.775999999999703e-07,-0.0001532106,4.824,0,0
0.00023876059999999996,-0.003787845548,0.0005686324,0.0005742790000000001,-0.0002896768,4.825,0,0
-0.00027152739999999995,-0.00312346,0.0005333572000000001,0.0015970190000000003,6.504680000000003e-05,4.826,0,0
-0.0010261154,-0.00168956,0.0005974470000000002,0.0020356272,0.00017931800000000003,4.827,0,0
-0.0013858014,-0.00029406800000000003,0.000398819,0.0019654532,0.0004991546,4.828,0,0
-0.0016293374000000002,0.001081333,-2.2442200000000027e-05,0.002236196,0.0011832129999999998,4.829,0,0
-0.0016511362000000002,0.001362341,9.997680000000002e-05,0.00228261,0.0016396590000000001,4.83,0,0
-0.001263936,0.00023139900000000008,0.00031262280000000003,0.001965678,0.0016180489999999999,4.831,0,0
-0.00038618599999999995,-0.000972993,-2.244560000000002e-05,0.0015893260000000003,0.001861564,4.832,0,0
0.0005863320000000001,-0.001603399,-0.00021691240000000001,0.000783514,0.001980796,4.833,0,0
0.001529514,-0.001116832,2.443660000000001e-05,-5.8817999999999924e-05,0.0013712444000000001,4.834,0,0
0.0019675602,-0.00017099,-0.00019322180000000001,-0.0005523196000000001,0.0011517582000000002,4.835,0,0
0.00182189,0.0006144260000000002,-0.00037560800000000004,-0.0010860516000000002,0.0010700342000000002,4.836,0,0
0.0015555542000000003,0.001573808,-0.000323354,-0.0012746576,0.0005935772,4.837,0,0
0.000935471,0.0016551740000000001,-0.0005317436000000001,-0.00103798,-0.00014195660000000004,4.838,0,0
-5.619700000000007e-05,0.0007296500000000001,-0.0007374436,-0.001093752,-0.00035377300000000004,4.839,0,0
-0.0007671610000000001,0.00011301240000000001,-0.0006652994000000001,-0.0015702424,-0.000542389,4.84,0,0
-0.000984153,-3.2500200000000045e-05,-0.00021194320000000004,-0.0017450284000000002,-0.001087453,4.841,0,0
-0.0014338532,-4.402200000000098e-06,9.612339999999996e-05,-0.0014061546000000002,-0.001142822,4.842,0,0
-0.0018626360000000002,0.0004346090000000001,0.0002990398,-0.0009733742,-0.0010477868000000003,4.843,0,0
-0.0014634520000000003,0.0009343850000000001,0.000916414,-0.00017950619999999992,-0.0010040308,4.844,0,0
-0.0008583686000000001,0.0012853266,0.0011869880000000001,0.0005970958000000002,-0.0008107068000000001,4.845,0,0
-0.0006502766,0.0013998172,0.000788112,0.0007656818000000001,-0.0005065742,4.846,0,0
-0.0002485024000000001,0.0006250892,0.0006244976999999999,0.00014188000000000004,-0.0008263202,4.847,0,0
0.00044349160000000006,-0.0004573680000000001,0.0006207006999999999,-0.000501324,-0.0014514736000000002,4.848,0,0
0.0007484696000000001,-0.0010788080000000001,0.00015395169999999998,-0.000932561,-0.0014037876,4.849,0,0
0.0006967592,-0.0014212262,-0.00029779230000000006,-0.00119273332,-0.0014838294,4.85,0,0
0.0006096638000000001,-0.0017252262000000003,-0.00023131090000000004,-0.00080881432,-0.00168541,4.851,0,0
0.00024177760000000014,-0.0013924166000000003,-0.00026363700000000005,-0.00046835912000000007,-0.0005878860000000001,4.852,0,0
-8.70838e-05,-0.0005087098,-0.0006549520000000001,-0.00038570912000000004,0.000795072,4.853,0,0
-0.00030733400000000004,-0.000221843,-0.000993661,-0.0006599561200000001,0.001407074,4.854,0,0
-0.00026918419999999996,1.1745199999999977e-05,-0.0009144860000000002,-0.0011148558000000002,0.002050206,4.855,0,0
4.200520000000003e-05,0.0009734012000000001,-0.0009878604,-0.0011434966000000001,0.002473452,4.856,0,0
0.00032989054,0.0020946236000000005,-0.0009708860000000001,-0.0008558350000000001,0.0014754280000000004,4.857,0,0
0.00068002994,0.0028346588000000006,-0.000503533,-0.0006400490000000002,-0.0001397359999999999,4.858,0,0
0.00084462414,0.0027222300000000004,-0.00018884040000000004,-0.00020355820000000002,-0.001356328,4.859,0,0
0.00099880334,0.0017820400000000004,0.00044039260000000005,0.0007320298,-0.0027022500000000002,4.86,0,0
0.00149727134,0.0005493320000000001,0.0011810976,0.0015750216,-0.003161228,4.861,0,0
0.0026509100000000002,-0.0007349680000000001,0.0013876296,0.0024377008,-0.0024813680000000003,4.862,0,0
0.0036416720000000003,-0.0014637398000000002,0.001340773,0.0036399407999999998,-0.001179478,4.863,0,0
0.003966166,-0.0012919802000000001,0.0015633544,0.0044922600000000005,0.00018425800000000002,4.864,0,0
0.003970796,-0.0009043662,0.0014528344000000002,0.0048108280000000005,0.00142913,4.865,0,0
0.0029889820000000003,-0.0010122722000000001,0.0009224874000000001,0.005096868000000001,0.003087424,4.866,0,0
0.0007370079999999999,-0.0013466862,0.0007611894000000001,0.0051502679999999995,0.00438479,4.867,0,0
-0.001424218,-0.0013456520000000001,0.00024229900000000002,0.004657308,0.005327646,4.868,0,0
-0.0029059260000000005,-0.0008973735999999999,-0.000771665,0.004213406,0.006329560000000001,4.869,0,0
-0.004489252,-6.001600000000041e-06,-0.001370395,0.0037032000000000002,0.0069569540000000004,4.87,0,0
-0.005245648,0.0007391724000000001,-0.0017738300000000001,0.0024466139999999997,0.006334314,4.871,0,0
-0.005086744,0.0005687844000000002,-0.002084396,0.0006697160000000001,0.005200952,4.872,0,0
-0.005210482000000001,-0.000324442,-0.0017922838000000003,-0.0011687380000000003,0.0036920408000000004,4.873,0,0
-0.004667722,-0.0012618500000000001,-0.0010885360000000002,-0.002991188,0.0006564548,4.874,0,0
-0.002955206,-0.002225224,-0.0005311140000000001,-0.0048868800000000006,-0.0023949272,4.875,0,0
-0.0013912080000000001,-0.0024108046,-0.00014066020000000004,-0.00667008,-0.0051971932,4.876,0,0
0.0002152199999999999,-0.0013509606000000002,-4.875120000000005e-05,-0.008000224,-0.008323103200000001,4.877,0,0
0.002295966,-8.223460000000008e-05,-1.6365000000000064e-05,-0.008409282,-0.010344204,4.878,0,0
0.003567692,0.0006557126,0.00024852999999999995,-0.008576552,-0.011042192000000003,4.879,0,0
0.003623424,0.0007518966,0.000366182,-0.009064482,-0.011747780000000001,4.88,0,0
0.0035905820000000006,0.0010296132,0.0008234642,-0.009097972000000001,-0.011449544000000002,4.881,0,0
0.0036861520000000003,0.0017113652,0.0010084795400000003,-0.008037886000000001,-0.008725464,4.882,0,0
0.002996556,0.0028887592000000004,0.0009174651400000001,-0.006425130400000001,-0.005336004,4.883,0,0
0.0018801120000000002,0.0034661559999999998,0.00093331474,-0.004245256400000001,-0.0015481179999999994,4.884,0,0
0.0010751660000000002,0.00259108,0.00047308874,-0.0005551544000000005,0.0034006220000000003,4.885,0,0
0.00028333600000000013,0.001298778,2.6349399999999867e-06,0.0030963776,0.007771566000000001,4.886,0,0
-0.000937948,-6.84119999999999e-05,-0.00024137140000000002,0.005161279600000001,0.009606670000000001,4.887,0,0
-0.0018050100000000001,-0.0014453766000000002,-0.0004144594,0.006097012,0.009050874000000002,4.888,0,0
-0.0018767480000000001,-0.00220663974,-0.0006755912,0.006539454,0.007491016800000001,4.889,0,0
-0.0021327580000000002,-0.00194780974,-0.0005440858000000001,0.006374422000000001,0.005914350800000002,4.89,0,0
-0.0023984120000000004,-0.00159474574,-0.00013905199999999986,0.006242622,0.0046269428000000005,4.891,0,0
-0.002286962,-0.0012504609399999998,0.00040024,0.006745131999999999,0.0038083408000000006,4.892,0,0
-0.0020670500000000004,-0.0013691183399999998,0.0007055540000000001,0.0071281420000000005,0.0042585988,4.893,0,0
-0.0016738048000000004,-0.0015078308,0.0008852228000000001,0.007319264000000001,0.005442152,4.894,0,0
-0.0010155766,-0.0007461621999999999,0.0012972894000000002,0.006989576,0.005486406,4.895,0,0
-0.0003428846,-0.00018614860000000004,0.000692359,0.005999652,0.0041731803999999996,4.896,0,0
0.00020127939999999998,-0.0002778184,4.4368999999999995e-05,0.004444971460000001,0.0016921824000000001,4.897,0,0
0.000513131,-0.0007481884,0.000507519,0.0022960614599999997,-0.0025297796000000004,4.898,0,0
0.0005767700000000001,-0.0007980694000000001,0.0005584938,-0.0005350725399999999,-0.0071358616000000005,4.899,0,0
0.0010129598000000002,-0.0006025950000000001,-0.0001472438,-0.00371419454,-0.0108606896,4.9,0,0
0.0016270318000000002,-0.0004453606000000001,-3.1509800000000015e-05,-0.0057910105400000005,-0.012639348000000002,4.901,0,0
0.0019724378000000003,-2.5169600000000112e-05,0.00010178419999999996,-0.006144468,-0.010422688,4.902,0,0
0.0018144908,0.0003837548,-0.0005489258000000001,-0.004929972,-0.0054503680000000014,4.903,0,0
0.0009395966000000001,0.0007004252,-0.001007028,-0.0027235860000000005,-0.0005482260000000004,4.904,0,0
-0.0005229873999999999,0.0009072262000000001,-0.0013390684000000003,-0.00043316000000000014,0.0029293659999999997,4.905,0,0
-0.0022174513999999998,0.0008526828000000001,-0.001636246,0.0004462479999999999,0.0038602400000000005,4.906,0,0
-0.0029915854,0.0008136188000000002,-0.0016262680000000002,-0.0006932880000000001,0.0014199400000000004,4.907,0,0
-0.002552834,0.0015043444,-0.0010238700000000003,-0.002575908,-0.00231693,4.908,0,0
-0.002096664,0.0022588286000000003,-0.00032883000000000006,-0.00412242,-0.004642766000000001,4.909,0,0
-0.0014928659999999998,0.0032072166,0.00043319,-0.004659536000000001,-0.005217318000000001,4.91,0,0
-3.534199999999995e-05,0.0047079240000000005,0.00129042,-0.0038353200000000006,-0.003493068000000002,4.911,0,0
0.0005677780000000001,0.0046578240000000005,0.0016285358000000002,-0.00167072,0.0005405479999999994,4.912,0,0
-2.0415999999999935e-05,0.0024645039999999997,0.0012702570000000003,0.001070474,0.004996838,4.913,0,0
-0.0001312,-0.0005049779999999997,0.0007243920000000001,0.0035882880000000002,0.008319872,4.914,0,0
2.867339999999992e-05,-0.0032019139999999997,0.00046951600000000006,0.005210991999999999,0.010140964,4.915,0,0
-1.9444600000000014e-05,-0.004913761,0.0004472900000000001,0.005157327600000001,0.009762492,4.916,0,0
0.0005925914000000001,-0.004783782999999999,0.0007064462000000001,0.0038126836000000005,0.006677424000000001,4.917,0,0
0.0022818594,-0.0027922470000000003,0.0006636854000000001,0.0017322156000000003,0.0020913640000000005,4.918,0,0
0.0039380654,-0.00022725299999999996,0.0007824514000000001,-0.0010432204000000002,-0.0022859840000000005,4.919,0,0
0.004457786000000001,0.0009204470000000001,0.0007979379200000001,-0.0033934584000000004,-0.004836052,4.92,0,0
0.0042604999999999995,0.0002874300000000001,-0.00018421208,-0.004030130000000001,-0.003940498,4.921,0,0
0.004049428000000001,-0.00053899,-0.0012724960800000002,-0.0034959416,0.0004070100000000002,4.922,0,0
0.003236298,-0.0015319560000000001,-0.0023981824800000003,-0.0022878456,0.00715035,4.923,0,0
0.00258002,-0.002015152,-0.0035446294800000003,-0.0004026055999999999,0.013701338,4.924,0,0
0.003453368,-0.00020180000000000003,-0.003568434,0.0016252084,0.017787413999999998,4.925,0,0
0.0039042600000000005,0.0029885980000000003,-0.002343272,0.0028542124,0.018106816,4.926,0,0
0.0027089419999999998,0.006329866000000001,-0.0010947239999999996,0.002643866,0.012963886,4.927,0,0
0.001338128,0.00804314,0.0004874660000000002,0.0012683859999999998,0.003966186000000001,4.928,0,0
-0.0005187040000000001,0.005794901999999999,0.002093432,-0.00048304200000000004,-0.005783274000000001,4.929,0,0
-0.0032654800000000003,0.001757304,0.0023639200000000003,-0.002781456,-0.015160374000000003,4.93,0,0
-0.0055064120000000005,-0.002132406,0.001903212,-0.005521294,-0.023999830000000003,4.931,0,0
