bandpass 1,bandpass 2,bandpass 3,bandpass 4,bandpass 5,time,onset,mark
0.003921264,0.004345389999999999,-0.002633644,-0.0012452399999999999,0.0038679360000000006,3.148,1,1
0.0038775126,0.0051640160000000004,-0.0029937780000000003,-0.00204051,0.0041101,3.149,0,0
0.0029600506,0.004408359999999999,-0.003001218,-0.0025466279999999996,0.0033953720000000002,3.15,0,0
0.0008384485999999998,0.0027141640000000002,-0.001447844,-0.0024750640000000003,0.0016977840000000001,3.151,0,0
-0.0014176694,0.0004620420000000002,0.00013769599999999987,-0.0023608282,-0.0006204959999999997,3.152,0,0
-0.0041912794,-0.002477918,0.001685204,-0.001828723,-0.003458736,3.153,0,0
-0.005778198,-0.004130404000000001,0.003039652,-0.0009482992,-0.005198718,3.154,0,0
-0.005895478,-0.0033972586000000004,0.0030985416,-0.0001493092000000001,-0.0057011100000000006,3.155,0,0
-0.00583379,-0.0018396526000000004,0.0020336636,0.00036277680000000004,-0.0063333880000000006,3.156,0,0
-0.00542491,0.0006065074,0.0012490236,0.000767295,-0.0060391180000000004,3.157,0,0
-0.003398408,0.0033689394000000006,0.0003484296000000001,0.0012553377999999999,-0.0042691456000000004,3.158,0,0
-0.00086582,0.0058093554000000006,-0.0008056644,0.00140974,-0.0020729856000000005,3.159,0,0
0.0011216560000000002,0.006776804000000001,-0.000614876,0.0011788956,2.6980400000000153e-05,3.16,0,0
0.0034582980000000003,0.004858462,-0.00026813,0.0010337924,0.0022090404,3.161,0,0
0.0055874420000000015,0.0023203079999999997,-0.000736662,0.0006958282,0.0044898544,3.162,0,0
0.00620946,0.00016577399999999993,-0.0010883680000000001,-7.728779999999994e-05,0.00558995,3.163,0,0
0.006256994,-0.0022479,-0.0015706740000000002,-0.0007010158,0.00585367,3.164,0,0
0.006103706,-0.00373119,-0.0022539960000000003,-0.0011280054000000002,0.006137900000000001,3.165,0,0
0.004153776,-0.0024545622000000005,-0.0019450364000000004,-0.0019290322000000003,0.0051582382,3.166,0,0
0.0014697580000000003,0.00029272179999999953,-0.0011088744,-0.0024647840000000002,0.0028641562000000006,3.167,0,0
-0.00038216200000000024,0.0024379258,-0.0007366704800000001,-0.0021984178,0.0010487442,3.168,0,0
-0.0027763300000000005,0.0030951145999999997,0.00043546752,-0.0021481738,-0.0012204957999999997,3.169,0,0
-0.005074642,0.0020271406,0.00193342952,-0.0018888768000000003,-0.0042507338,3.17,0,0
-0.005733296000000001,0.0003232927999999998,0.0024996079200000003,-0.0005490768000000002,-0.00582068,3.171,0,0
-0.005497198000000001,-0.0017435832,0.0025680559200000003,0.0006374871999999999,-0.006253486000000001,3.172,0,0
-0.005037544000000001,-0.0031027192,0.0028222079999999997,0.0011472169999999999,-0.006720070000000001,3.173,0,0
-0.0038187699999999995,-0.002637642,0.002650726,0.0020557830000000003,-0.0058154240000000005,3.174,0,0
-0.0019435859999999998,-0.0011208842,0.0017480024000000002,0.0025674720000000003,-0.0035340239999999998,3.175,0,0
-0.00028109999999999995,-0.0003407662000000001,0.0010359701999999998,0.0020445802,-0.0016659120000000003,3.176,0,0
0.0013337000000000002,-0.0019118441999999999,0.0007355997999999999,0.0019222942000000002,0.00039236800000000004,3.177,0,0
0.0031246,-0.0034595242000000003,6.467579999999999e-05,0.0018728082,0.003229522,3.178,0,0
0.004690960000000001,-0.0031387881999999996,-0.0016265122000000002,0.0010823242000000002,0.005296768,3.179,0,0
0.005489492,-0.0027262019999999996,-0.0030297826,-3.788180000000008e-05,0.006169848,3.18,0,0
0.00603833,-0.0019824070000000003,-0.0037545644,-0.0010266580000000002,0.0069707039999999994,3.181,0,0
0.006179314,-0.000412521,-0.00443256,-0.0018663260000000002,0.0070434320000000005,3.182,0,0
0.004408622,9.734700000000002e-05,-0.0038988522000000005,-0.002450796,0.005164026800000001,3.183,0,0
0.0017939280000000004,-0.0004912238000000001,-0.0018908502000000006,-0.0023013642000000003,0.0027198668000000003,3.184,0,0
-0.0005470620000000005,-0.0005952118000000001,-1.0561999999999985e-06,-0.0018793522000000002,0.0007419587999999998,3.185,0,0
-0.003648836000000001,-0.0010455048,0.0015950438,-0.0014192102000000002,-0.0021381092,3.186,0,0
-0.006387142000000001,-0.0013366488,0.0031757638,-0.0008254502000000001,-0.0048520352,3.187,0,0
-0.00672759,-0.00015236680000000008,0.003607942,-0.00022865820000000003,-0.005800228,3.188,0,0
-0.006003568000000001,0.001258396,0.00327346,0.00018363999999999994,-0.006116642,3.189,0,0
-0.005669182,0.0023975439999999997,0.00332823,0.000735366,-0.006434499999999999,3.19,0,0
-0.0041490220000000005,0.0030832582,0.0027361072000000003,0.00147642,-0.0053281100000000005,3.191,0,0
-0.002346212,0.0029630661999999995,0.0010191092000000003,0.001529278,-0.003058066,3.192,0,0
-0.0016111530000000002,0.0029392601999999996,-0.0003769527999999998,0.0012657378,-0.001539062,3.193,0,0
0.0003701309999999999,0.0029791602,-0.0017052708,0.0010696266,0.0007530820000000001,3.194,0,0
0.003423285,0.0027282722000000004,-0.0038269068,0.0007889552,0.00378025,3.195,0,0
0.005422949,0.002763194,-0.005271326,0.0003045348,0.00552846,3.196,0,0
0.006609273000000001,0.0022305540000000005,-0.004741698,-5.2736400000000006e-05,0.00638191,3.197,0,0
0.007562906,0.0008110920000000001,-0.003497072,-0.0003054342,0.007094722,3.198,0,0
0.0066501220000000005,-4.8219999999998125e-06,-0.0022544300000000004,-0.000822979,0.006318128000000001,3.199,0,0
0.003663382,-0.00043229399999999973,-3.682400000000008e-05,-0.0011251576,0.0037765920000000005,3.2,0,0
0.000986052,-0.0005775605999999997,0.002443076,-0.0013318272,0.0016108099999999998,3.201,0,0
-0.0008567680000000002,-0.0004073106,0.0035374860000000003,-0.001335334,-0.000883644,3.202,0,0
-0.0033408580000000004,-0.0018568626000000001,0.00402461,-0.001006605,-0.003958986,3.203,0,0
-0.0056438140000000005,-0.0039886586,0.004828838,-0.00045454480000000003,-0.005891962,3.204,0,0
-0.006181188,-0.0047137862,0.004580984,0.00011553519999999998,-0.006215666000000001,3.205,0,0
-0.006237586000000001,-0.0044553296,0.00383429,0.0006344352,-0.006266964000000001,3.206,0,0
-0.006367940000000001,-0.0032448596000000003,0.0035909260000000004,0.0012994912,-0.00605954,3.207,0,0
-0.0050116150000000005,3.146639999999977e-05,0.0023784419999999997,0.0016543722,-0.004301164800000001,3.208,0,0
-0.0023885450000000006,0.0034651044,0.000577702,0.001752172,-0.0023190428000000006,3.209,0,0
-0.00014318700000000002,0.004521358,-0.000411144,0.001775476,-0.0007520607999999999,3.21,0,0
0.002601599,0.0044356479999999995,-0.001720722,0.0014317314,0.0016411672000000003,3.211,0,0
0.005775729,0.004052679799999999,-0.003768706,0.0006824394,0.0045692172,3.212,0,0
0.007408308000000001,0.0017882917999999999,-0.004728110000000001,-0.00014689260000000013,0.006271452,3.213,0,0
0.007669068000000001,-0.0016029322,-0.0048071599999999996,-0.0007877766,0.006925214,3.214,0,0
0.00781505,-0.0025857978,-0.005257082000000001,-0.0011710444,0.007164255999999999,3.215,0,0
0.006622076000000001,-0.0021245158,-0.00496664,-0.0013069358000000002,0.005784462000000001,3.216,0,0
0.0036982940000000004,-0.00046503159999999985,-0.0032085100000000004,-0.001203751,0.0030129800000000006,3.217,0,0
0.001586174,0.0022225244,-0.001252368,-0.0009862744,0.0008414680000000005,3.218,0,0
-0.0007370619999999999,0.0022972904,0.0004650520000000002,-0.0007533106000000001,-0.0013305720000000001,3.219,0,0
-0.004324788,0.000428702,0.002403756,-0.0003831688000000001,-0.004467156,3.22,0,0
-0.00678649,-0.0006325940000000002,0.00357424,-1.2613199999999983e-05,-0.00618899,3.221,0,0
-0.007486636,-0.0019483548,0.003555228,0.0001987218,-0.0063156520000000015,3.222,0,0
-0.008097948,-0.0042064948,0.003517146,0.0006288252,-0.006867568000000001,3.223,0,0
-0.007743080000000001,-0.0042804748,0.003349446,0.0009794474000000002,-0.006516350000000001,3.224,0,0
-0.004997428000000002,-0.0028605468,0.0022726186000000003,0.0006227348,-0.003890996,3.225,0,0
-0.002484028,-0.0024437392,0.0012017806000000002,0.0005438772,-0.0014969080000000001,3.226,0,0
-0.0007211019999999999,-0.0021388404,0.0005901106,0.0011085714000000002,-1.423200000000009e-05,3.227,0,0
0.00225562,-0.0009426944000000001,-0.0009090814000000001,0.0013574994,0.0026587940000000003,3.228,0,0
0.005064946000000001,0.0008749776000000001,-0.0026175894,0.0010135638000000002,0.005598458000000001,3.229,0,0
0.006191228,0.0022963216000000002,-0.00311596,0.0008367884000000001,0.006974974000000001,3.23,0,0
0.006893912,0.003043642,-0.0030703480000000005,0.0007892444000000003,0.007538056000000001,3.231,0,0
0.0071465800000000005,0.003475512,-0.00302736,-0.00010694559999999999,0.007885606000000002,3.232,0,0
0.0055080844,0.00364819,-0.0022942484,-0.0010703176,0.006202725600000001,3.233,0,0
0.0033648744000000005,0.004675449999999999,-0.0010978504000000004,-0.001202896,0.0029424816000000013,3.234,0,0
0.0015904124000000002,0.006279368,-0.00018288240000000023,-0.00090993236,0.00023015759999999992,3.235,0,0
-0.0010797096,0.006117984,0.0011649936000000002,-0.00086925196,-0.0026943144,3.236,0,0
-0.0034172956,0.0038903700000000006,0.0025040856,-0.00071767756,-0.0055128144000000006,3.237,0,0
-0.004232662,0.0027316520000000006,0.003276456,2.1312440000000033e-05,-0.006703172,3.238,0,0
-0.00502067,0.001053072,0.00398367,0.00065785644,-0.007054266,3.239,0,0
-0.006328028,-0.004675048,0.00426643,0.0007829002000000001,-0.007280656,3.24,0,0
-0.006164078000000001,-0.008816944,0.0034930162000000003,0.0009503496000000001,-0.006089536000000001,3.241,0,0
-0.0046623512,-0.00866523,0.0023753624000000004,0.0014228332,-0.0038234360000000004,3.242,0,0
-0.0034745332,-0.00758063,0.0013074884000000002,0.0012949212000000002,-0.0017101220000000001,3.243,0,0
-0.0012192052,-0.006436292,-0.00037646359999999994,0.0007501994,0.0008638880000000003,3.244,0,0
0.0024204888,-0.0034828355999999994,-0.0018276576,0.0002202660000000001,0.003768454,3.245,0,0
0.0055077488,0.0001549518000000001,-0.0027356278000000003,-0.00044076980000000004,0.005877800000000001,3.246,0,0
0.007153488,0.0016959018000000001,-0.003573232,-0.0014348238000000003,0.006765132,3.247,0,0
0.007845626,0.0014317442000000003,-0.004092516,-0.0023206658000000002,0.007093704000000001,3.248,0,0
0.007112136,0.0010210862000000001,-0.00375939,-0.0025501480000000003,0.006556312000000001,3.249,0,0
0.004495912,0.0016140978000000002,-0.0024327619999999998,-0.0023159128,0.0045714072,3.25,0,0
0.001496384,0.0009271284000000002,-0.0007537079999999997,-0.0015995548,0.0020782172000000003,3.251,0,0
-0.0014464180000000003,-0.0006872915999999999,0.0009131840000000002,-0.0011182542,-0.0004801648,3.252,0,0
-0.004600406000000001,-0.0009816513999999998,0.00287295,-0.0006182632,-0.0034115848000000003,3.253,0,0
-0.006805096000000001,-0.00046417940000000003,0.004145476,0.0002882567999999999,-0.0057255748,3.254,0,0
-0.007184080000000001,-0.00013011940000000018,0.0034992798000000004,0.0006590076,-0.00640701,3.255,0,0
-0.007015438000000001,-2.015340000000016e-05,0.0022077338,0.0005119472,-0.00638905,3.256,0,0
-0.006506088,0.001045241,0.0009268778000000003,0.0011532446,-0.0060196699999999995,3.257,0,0
-0.0044069744,0.0021472543999999996,-0.0010456842,0.0020280936,-0.004284655599999999,3.258,0,0
-0.0016980144000000002,0.0016402883999999999,-0.0030614121999999995,0.0019069396,-0.0023377756,3.259,0,0
0.00033426760000000017,0.0004924884,-0.00424982,0.0017119892000000002,-0.0011250395999999998,3.26,0,0
0.0025384556000000004,0.0008427457999999999,-0.0052841039999999995,0.0016963762000000002,0.0012198464000000003,3.261,0,0
0.0048467036,0.0018097914,-0.0060143340000000005,0.0013007536,0.0040020524,3.262,0,0
0.00601311,0.0016309054,-0.006009108,0.00026852360000000005,0.005402686000000001,3.263,0,0
0.006613730000000001,0.0017931254,-0.00549715,-0.0005981184,0.006389142,3.264,0,0
0.0071328120000000005,0.0033976834,-0.0049691480000000005,-0.0007635152,0.007403474,3.265,0,0
0.0060915496,0.00451065,-0.003824564,-0.0012855938,0.006454948,3.266,0,0
0.0035089196000000003,0.0029827359999999997,-0.00016253800000000027,-0.0019214132000000004,0.004104292000000001,3.267,0,0
0.0011944756000000004,0.0001314659999999998,0.003984994,-0.0018794692000000002,0.00229972,3.268,0,0
-0.0017572044000000002,-0.0020731300000000003,0.006758316,-0.0016703472,-0.00021037599999999997,3.269,0,0
-0.0051439604000000005,-0.0035346120000000003,0.009379364000000001,-0.0015593468,-0.003519454,3.27,0,0
-0.006552816,-0.003989898,0.010925258000000002,-0.0011439984000000002,-0.005754700000000001,3.271,0,0
-0.006385698,-0.0031851556,0.009551568,-0.0002566404,-0.006544386,3.272,0,0
-0.006124108,-0.0014474076000000002,0.007477552,0.0006047256000000002,-0.0070467360000000005,3.273,0,0
-0.005116598,0.0003250784,0.006113418000000001,0.0010449712,-0.00650721,3.274,0,0
-0.00279836,0.0009102264,0.004056846,0.001584738,-0.004239488,3.275,0,0
-0.0005897039999999999,5.513639999999998e-05,0.0022576740000000003,0.0018765156000000002,-0.0020261399999999996,3.276,0,0
0.0013716660000000003,-0.0005084620000000001,0.0005441739999999999,0.0014521838000000002,-0.0002611479999999999,3.277,0,0
0.00380284,0.000246394,-0.0019676180000000004,0.0010775798000000002,0.00232077,3.278,0,0
0.006028212,0.0010784840000000002,-0.004240932,0.0007408404000000001,0.004879578000000001,3.279,0,0
0.006860712,0.001261642,-0.005247454,4.9745200000000006e-05,0.0058722,3.28,0,0
0.0066598000000000004,0.00081935,-0.00567933,-0.00036442260000000003,0.00640942,3.281,0,0
0.0059282480000000005,-0.00010175799999999954,-0.005863324,-0.0005249308,0.006922126,3.282,0,0
0.0038221320000000007,-0.000944454,-0.004708174,-0.0011020708,0.0055060592,3.283,0,0
0.0009195720000000002,-0.002028678,-0.002954618,-0.001339895,0.0025106752000000005,3.284,0,0
-0.0011726520000000002,-0.002901738,-0.0015361180000000002,-0.0011918432,6.631920000000008e-05,3.285,0,0
-0.0031412540000000004,-0.002410118,-4.97500000000001e-05,-0.0010952178000000002,-0.0025445768,3.286,0,0
-0.005210152,-0.00129948,0.001593914,-0.0007230224,-0.005474826800000001,3.287,0,0
-0.005760388,-0.0010115044,0.002365138,-0.00012030839999999999,-0.006763974000000001,3.288,0,0
-0.0055605559999999995,-0.0004261063999999999,0.0021368301800000003,0.0004668542,-0.006467528000000001,3.289,0,0
-0.005633944,0.0018386616,0.00201050158,0.0008852056,-0.006166444000000001,3.29,0,0
-0.004717998,0.0041616016,0.00149688218,0.0014315040000000001,-0.004930123999999999,3.291,0,0
-0.00272299,0.0054359276,0.00026515618000000005,0.0017515566000000002,-0.00252476,3.292,0,0
-0.0012516539999999998,0.0050672899999999995,-0.00075257982,0.0017424818000000002,-0.0009194119999999997,3.293,0,0
0.0007642660000000002,0.0024836919999999996,-0.0014163560000000001,0.0015254044,0.0009097240000000002,3.294,0,0
0.0036037820000000003,-0.0010211500000000006,-0.0023796154000000004,0.0008550224000000001,0.003656368,3.295,0,0
0.005394714,-0.0029383132000000006,-0.0032251680000000005,-0.00020904560000000008,0.005815492,3.296,0,0
0.0063977980000000005,-0.0029916952000000004,-0.0035205540000000004,-0.0012237915999999999,0.00687007,3.297,0,0
0.00705598,-0.0020726552000000006,-0.0037022360000000002,-0.0015483600000000001,0.007585873999999999,3.298,0,0
0.00631308,-0.00036444919999999994,-0.0033291940000000006,-0.0020268252,0.0072366439999999995,3.299,0,0
0.003971484,0.0008435568000000001,-0.00216728,-0.0025112172,0.004699252,3.3,0,0
0.001772328,0.0011486559999999999,-0.00085696,-0.0021571112000000003,0.0016774300000000004,3.301,0,0
-0.0002905780000000001,0.001159922,-0.00014616429799999995,-0.0020127692000000003,-0.000741644,3.302,0,0
-0.002834362,0.001869626,0.0009129737020000001,-0.00218477,-0.003680058,3.303,0,0
-0.005001004000000001,0.003177804,0.002270917702,-0.0016856340000000003,-0.006406810000000001,3.304,0,0
-0.006047732,0.004227578,0.002631725702,-0.0007124400000000001,-0.007161552000000001,3.305,0,0
-0.00650421,0.0039558382,0.0031555857020000005,2.7932000000000044e-05,-0.007139234,3.306,0,0
-0.006798329999999999,0.0010220442000000002,0.004120956,0.000825578,-0.006899812,3.307,0,0
-0.005835306,-0.0032704458000000006,0.004103652,0.001881382,-0.004907364,3.308,0,0
-0.003715552,-0.0063318898000000005,0.0033071660000000003,0.002499832,-0.002240926,3.309,0,0
-0.001656552,-0.0079113398,0.0025074064000000004,0.0024507304,-0.00036326200000000026,3.31,0,0
0.0010440780000000004,-0.008362872000000002,0.0010362764000000002,0.0023483464,0.002102042,3.311,0,0
0.004308142000000001,-0.006056954,-0.0005821835999999999,0.002018308,0.004723288000000001,3.312,0,0
0.006223302,-0.002335564,-0.0017808876,0.0008279619999999999,0.0059889340000000004,3.313,0,0
0.007147754,-0.00012048500000000006,-0.0028070976,-0.00026880600000000007,0.006672224,3.314,0,0
0.007654454000000001,0.0007328782,-0.0033862700000000003,-0.0009028024,0.007441754000000001,3.315,0,0
0.006552858,0.0009154494000000001,-0.0035651660000000003,-0.0018667804000000003,0.006479040000000001,3.316,0,0
0.00405371,0.0005861734000000001,-0.002889166,-0.002326534,0.0036837940000000002,3.317,0,0
0.0017113879999999999,-6.99204e-05,-0.001564454,-0.0017096878000000002,0.0014887100000000003,3.318,0,0
-0.0008802120000000004,-0.00017175739999999998,-0.00026609600000000017,-0.0009398397999999999,-0.000910702,3.319,0,0
-0.0037434380000000004,-3.114019999999996e-05,0.0013324740000000002,-0.000268358,-0.003929104,3.32,0,0
-0.005692428000000001,0.00024859260000000005,0.0028786700000000007,0.000707872,-0.005684706,3.321,0,0
-0.006357570000000001,0.0022064086,0.0033087340000000002,0.001614406,-0.0059935660000000005,3.322,0,0
-0.006349296000000001,0.0040638784,0.003261916,0.0020826958,-0.006360812,3.323,0,0
-0.005671652000000001,0.0031556944,0.0030076720000000003,0.0024087118000000003,-0.005988188,3.324,0,0
-0.003654632,0.00162139,0.00166513,0.00251468,-0.0039791159999999996,3.325,0,0
-0.0015767539999999997,0.0018435839999999997,0.00012889999999999983,0.00234352,-0.0021840180000000002,3.326,0,0
0.0004125359999999999,0.001131392,-0.0007847740000000002,0.002110984,-0.0006780779999999999,3.327,0,0
0.003198164,-0.0001191940000000002,-0.002127232,0.0017206860000000001,0.0017591320000000003,3.328,0,0
0.0055703639999999995,0.000974602,-0.0032850660000000005,0.0010694848000000002,0.00418033,3.329,0,0
0.0061964739999999996,0.002205728,-0.003353482,0.0003473388,0.0052649640000000004,3.33,0,0
0.006295413999999999,0.0023811400000000003,-0.0037169560000000004,-0.0004989471999999999,0.006334276000000001,3.331,0,0
0.006261681999999999,0.002348952,-0.004135202,-0.0014419132,0.007290994,3.332,0,0
0.004585488,0.002690156,-0.0034191036,-0.0026004172,0.006043087000000001,3.333,0,0
0.002310224,0.00289399,-0.0024997774,-0.003400106,0.0035804930000000006,3.334,0,0
0.0010607300000000002,0.0018730499999999998,-0.0019585674,-0.0031423446000000002,0.0013773550000000002,3.335,0,0
-0.00030023200000000005,0.00017550599999999975,6.604060000000005e-05,-0.0025240896,-0.001786991,3.336,0,0
-0.0029345280000000005,-0.0014518840000000003,0.0032576426,-0.0015494116,-0.005216763,3.337,0,0
-0.0056890840000000005,-0.004638988,0.0053697342,-0.00013554560000000003,-0.006708346,3.338,0,0
-0.007561130000000001,-0.007709216000000001,0.006522298000000001,0.0010968624,-0.0070542339999999995,3.339,0,0
-0.008596936000000001,-0.0068891280000000004,0.007329584,0.0018392270000000001,-0.007347264000000001,3.34,0,0
-0.008251708,-0.005209708000000001,0.0064991300000000005,0.002296802,-0.006125296,3.341,0,0
-0.005975068,-0.0037528140000000006,0.003672458,0.002268366,-0.00356734,3.342,0,0
-0.0025342300000000006,2.6899999999999624e-05,0.0012150060000000002,0.0018644012000000004,-0.0015457140000000001,3.343,0,0
0.000988708,0.003766404,-0.0006418919999999997,0.0015464886000000004,0.000746532,3.344,0,0
0.004197866,0.003710746,-0.002775828,0.0008637706,0.0038777679999999998,3.345,0,0
0.0063493379999999995,0.002658424,-0.004015308,0.00015179060000000005,0.006210792,3.346,0,0
0.007231782,0.0034147000000000005,-0.004084204,-0.00028431660000000005,0.007115196,3.347,0,0
0.007731670000000001,0.003600054,-0.00428112,-0.0009774658000000001,0.007863686,3.348,0,0
0.007138918,0.0033096360000000003,-0.0042248319999999995,-0.0017351812,0.007601456,3.349,0,0
0.004588186,0.002918262,-0.0027963402,-0.0019892132,0.00503593,3.35,0,0
0.001417384,0.00046077399999999973,-0.0011612662,-0.0021285012,0.002138988,3.351,0,0
-0.0013394820000000001,-0.0029898,-0.00014635020000000013,-0.0021214478000000005,-0.0001341720000000001,3.352,0,0
-0.00430908,-0.005619168,0.0012670018,-0.0015479158000000002,-0.003139496,3.353,0,0
-0.006769104000000001,-0.007539906,0.0028473698,-0.0009762348,-0.0057212800000000005,3.354,0,0
-0.0070038800000000005,-0.0066910521999999995,0.0032210859999999997,-0.0004575366,-0.006061526,3.355,0,0
-0.006504028,-0.0031382042,0.002863064,0.00014229540000000005,-0.006014114,3.356,0,0
-0.006453068000000001,0.00017387580000000026,0.0029338360000000004,0.0006553992000000002,-0.006474612,3.357,0,0
-0.00488771954,0.0026217598000000003,0.002531738,0.0015229732,-0.0053579579999999995,3.358,0,0
-0.00213968954,0.005007179800000001,0.0010200320000000001,0.0023852182,-0.0032555940000000005,3.359,0,0
0.00021181445999999995,0.007195122,7.810400000000006e-05,0.0022798416,-0.0019898480000000002,3.36,0,0
0.0030716044600000002,0.008868334000000002,-0.0005764259999999999,0.0018921620000000002,7.721399999999971e-05,3.361,0,0
0.00588433046,0.009079628,-0.0024076720000000005,0.0011689080000000002,0.003177234,3.362,0,0
0.007237968,0.008345278000000001,-0.003996924,-0.000389184,0.005131928,3.363,0,0
0.0076741840000000006,0.007474702,-0.004361628,-0.00147749,0.006068822,3.364,0,0
0.007167152,0.0025840620000000003,-0.0047763580000000005,-0.0017765536,0.006881040000000001,3.365,0,0
0.005099959000000001,-0.005608958000000001,-0.0047233959999999995,-0.002205758,0.0062160159999999996,3.366,0,0
0.002349031,-0.010844014,-0.0032204654,-0.0024226820000000002,0.003900446,3.367,0,0
-0.0001719470000000002,-0.012217398,-0.0015332494,-0.0019058942000000003,0.0015649740000000002,3.368,0,0
-0.002386975,-0.012985680000000001,-3.1073999999999425e-06,-0.0015563399600000002,-0.00068172,3.369,0,0
-0.004437389000000001,-0.010968166,0.0018472746,-0.0014195341600000003,-0.003186986,3.37,0,0
-0.005895946,-0.005399858,0.0038733066,-0.00075041476,-0.004947302000000001,3.371,0,0
-0.005586352,-0.001348914,0.00494984,0.00013354124,-0.004991214,3.372,0,0
-0.004927014,0.0006016,0.004968514,0.00067770344,-0.004909574,3.373,0,0
-0.004825508,0.0023439140000000003,0.004775936,0.0011032912,-0.004741828,3.374,0,0
-0.0035670902,0.004318232,0.00349879,0.0018793634,-0.002868386,3.375,0,0
-0.0017918482,0.005382584,0.0011323580000000004,0.002394592,-0.000990832,3.376,0,0
-0.0005965021999999999,0.00440673,-0.0004545220000000001,0.002432236,-0.00035214820000000017,3.377,0,0
0.0016479317999999999,0.0024127740000000003,-0.00119643,0.0023283379999999997,0.0014924098,3.378,0,0
0.0045018658,0.0008996583999999999,-0.0021754160000000003,0.0018761799999999999,0.0041302038,3.379,0,0
0.0055871539999999996,-0.00023913060000000006,-0.00232709,0.0009935579999999999,0.0046932458,3.38,0,0
0.006517136,-0.0009597976000000002,-0.0017814946,-5.6860000000000265e-06,0.0050798978,3.381,0,0
0.007631548,-0.000663937256,-0.0017240586,-0.000599248,0.006142516000000001,3.382,0,0
0.0059022392,0.000500058744,-0.0016796545999999998,-0.0010052528000000002,0.0049868056,3.383,0,0
0.0026796872,0.002076900344,-0.0011259264,-0.0012972848000000002,0.0024636716,3.384,0,0
0.0007437332000000003,0.002758479344,-0.000602243,-0.0012998908000000002,0.0008456876000000002,3.385,0,0
-0.0015289228,0.0018042583440000004,0.0001894556000000001,-0.0009161188000000001,-0.0014379824,3.386,0,0
-0.0048767788,0.0008957639999999998,0.0016758796000000001,-0.0003716228,-0.0045388084,3.387,0,0
-0.006429977999999999,0.0003392695999999999,0.0027411876,0.00020801600000000005,-0.005957488,3.388,0,0
-0.00606075,-0.0009065884000000002,0.0032574314,0.0007184559999999999,-0.0064031520000000005,3.389,0,0
-0.006070086,-0.0015417442000000001,0.0033711862,0.001137012,-0.007104582000000001,3.39,0,0
-0.005204394,-0.0007477640000000002,0.0028366565999999997,0.001634992,-0.006391602000000001,3.391,0,0
-0.0027782199999999996,0.0004931,0.0015420936000000002,0.00156322,-0.003942958,3.392,0,0
-0.000946336,0.0021461464,0.00017317960000000007,0.0012340626,-0.001800368,3.393,0,0
0.000733912,0.0049601544,-0.0009521784000000001,0.0012497666,-0.00022537200000000005,3.394,0,0
0.003656838,0.0062492722,-0.0025521086,0.0010583243,0.0028317760000000003,3.395,0,0
0.006035825999999999,0.004239339999999999,-0.004000643,-5.7075699999999986e-05,0.00542544,3.396,0,0
0.006728582,0.00127646,-0.004374262,-0.0007693537,0.006361980000000001,3.397,0,0
0.007381228000000001,-0.0013896260000000001,-0.00437403,-0.0009940851,0.00737001,3.398,0,0
0.007654358,-0.004633666,-0.00457179,-0.0014860110999999998,0.007710266,3.399,0,0
0.005768509999999999,-0.0066007900000000005,-0.0032187688000000006,-0.0016313276,0.0059800814,3.4,0,0
0.0030795840000000002,-0.004696716,-0.0014210508000000001,-0.0011028082,0.0033799814,3.401,0,0
0.0013002040000000001,-0.0019409915999999998,-0.0007658656000000002,-0.0004579794,0.0017767214000000001,3.402,0,0
-0.0007547620000000002,-0.0012779336,0.0006125784,-0.0006197105999999999,-0.0011752666,3.403,0,0
-0.003168522,-0.0016043756,0.0020577064,-0.00026985979999999995,-0.0030140146000000004,3.404,0,0
-0.004208762,-0.0013180456,0.0024358892,-0.00024958139999999994,-0.00429738,3.405,0,0
-0.004014096,-0.0009326600000000001,0.0021093508,-0.00017458079999999997,-0.0037757852,3.406,0,0
-0.004439458,-0.0009893558,0.0021944856,-0.00025416819999999994,0.0025496148000000002,3.407,0,0
-0.0033216267199999996,-0.0007006266,0.0017001295999999999,-0.0024753162,0.0070094268,3.408,0,0
-0.00142914472,-0.0004285126,0.0010240776,-0.004507756999999999,0.0059764688,3.409,0,0
-0.0036013567200000006,-0.0006649746,0.0026490596,-0.0049706106,0.0033091148,3.41,0,0
-0.007966336720000002,-0.0005672202000000001,0.005391310000000001,-0.0052995006,-0.0023921199999999998,3.411,0,0
-0.01224498872,5.4891200000000014e-05,0.008287474,-0.004785635999999999,-0.014865320000000001,3.412,0,0
-0.017453584,0.0007144240000000001,0.011149776,-0.0008407139999999996,-0.024944240000000003,3.413,0,0
-0.021502780000000003,0.0009167550000000001,0.01309988,0.00345209,-0.02775804,3.414,0,0
-0.020100074000000002,0.000289861,0.011922932,0.006202234000000001,-0.02608038,3.415,0,0
-0.014213474,-0.00017230300000000017,0.007991874,0.008566744000000001,-0.019993056,3.416,0,0
-0.005347573999999999,0.0005765849999999999,0.001698694000000001,0.009922180000000001,-0.010322556,3.417,0,0
0.0059922260000000015,0.001544021,-0.006395826,0.00968626,0.002517964,3.418,0,0
0.017042286,0.0017202286,-0.013922650000000002,0.007672508000000001,0.014489544,3.419,0,0
0.02648574,0.0022635166,-0.020498618,0.004899896,0.024855964,3.42,0,0
0.033128340000000006,0.0026274176,-0.024909240000000003,0.0013467880000000002,0.03318604,3.421,0,0
0.03586848,0.0013838722,-0.0259898,-0.00270231,0.036577319999999997,3.422,0,0
0.03379336,0.00047867620000000005,-0.021847277999999998,-0.006183152000000001,0.03467258,3.423,0,0
0.027666946,0.0020415296000000005,-0.014460923999999998,-0.008185376000000001,0.02906722,3.424,0,0
0.0187058,0.0048989676,-0.006562804,-0.008895846,0.019486018,3.425,0,0
0.0066519,0.0066247826,0.0029989160000000003,-0.008475094,0.006183638,3.426,0,0
-0.006537939999999999,0.0051222,0.011747156,-0.006937654000000001,-0.006612302,3.427,0,0
-0.018283940000000002,0.0021769500000000004,0.016202434,-0.004562359200000001,-0.017522702,3.428,0,0
-0.027599826,-4.9466000000000505e-05,0.01843442,-0.0018972011999999997,-0.026904502000000004,3.429,0,0
-0.0331936,-0.003954274000000001,0.02006654,0.0005249168000000001,-0.032582400000000004,3.43,0,0
-0.03340226,-0.007719448,0.018250839999999997,0.0031419528,-0.03256496,3.431,0,0
-0.029035400000000003,-0.008284676000000001,0.014812146,0.0055872228000000005,-0.028708380000000006,3.432,0,0
-0.0215314022,-0.008092556,0.011341454,0.007110762,-0.022048004000000003,3.433,0,0
-0.0104859822,-0.0074962788,0.0056047660000000015,0.00725786,-0.011092444000000002,3.434,0,0
0.0014292778000000003,-0.0046136448,-0.0008519940000000004,0.006920766,0.0012549560000000006,3.435,0,0
0.0113222778,-0.002255856800000001,-0.006226614,0.005819496000000001,0.011753196,3.436,0,0
0.019953117800000003,-0.0006345768000000002,-0.0109973,0.0033297700000000006,0.020933816,3.437,0,0
0.02620692,0.0021592052,-0.014572748,0.0003104499999999999,0.02779978,3.438,0,0
0.027349180000000004,0.0039978240000000005,-0.01533568,-0.00283709,0.0292685,3.439,0,0
0.024889,0.005127778,-0.013980598,-0.005670912,0.02641898,3.44,0,0
0.020418082,0.005355978,-0.011336035999999999,-0.0077626679999999995,0.020996442,3.441,0,0
0.012109821999999998,0.0038093880000000004,-0.006847564,-0.00862636,0.011826381999999998,3.442,0,0
0.0016193019999999987,0.0016762320000000002,-0.0013304239999999998,-0.008023954,0.0010302619999999997,3.443,0,0
-0.007701698000000002,-0.0008793639999999997,0.003896356,-0.0058262836,-0.008585338,3.444,0,0
-0.016133038000000002,-0.004413,0.008723934,-0.003025687600000001,-0.016860398,3.445,0,0
-0.023424300000000002,-0.006143646000000001,0.012775992,-0.00045940559999999996,-0.02325956,3.446,0,0
-0.02633872,-0.004363108,0.01456546,0.0024043584,-0.0258438,3.447,0,0
-0.02467998,-0.0023572999999999997,0.014144994000000001,0.004919338400000001,-0.02465896,3.448,0,0
-0.0211721,-0.0012908359999999996,0.012098876000000001,0.006120424,-0.021121608000000004,3.449,0,0
-0.01480327,0.000422698,0.007979961999999998,0.006411514,-0.014557658000000001,3.45,0,0
-0.005009370000000001,0.0029662060000000003,0.002249681999999999,0.006318206000000001,-0.005242178,3.451,0,0
0.00431111,0.0046268080000000005,-0.0034426580000000003,0.005486466000000001,0.0037984220000000005,3.452,0,0
0.01195513,0.005749314,-0.008525992000000001,0.0037120039999999997,0.011750382,3.453,0,0
0.01890317,0.005931768,-0.012800394000000001,0.0017231279999999998,0.01906027,3.454,0,0
0.0229496,0.004638104,-0.015414340000000002,-0.0003188920000000001,0.023387220000000004,3.455,0,0
0.02295728,0.0032979214,-0.015928280000000003,-0.00261252,0.023356580000000002,3.456,0,0
0.020857260000000002,0.0023762474,-0.014664922000000004,-0.0044394280000000005,0.020471264000000003,3.457,0,0
0.016209638000000002,0.0007710950599999999,-0.010899880000000002,-0.0057947499999999996,0.015211702,3.458,0,0
0.0077715779999999995,-0.0019002509400000002,-0.0041494800000000005,-0.006509512,0.007167902,3.459,0,0
-0.001638302,-0.0034976049400000002,0.0025052200000000007,-0.005775416,-0.001251097999999999,3.46,0,0
-0.009656262,-0.00443821634,0.00815632,-0.0044459986,-0.008447458,3.461,0,0
-0.016686962,-0.005205015140000001,0.013046542000000001,-0.0030911976,-0.014722982,3.462,0,0
-0.021790300000000002,-0.005017094000000001,0.015277120000000002,-0.0008128636000000001,-0.01924538,3.463,0,0
-0.02235104,-0.003123128,0.014138540000000002,0.0015717324,-0.02051048,3.464,0,0
-0.01954976,-0.00020307400000000003,0.011389472,0.0030376124000000004,-0.019066822,3.465,0,0
-0.015695967999999998,0.001781262,0.008489167200000002,0.004382685000000001,-0.01584942,3.466,0,0
-0.00938172,0.0024461448,0.0046633772,0.005311848,-0.009960828000000001,3.467,0,0
-0.001151440000000001,0.00274748,6.838720000000012e-05,0.005219942000000001,-0.002511648,3.468,0,0
0.006077820000000001,0.004222802,-0.0040567128,0.004314064,0.004488072000000001,3.469,0,0
0.012467820000000001,0.005371238,-0.006851004799999999,0.0029293742000000003,0.010558614000000001,3.47,0,0
0.018125028,0.0045205620000000005,-0.00892063,0.0013183862,0.015870191999999998,3.471,0,0
0.0199666,0.00283919,-0.00912865,-0.0007886197999999999,0.018811059999999998,3.472,0,0
0.018368852,0.0018092260000000006,-0.007361088600000001,-0.0027662298,0.01838864,3.473,0,0
0.015414648,4.3545999999999884e-05,-0.0058063126,-0.0037262498000000003,0.015831054,3.474,0,0
0.01014381,-0.003382832,-0.0037295404000000005,-0.004199924,0.010888382,3.475,0,0
0.0028159299999999995,-0.004352688,-0.0010092984,-0.004305158,0.003858622,3.476,0,0
-0.00353767,-0.0029634080000000007,0.0011379356000000003,-0.0033698688,-0.0030456780000000004,3.477,0,0
-0.008506342,-0.0032561800000000004,0.0028803462000000007,-0.0020236432,-0.008836698,3.478,0,0
-0.013088618000000002,-0.0032601160000000004,0.004936482200000001,-0.0007880372,-0.013790612,3.479,0,0
-0.01551284,-0.0011852660000000004,0.0065744160000000005,0.0007401468,-0.01666268,3.48,0,0
-0.01542206,-0.00023057800000000016,0.006953198000000001,0.0023165388,-0.01650114,3.481,0,0
-0.013956544000000001,-0.0017030240000000002,0.0065702140000000004,0.0033534996000000004,-0.014529975999999998,3.482,0,0
-0.011157758,-0.0029661920000000003,0.005481948,0.004067152,-0.011172028799999999,3.483,0,0
-0.0061286399999999994,-0.0032941879999999995,0.0032211500000000003,0.004339272,-0.0058574688000000005,3.484,0,0
-0.00044386000000000035,-0.0039020977999999996,0.00022184799999999975,0.0036372708,0.00017963120000000004,3.485,0,0
0.004919880000000001,-0.0039999678,-0.0026810880000000003,0.0027565434000000003,0.0051928312,3.486,0,0
0.010298464,-0.0022027497999999998,-0.0054959480000000005,0.0020264280000000003,0.0096417072,3.487,0,0
0.013945458,0.00026537020000000003,-0.007769628000000001,0.0009371260000000001,0.013269099999999999,3.488,0,0
0.014909200000000001,0.0014381582000000002,-0.008403562,-0.000277432,0.0142545,3.489,0,0
0.013671976,0.0028579300000000003,-0.007660040000000001,-0.0009285888,0.01307157,3.49,0,0
0.011012362,0.003922844,-0.006470010000000001,-0.0014004514000000002,0.010813218,3.491,0,0
0.006287242,0.0030279160000000003,-0.00448111,-0.0022035820000000004,0.006784922,3.492,0,0
0.0005875619999999998,0.002333916,-0.001505912,-0.0023211380000000004,0.0014683620000000002,3.493,0,0
-0.0041449780000000006,0.0021148198000000003,0.001108468,-0.0016934772000000002,-0.0031761380000000002,3.494,0,0
-0.008155954,0.0012903898,0.00306284,-0.0012583860000000002,-0.0070962279999999996,3.495,0,0
-0.0116646,0.0014613818,0.005177576,-0.0009573554000000003,-0.010722976,3.496,0,0
-0.012948200000000002,0.0031869538,0.006583936,-0.000152352,-0.0124846,3.497,0,0
-0.011394358,0.0032123718,0.0065221920000000004,0.000552478,-0.011817218,3.498,0,0
-0.00946337,0.0016838659999999996,0.006131074,0.0004884892,-0.010122704,3.499,0,0
-0.006771589999999999,0.0006020639999999996,0.005223066,0.000592371,-0.007280764,3.5,0,0
-0.0021553600000000007,-0.0013287540000000001,0.003190886,0.0006761534,-0.0026858460000000004,3.501,0,0
0.0021325,-0.0029997294000000006,0.0009597459999999997,0.00025697199999999995,0.0017731340000000002,3.502,0,0
0.005731598,-0.0017687114,-0.0012363360000000002,-0.00036830600000000005,0.0054634720000000005,3.503,0,0
0.009453310000000001,0.0009946846000000002,-0.0037662,-0.0009497400000000001,0.009203538,3.504,0,0
0.011689890000000001,0.0026568186000000002,-0.0059586380000000005,-0.001683355,0.011952778,3.505,0,0
0.011736722000000002,0.0032255104,-0.006052498000000001,-0.0027685419999999997,0.012430750000000003,3.506,0,0
0.010300896000000002,0.0028152838000000003,-0.0047594180000000005,-0.0034601220000000004,0.011266494000000002,3.507,0,0
0.007237310000000001,0.0009567098000000004,-0.003437382,-0.004031334,0.009170472,3.508,0,0
0.0027473240000000006,-0.0016984402,-0.001306658,-0.004277496,0.0052354260000000005,3.509,0,0
-0.00141992,-0.0033900782000000004,0.001140542,-0.0036656864,0.0006363859999999994,3.51,0,0
-0.0046405560000000005,-0.0034263674000000006,0.002408668,-0.0023432004000000003,-0.0028654220000000003,3.511,0,0
-0.007195692,-0.0031374334000000004,0.0029656120000000003,-0.0009605543999999999,-0.005722612,3.512,0,0
-0.008923486000000001,-0.0027392554000000005,0.0037905660000000004,0.00013815159999999992,-0.00819391,3.513,0,0
-0.008893848000000001,-0.0017248294000000001,0.004110082,0.0012440296,-0.008859684,3.514,0,0
-0.007565622000000001,-0.0013069234000000001,0.00403183,0.0018796040000000002,-0.007883948,3.515,0,0
-0.006563644,-0.00136350056,0.003659872,0.002389786,-0.006886706,3.516,0,0
-0.004265016,-0.00074278856,0.0023130720000000002,0.00275739,-0.00456053,3.517,0,0
-0.0006763159999999997,1.561744e-05,0.0004399899999999999,0.002840612,-0.0010508759999999999,3.518,0,0
0.001831078,0.00057730544,-0.001119184,0.0027105000000000007,0.001674918,3.519,0,0
0.00383962,0.0009527604400000001,-0.0023525020000000002,0.00236718,0.004151068,3.52,0,0
0.006569216000000001,0.0011053406,-0.003805882,0.001831278,0.007024344,3.521,0,0
0.00815559,0.0011180466000000001,-0.0046797340000000005,0.0010998436,0.008414136,3.522,0,0
0.00759063,0.0013216866,-0.004253934,0.0005819144000000001,0.007734996,3.523,0,0
0.007114692000000001,0.0016327506,-0.0038688200000000002,0.00010629439999999997,0.006739286,3.524,0,0
0.006011734,0.0020390475999999998,-0.003503918,-0.0002721564000000001,0.00456548,3.525,0,0
0.0026232399999999998,0.002329248,-0.0016181939999999999,-0.00028723240000000003,0.0007246679999999997,3.526,0,0
-0.000679872,0.0021432300000000003,0.00020588599999999996,-4.075800000000006e-05,-0.0024757579999999998,3.527,0,0
-0.002720938,0.0018701884000000002,0.0007549806,0.0003341596,-0.004719692,3.528,0,0
-0.00519488,0.0010140904,0.0016135306,0.0010407196,-0.007132596,3.529,0,0
-0.007096508,-0.0007184676,0.0023181186000000003,0.0017224704,-0.008735596,3.53,0,0
-0.00684073,-0.0020925256000000002,0.0018494386000000001,0.0019580364,-0.008221486,3.531,0,0
-0.006301600000000001,-0.0026981476000000003,0.0016650006,0.0020060084000000002,-0.007255006,3.532,0,0
-0.005493368,-0.003119694,0.0023530480000000004,0.002052904,-0.006539002,3.533,0,0
-0.002893392,-0.0025867460000000004,0.0023677180000000004,0.002162166,-0.0041978108,3.534,0,0
-0.0001001719999999995,-0.0014368396,0.001727528,0.0017534186000000003,-0.0013033227999999996,3.535,0,0
0.0018612820000000001,-0.0009327396,0.001437812,0.0008722106000000002,0.0006657752,3.536,0,0
0.004004062,-0.0006791976000000001,0.0006528999999999999,0.0002825446000000002,0.0026795872,3.537,0,0
0.005885332,-0.0005144133999999999,-0.001229296,-0.0004935814,0.0049921712,3.538,0,0
0.006240882,-0.0005659374,-0.00258525,-0.0015651994000000003,0.006028428000000001,3.539,0,0
0.005660784,-0.0003299844000000001,-0.002617786,-0.0018597776,0.00564922,3.54,0,0
0.004803974400000001,0.0003352476,-0.0027755927999999997,-0.0017406356,0.005031916,3.541,0,0
0.0029214544,0.0017900036,-0.0024485004,-0.0018963336,0.0033336018,3.542,0,0
0.00017806440000000005,0.0030663194,-0.0008165084,-0.0014014652000000002,0.0009705198000000003,3.543,0,0
-0.0019305776000000004,0.0024023414000000002,0.0005291496,-0.0005112071999999999,-0.0006086461999999999,3.544,0,0
-0.0032592436000000004,0.001009378,0.0011446436,6.998240000000004e-05,-0.0016977722,3.545,0,0
-0.004659310000000001,0.0009134238000000003,0.0018315404000000001,0.0007328704,-0.0031915262,3.546,0,0
-0.005056652000000001,0.0014466278,0.0021994740000000003,0.0014732644,-0.004084194,3.547,0,0
-0.004183824,0.0020769918000000005,0.0016468906000000002,0.0019042560000000002,-0.003464384,3.548,0,0
-0.0038535080000000003,0.0042667898,0.0011319048,0.0016077002000000002,-0.0032505656,3.549,0,0
-0.0036850600000000004,0.006764607800000001,0.0010312024,0.0012054502,-0.0029185696,3.55,0,0
-0.0018849800000000003,0.006336052,0.0007806124000000001,0.0010779942000000002,-0.0012074456000000003,3.551,0,0
3.359799999999992e-05,0.0017155040000000005,0.00039013080000000004,0.0008453750000000001,0.0004959684000000001,3.552,0,0
0.0008995400000000001,-0.004060698,0.00014562359999999999,0.0004892854,0.0015659364000000001,3.553,0,0
0.00252141,-0.00791875,-0.0003400066,6.278919999999996e-05,0.0030365820000000003,3.554,0,0
0.004183448,-0.009712070000000001,-0.0014120002000000001,-0.0005533668000000001,0.004494718,3.555,0,0
0.004377324,-0.0093853846,-0.0021282222,-0.0014313848000000002,0.004466278000000001,3.556,0,0
0.004040944,-0.006867758600000001,-0.0021739906000000004,-0.0022388096000000002,0.004100518,3.557,0,0
0.0035403690000000002,-0.0033283906000000003,-0.002142165,-0.00294517,0.0035216640000000003,3.558,0,0
0.001898181,-0.0011522844,-0.001294389,-0.0031017560000000002,0.0018102480000000004,3.559,0,0
0.00014413300000000006,-0.00039074240000000005,8.810299999999997e-05,-0.002756648,6.339200000000011e-05,3.56,0,0
-0.0009517150000000001,-0.0001347398000000001,0.00048576080000000007,-0.00254652,-0.0006359964,3.561,0,0
-0.002274059,0.00030038880000000007,0.0005897810400000001,-0.002247686,-0.0014152844,3.562,0,0
-0.0030533680000000003,0.0008376782000000001,0.0008990590400000002,-0.0017711094,-0.0028320304000000003,3.563,0,0
-0.0028006240000000003,0.0008207134000000001,0.0005716370400000001,-0.0010709278,-0.0029751744000000003,3.564,0,0
-0.0023660980000000005,0.0007732399999999999,7.366104000000003e-05,-0.00038053980000000016,-0.002527285,3.565,0,0
-0.0021477640000000004,0.0020330500000000002,0.00027277064,0.00023678820000000005,-0.0029937466,3.566,0,0
-0.0013338854000000005,0.004095295400000001,0.0002872026,0.0008821662,-0.0027327606,3.567,0,0
-1.85354e-05,0.0046251339999999995,-0.00022154040000000002,0.0013808976,-0.0012233526000000002,3.568,0,0
0.00045843559999999997,0.0032518266,-5.474400000000023e-06,0.001282726,-0.00037575659999999986,3.569,0,0
0.0005893178000000001,0.0011977600000000006,0.0006476536,0.0008022232000000001,0.00028466799999999997,3.57,0,0
0.0015644938000000002,-0.000720662,0.0003939669999999999,0.0007482682,0.00191378,3.571,0,0
0.0020203992,-0.0026068340000000006,0.00011955679999999994,0.0003700540000000001,0.003066974,3.572,0,0
0.0012627666,-0.0029137060000000003,0.0008632128,-0.00025746000000000005,0.003082642,3.573,0,0
0.0013613996,-0.0008130139999999998,0.0007248156,-0.00033525800000000006,0.00305849,3.574,0,0
0.0019004214000000001,0.0016135860000000002,-0.00029386040000000004,-0.0004920132,0.002627723,3.575,0,0
0.0008963754,0.0020953242000000005,-9.285480000000002e-05,-0.0009682382,0.001048187,3.576,0,0
5.160939999999999e-05,0.0022434962000000003,0.00017369126,-0.0009014550000000001,-0.00029459699999999996,3.577,0,0
0.0002494450000000001,0.0026374802000000003,-0.00047463274000000003,-0.0005516652000000001,-0.0007902683999999999,3.578,0,0
-0.000776109,0.0015763722000000004,-0.00020503954000000002,-0.0006136638,-0.0014279044,3.579,0,0
-0.0018189450000000002,0.0014694662,0.00061305646,-0.0004108432,-0.0016963553999999998,3.58,0,0
-0.001190473,0.001736346,0.0003229994599999999,5.542940000000003e-05,-0.0009609126,3.581,0,0
-0.0007948661999999998,-0.00018142000000000006,9.361339999999988e-05,0.00038601240000000006,-0.0006182836,3.582,0,0
-0.0014017672,-0.0030756280000000004,0.0008754294,0.0007920046000000001,-0.0009847782,3.583,0,0
-0.0012764932000000001,-0.004104466000000001,0.0012010874,0.0013751072,-0.0007143208000000001,3.584,0,0
-0.000662097,-0.0038625100000000004,0.00077143292,0.0016462246000000002,-0.00033328380000000003,3.585,0,0
-0.0008130929999999999,-0.0017505519999999994,0.0011571327200000001,0.0015410844000000002,-0.0007987606,3.586,0,0
-0.0003225658,0.0030243540000000004,0.00155277852,0.00126538818,-0.0006069118,3.587,0,0
0.0014195282000000003,0.006994318,0.00096179952,0.0005397441800000001,0.0004881662,3.588,0,0
0.0027083742000000004,0.009828478000000002,0.00051532152,-5.8464419999999976e-05,0.0008564208000000002,3.589,0,0
0.0025401578,0.00872052,0.000596305,-7.558241999999998e-05,0.0007630734,3.59,0,0
0.0020296138000000003,0.0016941999999999999,-0.00010708419999999998,-0.00011960482,0.0012534676000000003,3.591,0,0
0.0008885258000000001,-0.00527526,-0.001266184,-0.00026200120000000006,0.0011422001,3.592,0,0
-0.0009916222,-0.008256236,-0.002025189,4.6668259999999985e-05,0.00024680010000000007,3.593,0,0
-0.0014767216,-0.010169458,-0.0034672970000000003,0.00020778406,0.0003638961000000001,3.594,0,0
-0.0011518784,-0.009850410799999999,-0.004758974,-0.00021128554000000003,0.0005865465,3.595,0,0
-0.0012505584,-0.005160598,-0.005240936000000001,-0.00035517594000000004,0.00021366170000000005,3.596,0,0
-0.0007061146000000001,-0.0004746920000000001,-0.0051168080000000005,-0.00023964734,0.00047871940000000004,3.597,0,0
0.0002799534,0.002229228,-0.003924314000000001,-0.00036214980000000003,0.0009205178,3.598,0,0
0.00026360260000000003,0.004753749999999999,-0.0008251480000000008,-0.0005668040000000001,-2.857419999999992e-05,3.599,0,0
0.0001484602,0.0070735068000000005,0.002399252,-0.0002828026,-0.0007742362,3.6,0,0
0.0003214622000000001,0.00768861,0.003745416,0.00034077580000000003,-0.00010741360000000009,3.601,0,0
-0.00011717759999999993,0.007345692,0.004528876000000001,0.0006603198000000002,-0.0004699004,3.602,0,0
-0.0005105684000000001,0.004678998,0.004318101600000001,0.0009906788,-0.0012333208000000003,3.603,0,0
-0.0007546642000000001,-0.0008378420000000001,0.0026759596,0.0013321258000000002,-0.0005353070000000001,3.604,0,0
-0.0008128733800000002,-0.004837486,0.0011010976,0.0011537936000000002,0.00010704899999999998,3.605,0,0
-0.00045842858000000005,-0.0049169240000000005,0.0009259330000000001,0.00036678360000000007,-0.00047895120000000004,3.606,0,0
7.512322000000003e-05,-0.0038963260000000003,0.0013242010000000001,-0.0001573204,-0.0005171408,3.607,0,0
0.0006401260200000001,-0.0021537780000000007,0.0013710302000000001,-0.0003945084,0.0002723412,3.608,0,0
0.00106539002,8.246199999999951e-05,0.0013093818000000001,-0.0008507124,-8.699859999999998e-05,3.609,0,0
0.0015083906000000003,-0.0006660340000000005,0.0010103838,-0.0007022878000000001,-0.0007403425999999999,3.61,0,0
0.0022078058,-0.0028261720000000005,0.00028724039999999994,-0.0001037158,-0.0003195944,3.611,0,0
0.0023524540000000004,-0.0044240602000000006,-0.0002442216000000001,0.00025411140000000003,0.00018717600000000005,3.612,0,0
0.0010223040000000004,-0.005288202200000001,-9.318640000000007e-05,0.0004699694000000001,-0.0002408999999999999,3.613,0,0
9.658000000000062e-06,-0.0039359218000000005,-0.000531152,0.0008687184000000001,9.35194000000001e-05,3.614,0,0
-0.0002667767999999999,-0.0002674337999999997,-0.000952764,0.0010223402000000001,0.0011892054000000002,3.615,0,0
-0.0012460904,0.0030222242000000005,-0.00010405800000000003,0.0005720698,0.0004537514000000001,3.616,0,0
-0.0015303822,0.0046412064,0.00013587159999999996,7.148460000000001e-05,-0.0006240465999999999,3.617,0,0
-0.0005482866,0.004366938400000001,-0.0006355284000000001,-0.00023752860000000002,-0.0002025467999999999,3.618,0,0
-0.0005498226,0.0023220540000000005,-0.00037661240000000005,-0.0005033288,-0.00033781779999999997,3.619,0,0
-0.0013317698,0.00011485600000000085,0.0003693416,-0.0007761790000000001,-0.0014258598,3.62,0,0
-0.0012944928,-0.0019627159999999998,0.00032199160000000003,-0.0006960486000000001,-0.0010404442000000002,3.621,0,0
-0.001676271,-0.003097712,6.752200000000004e-05,-0.0004667378,-0.00030035,3.622,0,0
-0.0022447986,-0.002153758,0.0004169664,-0.0004078822,-0.0010416918,3.623,0,0
-0.0014500696,-0.0003015605481999998,0.00038407080000000003,-0.000320773,-0.0012653542,3.624,0,0
-0.0006432450000000002,0.0010742014518,-0.0007965312,-0.00034948840000000004,-0.0005763541999999999,3.625,0,0
-0.0004983936000000001,0.0018471194518000001,-0.0019659272,-0.0004179028,-0.00041347400000000005,3.626,0,0
5.722799999999999e-05,0.0015175194518,-0.0029337152,-0.000346437,7.355179999999988e-05,3.627,0,0
0.00082437,0.0010697084518,-0.004267103600000001,-0.0005596834,0.0012488517999999999,3.628,0,0
0.001244687,0.0014334489999999998,-0.004726172000000001,-0.0010239054,0.0019657258,3.629,0,0
0.0013850644,0.0016262709999999999,-0.0041195488,-0.0010225902,0.0022955178000000002,3.63,0,0
0.0017275716,0.00109176846,-0.0035770588000000004,-0.000783316,0.002924408,3.631,0,0
0.001980226,0.00013836845999999983,-0.0008669168,-0.0009005238,0.002915794,3.632,0,0
0.0013267260000000003,-0.0003695045400000001,0.0032995752,-0.0007161124,0.0017997920000000001,3.633,0,0
0.0005691100000000001,-0.0010610705400000001,0.0050688252,0.0001254036,0.0009200220000000002,3.634,0,0
0.00023598165999999995,-0.0022457025400000005,0.005367619200000001,0.00049004,0.00011583200000000001,3.635,0,0
-0.00076131634,-0.002225579,0.005965893200000001,0.0003155358,-0.001389706,3.636,0,0
-0.00163355234,-0.0004004150000000001,0.0047969072000000005,0.0006361398,-0.0025212480000000002,3.637,0,0
-0.00118197254,0.0019402430000000001,0.0017821592000000002,0.0010959664,-0.002475118,3.638,0,0
-0.0012935825400000002,0.003338769,0.00022329719999999997,0.0010212723999999999,-0.0025534400000000006,3.639,0,0
-0.0019578282,0.0032683710000000004,0.0001877036,0.0008032079999999999,-0.002722078,3.64,0,0
-0.0011438822000000002,0.002281358,-0.00016553080000000002,0.0008374096,-0.0018617756000000002,3.641,0,0
-0.0003634802,0.0006935520000000003,-0.0007054941999999999,0.0006165595999999999,-0.0008065836,3.642,0,0
-0.0007137280000000001,-0.001556352,-0.0005228230000000001,-3.3394400000000095e-05,-0.00011318160000000003,3.643,0,0
6.692399999999994e-05,-0.0028965720000000005,-0.00040626240000000004,-0.00038963180000000004,0.0010570704000000002,3.644,0,0
0.0015327280000000001,-0.0021300986000000006,-0.0007195050000000001,-0.00039406480000000007,0.0024143744,3.645,0,0
0.0019133740000000002,-0.0005335025999999999,-0.0007556678000000001,-0.0005205026000000001,0.002816358,3.646,0,0
0.002241912,0.0010752954000000001,-0.0008518504,-0.0005379064,0.0026322760000000002,3.647,0,0
0.0031220840000000002,0.0021242594,-0.0014695716,-0.00025513994,0.0026335300000000002,3.648,0,0
0.0028984980000000002,0.0017321294000000001,-0.0018618182,-0.00026987994000000003,0.001630158,3.649,0,0
0.0016625919999999998,0.0005477860000000002,-0.0015619472,-0.00073038254,-2.8547999999999985e-05,3.65,0,0
0.001163783,-0.0008351859999999999,-0.0015763578,-0.0009980759399999999,-0.0005343550200000001,3.651,0,0
0.00023360699999999988,-0.0017483400000000001,-0.0013683260000000002,-0.00088118614,-0.00120541502,3.652,0,0
-0.0013045250000000002,-0.0012443180000000001,-0.00032516000000000006,-0.0005902546000000001,-0.0022896450200000002,3.653,0,0
-0.0017779630000000002,0.0004878440000000003,0.00017527279999999997,-0.00025938519999999996,-0.0021372414200000003,3.654,0,0
-0.002001141,0.001996196,-9.405220000000004e-05,0.0002780422,-0.0015887778200000002,3.655,0,0
-0.0031524000000000005,0.0027965582000000003,0.0003435916,0.0010239042,-0.0023231568,3.656,0,0
-0.0034024720000000006,0.0034764602,0.0008925358,0.0013022774,-0.0026882768,3.657,0,0
-0.0024264602,0.0021412462,0.0005283878,0.0012521354,-0.0016367518000000001,3.658,0,0
-0.0018666222000000001,-0.0007311998000000004,0.0003937290000000001,0.0014086054,-0.0010698894000000002,3.659,0,0
-0.0006455381999999997,-0.0015207578000000005,0.000306554,0.0015911620000000001,-0.0007163350000000002,3.66,0,0
0.0014101638000000001,-0.0016577214000000006,-0.0005959900000000001,0.0016526740000000002,0.000873543,3.661,0,0
0.0026964758,-0.0034558434000000002,-0.00146954,0.001415473,0.002483061,3.662,0,0
0.0030921660000000004,-0.0035270314000000005,-0.0016074254000000001,0.000837697,0.0025675439999999997,3.663,0,0
0.0035963640000000003,-0.0005082754,-0.0021069594,0.0002697012000000001,0.002702954,3.664,0,0
0.003544158,0.0007476466000000003,-0.0023739754,-0.00042086680000000005,0.003163246,3.665,0,0
0.002020816,-0.001005696,-0.0011250013999999997,-0.0011668688,0.00228588,3.666,0,0
0.0005028219999999997,-0.002089784,-9.693399999999774e-06,-0.0012132632599999998,0.0012533669999999998,3.667,0,0
-0.00017426480000000015,-0.00241377,0.0007285260000000001,-0.0008718116600000001,0.0009472158,3.668,0,0
-0.0016924648000000001,-0.003957354,0.0021937700000000003,-0.0008699776600000001,-0.0004073201999999998,3.669,0,0
-0.0032648948000000002,-0.005061186,0.0033148860000000004,-0.00053558526,-0.0021208482,3.67,0,0
-0.002922224,-0.0039176260000000004,0.003108308,5.3058739999999976e-05,-0.0024764242,3.671,0,0
-0.002514246,-0.0024779580000000006,0.002413903,6.85344e-05,-0.0027420852,3.672,0,0
-0.0028120771999999997,-0.0016278660000000004,0.0019704146,0.0003105348,-0.0035804879999999997,3.673,0,0
-0.0020767992,-0.0004443600000000002,0.0013546272,0.0007919846,-0.0032652460000000003,3.674,0,0
-0.0007474992000000001,0.0012096639999999998,0.000516025,0.000935926,-0.0020160894,3.675,0,0
-0.0003693513999999999,0.0033573739999999998,0.00018534219999999998,0.0009447360000000001,-0.0016227203599999999,3.676,0,0
0.0003562586,0.005419803999999999,9.663999999999506e-07,0.0009486513999999999,-0.00051533636,3.677,0,0
0.0018778226000000001,0.007079936,-0.0006660352,0.0007187407999999999,0.0017733576400000002,3.678,0,0
0.0030658066,0.008614198,-0.0013477218,-1.6207199999999976e-05,0.0032620116400000005,3.679,0,0
0.0036713426,0.008772366,-0.0015240036,-0.0006659930000000001,0.0038495470400000003,3.68,0,0
0.0037742440000000004,0.0067197820000000005,-0.0014215412000000002,-0.001087959,0.004617532,3.681,0,0
0.0032844232,0.0033085060000000006,-0.0012648564,-0.0016820406,0.004668146000000001,3.682,0,0
0.0014343892000000004,-0.0009949919999999997,-0.0003649324,-0.00218833,0.002794158,3.683,0,0
-0.0005511507999999997,-0.005042462,0.0007540096,-0.0020183560000000002,0.00112322,3.684,0,0
-0.0017064848000000001,-0.007464354,0.0008971536000000001,-0.0016343142,9.623800000000012e-05,3.685,0,0
-0.0028351268,-0.007577250000000001,0.0009647340000000001,-0.0016061264,-0.001685736,3.686,0,0
-0.003756822,-0.005175806,0.001552534,-0.0011070478000000002,-0.003483002,3.687,0,0
-0.003438264,-0.001307776,0.0011895773800000003,-0.00028811980000000004,-0.0036690580000000006,3.688,0,0
-0.00287313,0.0010750640000000001,0.00045651958,0.0003834182,-0.0036562540000000003,3.689,0,0
-0.002901758,0.0012438100000000001,0.00064982278,0.0010580744000000001,-0.0043946160000000005,3.69,0,0
-0.0018598540000000002,0.0007125280000000005,7.602078000000002e-05,0.0015924805999999998,-0.0035681794,3.691,0,0
-0.00041412400000000004,-0.0008313279999999999,-0.00097183522,0.002005898,-0.0022540594000000002,3.692,0,0
0.00043044,-0.00269784,-0.0012307986000000002,0.002045758,-0.0015279577999999998,3.693,0,0
0.0016235380000000003,-0.0036465660000000004,-0.0016758788,0.00181427,9.847420000000016e-05,3.694,0,0
0.0029740920000000002,-0.0031268620000000002,-0.0021472460000000002,0.0011691880000000003,0.0023101602000000004,3.695,0,0
0.0034783120000000003,-0.0016792220000000002,-0.0019850748,0.00039508200000000016,0.0036531336000000005,3.696,0,0
0.0037151220000000004,-3.5866000000000066e-05,-0.0014158180000000003,-0.0002760859999999999,0.0045490796,3.697,0,0
0.0041049400000000005,0.001223256,-0.0008623360000000003,-0.001232136,0.005426704,3.698,0,0
0.0031111984,0.002228038,-0.00022918260000000002,-0.001912674,0.004714952,3.699,0,0
0.0013177304000000002,0.0034646440000000002,0.00042768920000000005,-0.002080642,0.0029534039999999998,3.7,0,0
0.00020865439999999999,0.0038907959999999998,0.0007586690000000001,-0.0018111120000000001,0.0012261719999999998,3.701,0,0
-0.0009672036000000001,0.0043997640000000005,0.000771056,-0.0015413386,-0.0008814239999999999,3.702,0,0
-0.0026358376000000005,0.005584744,0.00048532688,-0.0011258196000000001,-0.0028562179999999998,3.703,0,0
-0.0033189040000000006,0.005970612,0.00021528748,-0.00043953760000000003,-0.0038715660000000003,3.704,0,0
-0.0032184500000000003,0.004042216,-4.6163520000000035e-05,-6.26754e-05,-0.004028752,3.705,0,0
-0.0038525040000000005,0.0007145640000000004,0.00021475148000000004,0.00012754200000000002,-0.0040033840000000005,3.706,0,0
-0.004028108,-0.0013773559999999997,0.00088193768,0.0005863006,-0.0033351220000000003,3.707,0,0
-0.0028028960000000005,-0.00248105,0.0009988482,0.0013645576,-0.001925782,3.708,0,0
-0.0014893560000000003,-0.0043920899999999995,0.001209748,0.0016439656,-0.000726744,3.709,0,0
-0.000227118,-0.004971866,0.0014483946000000002,0.0016684836,0.00044071800000000005,3.71,0,0
0.00251631,-0.00202673,0.0005373165999999998,0.0017491574,0.002068562,3.711,0,0
0.005002054000000001,0.0004371100000000001,-0.0009453694000000001,0.0013889632,0.0035187740000000006,3.712,0,0
0.005704570000000001,-0.00032877879999999984,-0.0013729268000000003,0.0006886508,0.004004326000000001,3.713,0,0
0.006109380000000001,-0.0016092128000000001,-0.0013496924600000003,0.0001525174,0.004520954,3.714,0,0
0.00593439,-0.0015329328000000001,-0.0017101178600000002,3.396199999999966e-06,0.005074014000000001,3.715,0,0
0.00376486,-0.0019113206000000002,-0.0011534352600000002,-0.00024340480000000002,0.004142450000000001,3.716,0,0
0.0010222760000000003,-0.0032817536000000003,4.746074000000001e-05,-0.0003014886,0.0022654200000000006,3.717,0,0
-0.0008025539999999998,-0.0037384808,0.0005417047400000001,-0.00014638019999999998,0.0006769620000000002,3.718,0,0
-0.0029445779999999998,-0.0019401788000000001,0.0010675226000000002,-0.00033115879999999996,-0.00138931,3.719,0,0
-0.004486840000000001,0.0010681351999999999,0.0020126706000000005,-0.00034724399999999997,-0.0038822500000000003,3.72,0,0
-0.004822396,0.0032710869999999998,0.0024393400000000003,0.00023359980000000008,-0.005005522000000001,3.721,0,0
-0.005049584,0.004215418,0.0022393580000000003,0.0006637878000000002,-0.005273160000000001,3.722,0,0
-0.005247654000000001,0.003721032,0.001762094,0.0008859698000000002,-0.005524956,3.723,0,0
-0.0046614479999999995,0.0020298599999999997,0.0010763388000000003,0.0015810178,-0.004363929220000001,3.724,0,0
-0.0034291582000000004,-0.0003353700000000001,0.00022902859999999998,0.00202145,-0.0023003892200000003,3.725,0,0
-0.0021147262000000004,-0.0024878918,-0.0006614534,0.0015884866,-0.0011527060199999998,3.726,0,0
-0.0001114142000000004,-0.0031855058,-0.0013020714000000003,0.0009376966,0.0005178639800000001,3.727,0,0
0.0025489298,-0.0007185558000000003,-0.0014921694000000001,0.0003817106000000001,0.00292228998,3.728,0,0
0.0045304718,0.0037329742,-0.0018238562,-0.00037730540000000006,0.003954381200000001,3.729,0,0
0.0053841900000000005,0.0053921262,-0.0020555980000000005,-0.0009629394,0.003999915200000001,3.73,0,0
0.005883686000000001,0.0037902680000000007,-0.00197904,-0.0011392514000000001,0.004547418,3.731,0,0
0.005024852400000001,0.0009564320000000001,-0.002089856,-0.0013361454,0.004510802,3.732,0,0
0.0025911464,-0.00242016,-0.0016715616000000002,-0.0015639453999999999,0.0024946820000000002,3.733,0,0
0.0006437184,-0.004958420000000001,-0.0012845792000000002,-0.0014820213999999997,0.0005008960000000001,3.734,0,0
-0.0006866156,-0.005377260000000001,-0.0015047572,-0.0012940794000000002,-0.0006385839999999999,3.735,0,0
-0.0024666756,-0.0038873464,-0.0010283552,-0.0012100242000000002,-0.00251836,3.736,0,0
-0.003084504,-0.0017696924,6.097880000000011e-05,-0.0006234992,-0.00431008,3.737,0,0
-0.0024822010000000003,-0.0002885784000000001,0.00045821440000000016,-5.471979999999998e-05,-0.004307078000000001,3.738,0,0
-0.002849205,-0.0005959284,0.0009028640000000002,-3.726940000000001e-05,-0.00420651,3.739,0,0
-0.003452073,-0.0009972896000000001,0.00215539,0.00022642859999999997,-0.004404894,3.74,0,0
-0.0026317619999999997,0.0004755868,0.002861236,0.0007583488,-0.003034174,3.741,0,0
-0.001608196,0.0024306728000000003,0.00302453,0.0009150038,-0.0015459299999999998,3.742,0,0
-0.0013555172,0.0028646828,0.003145792,0.0010603364,-0.0006763660000000001,3.743,0,0
0.00012514280000000007,0.0022239788,0.002553718,0.0014184345999999999,0.0012686180000000002,3.744,0,0
0.0023542928000000003,0.001410458,0.0011716539999999998,0.0010370816,0.003230328,3.745,0,0
0.0032224598,-6.834620000000018e-05,-0.0005418040000000001,0.0002085695999999999,0.003833892,3.746,0,0
0.0036096497999999998,0.0003390738000000001,-0.0022521660000000003,-0.0003638464000000001,0.004484104000000001,3.747,0,0
0.0045654120000000005,0.0040172478,-0.0036459260000000003,-0.0007273114,0.005223618,3.748,0,0
0.0040395832,0.0062232118000000005,-0.003779024,-0.0012442320000000003,0.004438038,3.749,0,0
0.0018200451999999998,0.0050157578,-0.002775192,-0.0017852610000000002,0.002636732,3.75,0,0
0.0009153146000000003,0.003464608,-0.0015168020000000005,-0.0017838910000000001,0.0013193539999999996,3.751,0,0
2.687580000000018e-05,-0.0003893719999999998,2.5999999999867275e-08,-0.001755873,-0.00014731800000000018,3.752,0,0
-0.0023469102,-0.006339012000000001,0.0017315940000000001,-0.001849642,-0.0023883840000000003,3.753,0,0
-0.0035809534000000006,-0.008033624000000001,0.0028796820000000006,-0.0014396664000000002,-0.0038521300000000005,3.754,0,0
-0.0036472334,-0.005679108,0.0027520624,-0.0005167603999999999,-0.003829364,3.755,0,0
-0.0043918048,-0.00289921,0.0024277378000000004,5.918159999999999e-05,-0.003917534,3.756,0,0
-0.0048361920000000004,-2.08420000000003e-05,0.0024557358000000004,0.0005420656,-0.004179342,3.757,0,0
-0.00382585,0.0013343079999999998,0.0021033498000000003,0.0012694916,-0.0027287220000000003,3.758,0,0
-0.00237267,-0.00018936599999999984,0.0011501126,0.0013945976,-0.000909748,3.759,0,0
-0.0007732140000000003,-0.001949404,0.0002822142000000001,0.0012313908000000002,-0.00018445000000000004,3.76,0,0
0.001374236,-0.0033092800000000004,-0.0006470591999999998,0.0011417046,0.0016112599999999998,3.761,0,0
0.0035243720000000004,-0.004002068,-0.0021498832,0.000732566,0.00403178,3.762,0,0
0.004853518,-0.0020247579999999998,-0.0031397632000000003,0.00011668640000000001,0.00467369,3.763,0,0
0.005519882,0.0011801600000000002,-0.0032580120000000002,-0.0002177152,0.004737146,3.764,0,0
0.005944344000000001,0.002764852000000001,-0.003145368000000001,-0.0004283352,0.0051480960000000004,3.765,0,0
0.004700261000000001,0.002598338,-0.0024853208000000003,-0.000790649,0.0038461386000000005,3.766,0,0
0.0024915110000000005,0.0017352920000000007,-0.0011769708000000003,-0.0009208664000000001,0.0015150685999999998,3.767,0,0
0.0009515570000000001,0.0004993522000000002,-0.00030442880000000025,-0.0009376791999999999,7.561459999999999e-05,3.768,0,0
-0.001311469,-1.03118000000001e-05,0.0005889972,-0.0011782572,-0.0018608674000000001,3.769,0,0
-0.0038820710000000004,0.0007078321999999999,0.0018419712000000003,-0.0011023880000000002,-0.0040758593999999995,3.77,0,0
-0.005070792000000001,0.0018540222000000002,0.0022979100000000002,-0.000360678,-0.004789626000000001,3.771,0,0
-0.005125132,0.0025395164000000005,0.00208405,0.00013682599999999997,-0.004751272000000001,3.772,0,0
-0.0050261820000000006,0.0022613862000000007,0.00227324,0.0002830367,-0.004920688,3.773,0,0
-0.003902652,0.0017327402,0.002398134,0.0008952386999999999,-0.004070548,3.774,0,0
-0.0016396580000000004,0.0022511462000000004,0.0017014492,0.0011473303,-0.002242848000000001,3.775,0,0
5.749399999999984e-05,0.0030712042,0.0010142452000000003,0.0005638585000000002,-0.001006092,3.776,0,0
0.001738214,0.0027717022,0.00032627920000000024,0.0003143235,0.00040104599999999995,3.777,0,0
0.0038951360000000004,0.0018826222000000003,-0.0011848488000000001,0.0002916452,0.002444414,3.778,0,0
0.005378078,0.0003273282000000003,-0.0024986468,-0.00017220679999999997,0.004025126,3.779,0,0
0.005428994,-0.0015460098,-0.0024076194000000003,-0.000522546,0.004520334,3.78,0,0
0.00532043,-0.0024233758,-0.0021091986000000003,-0.0005850128,0.00484799,3.781,0,0
0.004551384,-0.001893764,-0.0021695366,-0.0008041798,0.0049472760000000005,3.782,0,0
0.001950424,-0.0007177979999999999,-0.0015273306000000001,-0.0008715528,0.0033059940000000005,3.783,0,0
-0.0005636899999999999,0.00045666200000000004,-0.00047178259999999995,-0.0006544992,0.001246862,3.784,0,0
-0.002594322,0.001373254,-0.00011857920000000002,-0.0006159046,-0.00024726999999999985,3.785,0,0
-0.0048486020000000005,0.000896529,0.0006985960000000001,-0.00042905680000000004,-0.0025032220000000003,3.786,0,0
-0.00636424,0.00021354099999999993,0.002401696,7.342320000000002e-05,-0.004882684,3.787,0,0
-0.0062541720000000006,-1.3197000000000057e-05,0.003322546,0.0003775422,-0.0055232300000000005,3.788,0,0
-0.005366144000000001,-0.0013442670000000001,0.003192798,0.0006491426000000001,-0.00546665,3.789,0,0
-0.0041920826,-0.003692407,0.002852263,0.0011623652000000001,-0.005272144,3.79,0,0
-0.0023943292000000002,-0.005156936000000001,0.0021620287800000002,0.00173054,-0.0037132346000000004,3.791,0,0
-0.0005918792000000001,-0.0053777700000000005,0.0009295057800000001,0.002121238,-0.0017723166000000001,3.792,0,0
0.0007913807999999999,-0.00519225726,0.00013515778,0.002312418,-0.0003044565999999998,3.793,0,0
0.0022147508,-0.0035011196600000004,-0.0006735042200000001,0.002509372,0.0018122294000000002,3.794,0,0
0.0038793094,-0.0011890256600000002,-0.00173209122,0.0024792140000000004,0.0042271854,3.795,0,0
0.005157548,0.0004276223399999999,-0.002557473,0.0017469004000000002,0.005230140000000001,3.796,0,0
0.0057225060000000005,0.00127360434,-0.0030982480000000005,0.0007295164000000001,0.005834730000000001,3.797,0,0
0.005825198,0.0016306836000000002,-0.0035349820000000003,-0.0001396896,0.00655192,3.798,0,0
0.0048065528,0.001839726,-0.0032863700000000003,-0.0012528596,0.005658752,3.799,0,0
0.0026116308,0.00204149,-0.0015737460000000004,-0.0023440936000000004,0.0031559,3.8,0,0
0.0005298607999999999,0.0024646140000000004,-0.00011488600000000024,-0.0027202520000000003,0.0010242919999999996,3.801,0,0
-0.0014439632,0.0023722400000000003,0.0007448779999999998,-0.0024825976000000002,-0.00089296,3.802,0,0
-0.0038248331999999998,0.0021116552,0.002198376,-0.0019491002000000001,-0.0037437060000000003,3.803,0,0
-0.00526364,0.0016532388000000003,0.002832772,-0.0011934072,-0.005758788000000001,3.804,0,0
-0.005143114,0.0011407440000000002,0.001693544,-0.00042372020000000006,-0.006100324000000001,3.805,0,0
-0.005028368,0.0008328580000000001,0.000811296,0.0003737298,-0.005922170000000001,3.806,0,0
-0.0046616159999999995,0.00027028800000000004,0.00032109000000000006,0.0013026474000000002,-0.005584657999999999,3.807,0,0
-0.00261566,0.00011471460000000006,-0.001130252,0.0018778320000000003,-0.003954126400000001,3.808,0,0
-0.0003892539999999999,0.00042285300000000005,-0.00216373,0.0018703852,-0.0017015924,3.809,0,0
0.0007407840000000001,-3.9804200000000014e-05,-0.0018354544,0.0019037154,-0.00012122840000000005,3.81,0,0
0.0026407460000000002,-0.000565188,-0.0011858863999999998,0.0018007820000000003,0.0019534156000000002,3.811,0,0
0.004636612,-0.0003517850000000001,-0.0006854003999999997,0.00103046366,0.0040613956,3.812,0,0
0.0050022040000000005,-0.00038302480000000004,-0.00027342439999999995,0.00018219746,0.00500891,3.813,0,0
0.005162534,0.0005497712,-0.00019672439999999993,-0.00027606274,0.005471084,3.814,0,0
0.005139072,0.0032616892000000004,-0.000579086,-0.0008840719400000001,0.005956244000000001,3.815,0,0
0.00341728,0.005023191000000001,-0.000769678,-0.00185477654,0.004952280400000001,3.816,0,0
0.0010084960000000002,0.004115938,-0.00048581199999999985,-0.0022846182,0.0028773424000000003,3.817,0,0
-0.000554148,0.001826526000000001,5.16060000000001e-05,-0.0021947670000000002,0.0016571524000000002,3.818,0,0
-0.002536376,-0.0017106599999999993,0.0014096640000000001,-0.002172419,-0.0004097815999999998,3.819,0,0
-0.004525046,-0.005383062000000001,0.002846042,-0.0018315688,-0.0033664776000000003,3.82,0,0
-0.004759754,-0.0071516216,0.0030210880000000003,-0.0009333136,-0.005016086,3.821,0,0
-0.00450888,-0.006238682200000001,0.0029682980000000003,-0.0002533536,-0.005519654000000001,3.822,0,0
-0.004909834,-0.0027651082000000006,0.0034442760000000005,0.0003139754000000001,-0.006133048000000001,3.823,0,0
-0.004497476,0.0009223318,0.003238392,0.0013672574000000001,-0.005645496000000001,3.824,0,0
-0.0030084348,0.0027106598,0.0022375362,0.0022213412,-0.0032567100000000003,3.825,0,0
-0.0018092248000000002,0.0027206254,0.0014447502,0.002475282,-0.0013260400000000001,3.826,0,0
-0.00024848679999999986,0.002111094,0.0002905561999999997,0.002382908,0.00036982000000000025,3.827,0,0
0.0022497771999999997,0.000519494,-0.0019867458,0.0018602388000000002,0.0029177180000000006,3.828,0,0
0.0044173192,-0.001588786,-0.0041502498,0.0006870708000000002,0.004894914,3.829,0,0
0.005607480000000001,-0.0031789920000000003,-0.004880802,-0.00036092719999999994,0.005386768,3.83,0,0
0.006032396,-0.0038564940000000002,-0.004967454,-0.0009244295999999999,0.0058511200000000005,3.831,0,0
0.005834072000000001,-0.003523852,-0.004972238,-0.0013955255999999999,0.006011906,3.832,0,0
0.0047329830000000005,-0.002964941,-0.003482192,-0.0016429684,0.003960354,3.833,0,0
0.002903399,-0.0018270309999999998,-0.001235786,-0.0015041564000000001,0.001415114,3.834,0,0
0.001360193,-0.000509121,-0.00011680600000000006,-0.0012001438000000001,-0.0002978099999999999,3.835,0,0
-0.0007343670000000002,0.000575561,0.001257736,-0.0009689636000000002,-0.0026979960000000002,3.836,0,0
-0.0029597430000000004,0.001613599,0.0030758420000000005,-0.0005178593999999999,-0.0051997860000000005,3.837,0,0
-0.003899512,0.003086268,0.003366312,3.435460000000002e-05,-0.005660944000000001,3.838,0,0
-0.004196714,0.006227718,0.00281219,0.0007902486000000001,-0.005269574,3.839,0,0
-0.004409148,0.009220768,0.002865444,0.0014523960000000001,-0.005203356,3.84,0,0
-0.003761368,0.010144908000000001,0.0026571600000000004,0.0016408882000000001,-0.0038054264000000003,3.841,0,0
-0.00244354,0.009511033200000001,0.001735846,0.0016945560000000003,-0.0017054224000000004,3.842,0,0
-0.001884596,0.0062500151999999995,0.0013133672000000002,0.0016326090000000004,-0.0005007583999999999,3.843,0,0
-0.000944374,-0.0007429448000000009,0.0013547770000000002,0.0011349248,0.0011846756,3.844,0,0
0.0006627340000000001,-0.007572984800000001,0.0006224970000000001,0.00014052480000000005,0.0036285916000000007,3.845,0,0
0.0020841620000000005,-0.010376806800000003,-0.000918355,-0.0005748192000000001,0.005187978,3.846,0,0
0.0033364700000000002,-0.010992466000000003,-0.0021656189999999997,-0.0012370492000000001,0.006020686000000001,3.847,0,0
0.0046077520000000005,-0.009957402000000002,-0.0032018242,-0.0017087382000000003,0.006779234,3.848,0,0
0.004766384,-0.006236086,-0.0042404700000000005,-0.0018333300000000004,0.005940620000000001,3.849,0,0
0.0030634779999999997,-0.0016774319999999998,-0.004278358,-0.0015944140000000002,0.003258228,3.85,0,0
0.0011860539999999998,0.0004361460000000001,-0.0032135980000000002,-0.0010950208799999999,0.0008656979999999998,3.851,0,0
-0.0006618360000000001,0.0006243720000000002,-0.0012614120000000004,-0.0008433248800000001,-0.001492204,3.852,0,0
-0.0028019480000000003,0.003615132,0.001264794,-0.00060749148,-0.004317236,3.853,0,0
-0.004007978000000001,0.009739956000000001,0.002993142,-0.0003856987,-0.005935620000000001,3.854,0,0
-0.0033556946,0.014270882000000002,0.003770042,8.685299999999942e-06,-0.005958644,3.855,0,0
-0.0029694446,0.014226036000000001,0.004166594,0.0005280581799999999,-0.006154952,3.856,0,0
-0.0036224246,0.009187212,0.003746702,0.00119408618,-0.005880054,3.857,0,0
-0.0032500966,-0.00031628799999999877,0.002631946,0.00172236078,-0.0039506820000000005,3.858,0,0
-0.0023943006,-0.010547827999999999,0.0016110604,0.0019881,-0.0024160372,3.859,0,0
-0.0015808800000000002,-0.017037712,0.00038012440000000005,0.0019323462,-0.0012316331999999998,3.86,0,0
0.0006842759999999997,-0.0175580334,-0.0018834076000000003,0.0016813862,0.0014984288,3.861,0,0
0.003969192,-0.0113954954,-0.004389333600000001,0.0010583432,0.0044363288,3.862,0,0
0.006027678000000001,-0.0029240914000000003,-0.006177393600000001,4.626719999999997e-05,0.0057653548000000015,3.863,0,0
0.0068084140000000005,0.0014499686,-0.006962944,-0.0004518028,0.006859358000000001,3.864,0,0
0.006602534,0.0020725406000000005,-0.006923928000000001,-0.0008074992000000001,0.007768466000000002,3.865,0,0
0.004818266600000001,0.0021592184,-0.005613036000000001,-0.0014624412000000002,0.006288231200000001,3.866,0,0
0.0022580066000000005,0.0021060604,-0.001648784,-0.0016745802,0.003520283200000001,3.867,0,0
5.960460000000009e-05,0.0018872224000000002,0.0029804000000000002,-0.0012281132,0.0013808152000000001,3.868,0,0
-0.0020986074,0.0025055284,0.0057560120000000005,-0.0011816492,-0.0013897548,3.869,0,0
-0.004427059400000001,0.0035092844,0.007520564,-0.0011986850000000001,-0.0044630248,3.87,0,0
-0.005637254000000001,0.0035208712,0.008221968,-0.000627333,-0.005856544,3.871,0,0
-0.005808696,0.0023345571999999998,0.006192832200000001,0.00010323700000000006,-0.006221792,3.872,0,0
-0.005771180000000001,0.0003613252000000001,0.0033197982000000006,0.00040085800000000003,-0.006650328000000001,3.873,0,0
-0.004963528,-0.0011519868,0.0014301876,0.0005938002000000001,-0.0056989860000000005,3.874,0,0
-0.003067906,-0.0017521772000000002,-0.0001899804,0.0010038182000000001,-0.0032270800000000002,3.875,0,0
-0.0013250760000000001,-0.0015918490000000002,-0.0004790704000000001,0.0007983922,-0.001394178,3.876,0,0
0.000461438,-0.000155621,-0.0002881932,0.00042058619999999993,0.0003771380000000003,3.877,0,0
0.0032036720000000003,0.0019171169999999999,-0.0012284592000000002,0.000220559,0.0029370360000000005,3.878,0,0
0.005790994000000001,0.002815059,-0.0021036406000000006,-4.588320000000005e-05,0.004899462,3.879,0,0
0.006967488000000001,0.0034692993999999996,-0.0022831306,-0.000339263,0.005639878000000001,3.88,0,0
0.006910640000000001,0.00446794,-0.0030327366000000005,-0.0008741430000000001,0.006266402000000001,3.881,0,0
0.006118196,0.004517682,-0.003860926,-0.001262971,0.006502258000000001,3.882,0,0
0.00370252,0.0031780922,-0.003060263,-0.0011971374000000002,0.004847779000000001,3.883,0,0
0.00048439800000000003,0.0009668802000000003,-0.0014465990000000002,-0.0009400806400000001,0.0025336689999999997,3.884,0,0
-0.0018947080000000002,-0.00045134579999999997,5.673000000000093e-06,-0.00046367684,0.0006147109999999996,3.885,0,0
-0.003770116,-0.0016428738999999999,0.001587635,0.00025481235999999996,-0.0018623230000000001,3.886,0,0
-0.005387394,-0.0029150599,0.002950729,0.0006047603600000001,-0.004355389,3.887,0,0
-0.006041218,-0.0033365421,0.0029512138,0.0007231823599999999,-0.005318462,3.888,0,0
-0.005998196,-0.0029272461,0.0021513490000000003,0.0008926986,-0.005517338,3.889,0,0
-0.00582939,-0.0020373871000000003,0.0011647949999999997,0.0007920766,-0.006032804,3.89,0,0
-0.0042778676000000005,-0.0012480470000000004,-0.0006090110000000001,0.0010948994,-0.0049717414,3.891,0,0
-0.0018443576000000002,-0.001518451,-0.001806089,0.0013421260000000001,-0.0026044234,3.892,0,0
-0.0004509536,-0.0018333610000000001,-0.0016048408,0.00115077796,-0.0008545833999999997,3.893,0,0
0.0011584984000000001,-0.000524429558,-0.0010770800000000002,0.00116875196,0.0013037326,3.894,0,0
0.0036524904,-0.00014578255800000006,-0.0004329220000000001,0.00089400518,0.0039144906,3.895,0,0
0.004866576,-0.000675386558,0.0004403379999999999,0.00014915517999999998,0.005299154,3.896,0,0
0.005032636,0.0002643654419999999,0.000617214,-0.00031939742,0.0054594940000000005,3.897,0,0
0.005973888000000001,0.0012235562420000001,-0.000113686,-0.00051147438,0.00559762,3.898,0,0
0.006128354,0.0012415298400000002,-0.0007989,-0.00090874258,0.0049049340000000006,3.899,0,0
0.00409643,0.00134211784,-0.001295826,-0.0009366757999999999,0.002707518,3.9,0,0
0.0017863760000000005,0.00180246184,-0.0014783876,-0.0006188646,0.00045715000000000013,3.901,0,0
-0.00047859599999999975,0.0016339918400000003,-0.0012525834,-0.00044996239999999996,-0.00139047,3.902,0,0
-0.0035573099999999997,0.0004967010400000001,-0.0006657932000000001,-0.00034940040000000006,-0.003690002,3.903,0,0
-0.0061957919999999994,-0.0008278219999999998,0.0004037148000000001,-0.00010551180000000003,-0.005591124,3.904,0,0
-0.006762712000000001,-0.0009943979999999999,0.0016799388,6.010419999999999e-05,-0.005539468,3.905,0,0
-0.006207399999999999,0.0004993660000000002,0.0027189844,0.0001792828,-0.0050196600000000004,3.906,0,0
-0.0054767620000000005,0.0021989140000000006,0.0034308122,0.0004978006,-0.004949852,3.907,0,0
-0.0032122480000000004,0.0036839720000000006,0.0034490012000000002,0.0007157798,-0.0034481912000000003,3.908,0,0
-0.00043004,0.004471758000000001,0.002504453,0.0006757689200000001,-0.0012595292,3.909,0,0
0.001126592,0.004056873,0.0012496010000000001,0.00037243532000000014,4.043679999999998e-05,3.91,0,0
0.003053508,0.0035915549999999997,-0.00047652300000000007,2.1433120000000018e-05,0.0019749688,3.911,0,0
0.005635508,0.002264761,-0.002388945,-0.00032086528,0.0042761868,3.912,0,0
0.006582224,-0.00047244699999999997,-0.0034189962,-0.0005598364800000001,0.0050882340000000005,3.913,0,0
0.006517562000000001,-0.002766815,-0.0038065980000000004,-0.0006857684,0.0052603500000000004,3.914,0,0
0.006690294000000001,-0.004258086,-0.003981954,-0.0006952662000000001,0.005536684000000001,3.915,0,0
0.0049950504,-0.006886094000000001,-0.0031308886000000003,-0.0006453494000000002,0.004262989800000001,3.916,0,0
0.0015403944,-0.008763120000000001,-0.0013050526,-0.0007878590000000001,0.0018071658,3.917,0,0
-0.0009444696000000001,-0.007098844000000001,8.677739999999993e-05,-0.0009292904000000001,9.256179999999996e-05,3.918,0,0
-0.0031424996,-0.004650334000000001,0.0012103994000000002,-0.0009986044,-0.0017371142000000002,3.919,0,0
-0.0059646376,-0.003478722,0.0023416334000000002,-0.0007637774000000001,-0.0039809502000000005,3.92,0,0
-0.007094096000000001,-0.0028895440000000004,0.0025525996,-0.00021378579999999998,-0.005058674000000001,3.921,0,0
-0.00646679,-0.002114944,0.001941344,0.0002316118,-0.005024064,3.922,0,0
-0.0062089580000000005,-0.0015733904000000002,0.0016242858,0.00046312780000000003,-0.004925998,3.923,0,0
-0.005304382000000001,-0.0014776124,0.0015936198,0.0006833682,-0.0044560400000000005,3.924,0,0
-0.0028759240000000006,-0.0010657166,0.0008609904,0.0010118466,-0.0030748738,3.925,0,0
-0.0008447820000000004,0.0006437754,-4.969200000000027e-06,0.0009215846,-0.0015083777999999998,3.926,0,0
0.001058382,0.0036094594000000003,-0.00020574359999999997,0.0008176568,-6.454580000000022e-05,3.927,0,0
0.004223148,0.0067021698,-0.0008169574,0.0009177956,0.0022717742,3.928,0,0
0.0066579000000000004,0.0087043918,-0.0021240974000000003,0.0008312987999999999,0.0047169402,3.929,0,0
0.007105666000000001,0.007965088,-0.002632082,0.0003607874000000001,0.005636402000000001,3.93,0,0
0.007319840000000001,0.005748700000000001,-0.002217216,-0.0003611646,0.006143572000000001,3.931,0,0
0.006952374000000001,0.0030245319999999995,-0.0020365872,-0.0007317364000000001,0.0064633320000000005,3.932,0,0
0.004272164000000001,-0.0002569040000000002,-0.0013041452000000001,-0.0011377932,0.00465813,3.933,0,0
0.0012539780000000002,-0.0018967626,0.0001146548,-0.0012931394000000001,0.001716456,3.934,0,0
-0.0004691220000000002,-0.0009976105999999999,0.0010013228,-0.0012615240000000002,-0.0001701480000000004,3.935,0,0
-0.0025592260000000004,0.0006415094,0.0020701028,-0.001203752,-0.0023196300000000005,3.936,0,0
-0.004802958,0.0017994214,0.003133326,-0.0008057143999999999,-0.004742928,3.937,0,0
-0.005665796,0.0022434234,0.0033696840000000004,-0.00044470680000000006,-0.005334222000000001,3.938,0,0
-0.005603926,0.000932186,0.003268476,-0.00019452879999999997,-0.004995702000000001,3.939,0,0
-0.005570506,-0.0017206600000000002,0.0030250256000000004,0.0003413592,-0.005148926000000001,3.94,0,0
-0.00480354,-0.004313948,0.0020148856,0.0010365412,-0.004280403800000001,3.941,0,0
-0.0030672460000000005,-0.00596057,0.00047245559999999987,0.0011096454,-0.0021273018000000006,3.942,0,0
-0.001277214,-0.006249343,-0.0008005604,0.0011969712,-0.0009395878,3.943,0,0
0.0007433059999999999,-0.004822569,-0.0021953184,0.0012661318,0.0006528962000000003,3.944,0,0
0.002923116,-0.0015869789999999994,-0.0037079900000000004,0.0007295718,0.0034706662000000004,3.945,0,0
0.0046614840000000005,0.001652751,-0.004871804,2.271580000000003e-05,0.0050434600000000005,3.946,0,0
0.005818722,0.003176627,-0.004531542,-0.0005993600000000001,0.005414606000000001,3.947,0,0
0.006413886000000001,0.0034666565999999996,-0.0031896760000000002,-0.0009947414,0.00612635,3.948,0,0
0.006014842,0.0032358492000000003,-0.0021662488000000002,-0.0014876079999999999,0.006014838000000001,3.949,0,0
0.004338454,0.0020404531999999994,-0.0007683680000000001,-0.001744944,0.00373976,3.95,0,0
0.002095604,0.00048771320000000004,0.0007467248,-0.00140017564,0.0013626399999999996,3.951,0,0
-0.00033305400000000016,-0.00010504859999999993,0.0012956248000000003,-0.00085722344,-0.0004322560000000001,3.952,0,0
-0.0031623700000000003,-0.0007429692,0.0013059228,-0.00018682143999999997,-0.0032348100000000003,3.953,0,0
-0.005663776000000001,-0.0020615918,0.0021107756,0.0006913145600000001,-0.005886626000000001,3.954,0,0
-0.006530946000000001,-0.0026823698,0.0031372748,0.00144287856,-0.006382934000000001,3.955,0,0
-0.006558838000000001,-0.0028337878,0.0035623639999999997,0.0017549142000000003,-0.006228796,3.956,0,0
-0.006395680000000001,-0.0028807762000000003,0.0036514,0.0019574040000000003,-0.006019348,3.957,0,0
-0.0043820180000000005,-0.0015087602000000001,0.002994423,0.00219167,-0.0041462185999999995,3.958,0,0
-0.001859448,0.0011044438000000001,0.0013865330000000001,0.002257392,-0.0015474045999999998,3.959,0,0
-8.030400000000001e-05,0.0032779417999999998,-0.00017530500000000017,0.002018432,0.0003767674,3.96,0,0
0.0023310839999999998,0.0043283558,-0.0012760150000000001,0.0016047852000000004,0.0025899634,3.961,0,0
0.004777180000000001,0.004418954000000001,-0.002320455,0.0008903212000000002,0.0047788774,3.962,0,0
0.006079574000000001,0.003940438,-0.0029064940000000004,-0.00036377079999999986,0.00572528,3.963,0,0
0.006764296,0.0033691820000000005,-0.002966448,-0.0014502968,0.006205882,3.964,0,0
0.007000010000000001,0.0024130980000000002,-0.002911364,-0.0023226868000000003,0.006575284000000001,3.965,0,0
0.005334988200000001,0.00012022400000000016,-0.0022657806,-0.0031456939999999997,0.0054313980000000005,3.966,0,0
0.0025342742000000005,-0.002660182,-0.0007818546,-0.00323753,0.0030429840000000003,3.967,0,0
7.775820000000043e-05,-0.00408048,0.0007864814000000003,-0.0026590206000000004,0.0012812020000000002,3.968,0,0
-0.0026033118,-0.0048829758,0.0020296494000000003,-0.0021077908000000003,-0.001163744,3.969,0,0
-0.005546765800000001,-0.0049475858,0.0034182874000000005,-0.0014087616,-0.004481318,3.97,0,0
-0.006526344,-0.0020392278000000005,0.004494442,-3.1937599999999936e-05,-0.005998613999999999,3.971,0,0
-0.005601601999999999,0.0018454162,0.004143460000000001,0.0009482824000000001,-0.005957237999999999,3.972,0,0
-0.005458363999999999,0.0025154762,0.0030108236000000003,0.0012598390000000002,-0.006412172,3.973,0,0
-0.004682526,0.0019079980000000006,0.0016235696000000003,0.0019278132,-0.005905006,3.974,0,0
-0.001874284,0.0025508939999999997,-0.0006859904,0.002581846,-0.003467796,3.975,0,0
-0.00010730400000000001,0.0017279539999999999,-0.0028814564000000003,0.002518918,-0.0018773040000000002,3.976,0,0
0.00012360400000000006,-0.000354568,-0.0038682704,0.0023937100000000003,-0.0007399820000000001,3.977,0,0
0.002151024,-0.001298546,-0.0048771019999999995,0.0023032222000000007,0.002043272,3.978,0,0
0.004613586,-0.0016050760000000002,-0.0050429820000000005,0.0011049162000000001,0.00479227,3.979,0,0
0.00521584,-0.0021258600000000002,-0.0032675099999999995,-0.00032385780000000015,0.005572538,3.98,0,0
0.0061164340000000005,-0.0021850000000000003,-0.002150594,-0.0010737498,0.006165852,3.981,0,0
0.007008498000000001,-0.0017515320000000003,-0.0023955120000000002,-0.0018573738000000001,0.006773838000000001,3.982,0,0
0.005156782,-0.000748816,-0.0013410444,-0.0026111040000000004,0.005055614400000001,3.983,0,0
0.0018987360000000003,0.001098366,0.00016603160000000007,-0.002479402,0.0022392164,3.984,0,0
-0.0006155959999999997,0.0025788240000000004,-0.00012106219999999997,-0.0018329383999999998,0.0003604464000000002,3.985,0,0
-0.0036727160000000003,0.0030127920000000002,0.0003990958,-0.0014966988000000001,-0.0019352116000000003,3.986,0,0
-0.00633053,0.0027173220000000003,0.0025326778,-0.0008929386,-0.0047012856000000006,3.987,0,0
-0.0064963420000000004,0.002504418,0.0034620002000000003,-1.3424599999999932e-05,-0.005794666,3.988,0,0
-0.005737392,0.0008897420000000003,0.0034760162000000002,0.0007900274,-0.005944238000000001,3.989,0,0
-0.005241068,-0.002642292,0.004264878,0.0012044518,-0.006249488,3.99,0,0
-0.00347374,-0.004311162,0.004258382,0.0014932902,-0.004940203400000001,3.991,0,0
-0.00076779,-0.002977248,0.003150106,0.0020998180000000003,-0.0023542774000000002,3.992,0,0
0.00048114399999999997,-0.0023197848,0.0024996880000000003,0.0023918660000000003,-0.0006848134,3.993,0,0
0.001638466,-0.0023183448,0.001372106,0.002285866,0.0012058925999999998,3.994,0,0
0.003995442,-0.0016750628000000002,-0.0005376840000000001,0.0021359618,0.0038193786,3.995,0,0
0.005077906,-0.0020127508,-0.002227138,0.0018166000000000002,0.005225842,3.996,0,0
0.00496504,-0.0020905388,-0.003386328,0.0009163318000000001,0.005642276,3.997,0,0
0.005851994,0.00020003999999999985,-0.00402582,-3.631620000000001e-05,0.006340836,3.998,0,0
0.006255342,0.004323512,-0.003678368,-0.0006025582000000001,0.00590935,3.999,0,0
0.00441826,0.008117294,-0.0022824679999999997,-0.0010051200000000002,0.0036483320000000007,4.0,0,0
0.002541048,0.010776299999999999,-0.00037324800000000007,-0.0013259842000000002,0.00149724,4.001,0,0
0.0006602000000000001,0.009746372000000001,0.0012610479999999999,-0.00171366,-0.0005781220000000001,4.002,0,0
-0.00324473,0.0034451720000000007,0.002595464,-0.0018760539999999998,-0.0034828200000000006,4.003,0,0
-0.006996860000000001,-0.004172008,0.0036120440000000005,-0.00164796,-0.005685006000000001,4.004,0,0
-0.008279044,-0.009195408,0.0036089360000000005,-0.0013207688,-0.006000074,4.005,0,0
-0.008703122,-0.01148722,0.0030966860000000004,-0.0007367227999999998,-0.005859956,4.006,0,0
-0.008532256,-0.011152056,0.0025865700000000007,0.0002469712000000001,-0.00565259,4.007,0,0
-0.005804766000000001,-0.0064434079999999986,0.0017045514,0.0012948592,-0.004176024,4.008,0,0
-0.00230435,-1.2688000000000282e-05,0.00020012739999999984,0.0019339112000000002,-0.002055976,4.009,0,0
0.00011264599999999988,0.004298412,-0.0010909706000000001,0.0019237176000000001,-0.0006379859999999999,4.01,0,0
0.0029792580000000003,0.005517929999999999,-0.0024557846,0.0016470138000000002,0.0011977420000000001,4.011,0,0
0.005759234,0.004631942,-0.0039837326000000004,0.0008205618000000001,0.003705008,4.012,0,0
0.006847628000000001,0.004028567999999999,-0.004817202,-0.0004239102,0.005243852,4.013,0,0
0.007167166000000001,0.003427622,-0.005336254,-0.0015198642000000002,0.006329352,4.014,0,0
0.006963834000000001,0.002075364,-0.006186500000000001,-0.0022755218000000002,0.007459276000000002,4.015,0,0
0.005055876600000001,0.0013125724,-0.006574618000000001,-0.002564106,0.006921628000000002,4.016,0,0
0.0024780025999999998,0.0005520784,-0.0055928620000000005,-0.0024849220000000005,0.004428816,4.017,0,0
0.0005446245999999998,-0.0017328356000000003,-0.004538034600000001,-0.0020478040000000003,0.002043438,4.018,0,0
-0.0015364134,-0.0036387896,-0.0034597384,-0.0015706086,-0.000996774,4.019,0,0
-0.0038867414000000006,-0.0036382536000000012,-0.0012853584000000003,-0.0007928070000000001,-0.004899246,4.02,0,0
-0.005139202000000001,-0.0024151960000000005,0.0028059916,9.489000000000004e-06,-0.007240422000000001,4.021,0,0
-0.005335650000000001,-0.00012987799999999983,0.0069952616,0.000799759,-0.0077214200000000005,4.022,0,0
-0.005633134000000001,0.0017768752000000003,0.0091949042,0.0014904710000000002,-0.007453088,4.023,0,0
-0.005427016000000001,0.0018309252000000005,0.010713152,0.0018417736000000003,-0.006279494,4.024,0,0
-0.0036433700000000004,0.00019580520000000003,0.010681208000000001,0.0020944380000000005,-0.0034214619999999997,4.025,0,0
-0.001509572,-0.0019515808000000001,0.007549868,0.0018880020000000002,-0.0008459540000000001,4.026,0,0
0.00024419200000000017,-0.0021047348,0.003061506,0.00164092,0.001016098,4.027,0,0
0.002733512,-0.0005323700000000001,-0.0005202560000000003,0.0012769088,0.003493842,4.028,0,0
0.005109406,0.000979366,-0.0026187560000000003,0.0004878068,0.005640318,4.029,0,0
0.00613104,0.0022986540000000002,-0.0031625844,-0.00037668319999999996,0.006726922,4.03,0,0
0.006580352,0.0026518180000000002,-0.0031901684000000003,-0.0010596232,0.0072375140000000004,4.031,0,0
0.006645720000000001,0.0017804440000000004,-0.0033057784000000002,-0.0018992852000000002,0.007276422000000001,4.032,0,0
0.0049818928,0.00011981200000000034,-0.0024478624000000004,-0.0024665480000000003,0.005589014,4.033,0,0
0.0024272388000000002,-0.001306186,-0.0014980392000000001,-0.002300176,0.0027285979999999996,4.034,0,0
0.0003771388000000002,-0.0013000359999999999,-0.0010141148,-0.0019442118,-0.00014929600000000015,4.035,0,0
-0.0022485832000000002,-0.000875636,-8.251080000000005e-05,-0.0014576734,-0.0031192100000000003,4.036,0,0
-0.0048531112,-0.001130408,0.0009681852,-0.0007767416,-0.0055877,4.037,0,0
-0.005705662,-0.0009509756,0.0015733732,0.00024281040000000002,-0.007131678000000001,4.038,0,0
-0.005735808,-0.00033806160000000006,0.0013242484,0.0011517664,-0.007377014,4.039,0,0
-0.006152126000000001,-0.0002150416000000001,0.0007627264000000001,0.0017220722000000001,-0.006855306000000001,4.04,0,0
-0.005333035999999999,0.00013550440000000008,0.00026992539999999993,0.0020961438000000002,-0.005758900000000001,4.041,0,0
-0.00323097,0.0005519944000000001,-0.0005164946,0.0021150654000000003,-0.003777270000000001,4.042,0,0
-0.0017094440000000003,0.0003849200000000001,-0.0013408806000000002,0.0016085834,-0.0015520980000000005,4.043,0,0
0.00018930399999999984,0.000242022,-0.002008499,0.0012074774000000001,0.000693266,4.044,0,0
0.0029303940000000002,0.0005220520000000001,-0.002343945,0.0010832694000000001,0.003123196,4.045,0,0
0.004757102000000001,0.001069648,-0.002537238,0.0006198258,0.005452534000000001,4.046,0,0
0.005342762000000001,0.0016355,-0.002442274,0.00019440039999999993,0.006628288,4.047,0,0
0.006208916,0.0015651000000000003,-0.0019977068000000004,-0.00022241560000000005,0.0070161120000000006,4.048,0,0
0.006399712000000001,0.0007692060000000003,-0.001213337,-0.0007066616,0.00694131,4.049,0,0
0.004279028000000001,-0.00028539999999999994,-0.00030422500000000004,-0.0012531836000000001,0.00524718658,4.05,0,0
0.0017832140000000004,-0.0009316028,0.000461271,-0.0013557762,0.00269124658,4.051,0,0
-0.0002785120000000001,-0.001155169,0.0012383650000000002,-0.0008694926,0.00042891657999999996,4.052,0,0
-0.0032443260000000005,-0.0011384910000000002,0.0020137218,-0.0006065630000000001,-0.0022261634200000002,4.053,0,0
-0.0057824239999999996,-0.001046889,0.002691446,-0.00037267299999999996,-0.00493621342,4.054,0,0
-0.005982744,-0.001149369,0.00233592042,-5.518199999999997e-06,-0.006220150000000001,4.055,0,0
-0.005658424000000001,-0.0009187324,0.00183687122,0.0002575548,-0.006426318,4.056,0,0
-0.005558584,-0.0006535521999999998,0.00192821122,0.0005397612,-0.006066524000000001,4.057,0,0
-0.0039319812,0.0003878018000000001,0.00141735702,0.0009387976000000001,-0.004358313,4.058,0,0
-0.0017490612000000006,0.0018842438000000001,0.00038568902,0.0010016384000000001,-0.0020574090000000005,4.059,0,0
-0.00011212920000000005,0.0031959598000000002,-0.0002068954,0.0009655062,-0.0003298010000000001,4.06,0,0
0.0022816908,0.004727654,-0.0007826022000000001,0.0008693874,0.0016386270000000001,4.061,0,0
0.0050317568,0.005394398,-0.0020684482,0.0003870826,0.0038656949999999997,4.062,0,0
0.0063809,0.00490491,-0.002940154,1.7902000000000087e-06,0.005204948,4.063,0,0
0.006691800000000001,0.00285078,-0.0031094480000000003,-0.00032204660000000003,0.005938192,4.064,0,0
0.0065263080000000015,-0.0008880360000000003,-0.0032432,-0.0006925652000000001,0.006550614,4.065,0,0
0.005226857999999999,-0.00441794,-0.002964148,-0.0012811812,0.005853778,4.066,0,0
0.00280886,-0.005964312,-0.001638246,-0.0018536284,0.0034951539999999994,4.067,0,0
0.0004390999999999998,-0.006199956,-0.00030533999999999986,-0.0018161828000000002,0.0011955260000000006,4.068,0,0
-0.0012429000000000003,-0.0041355900000000015,0.000574326,-0.0016421028,-0.0009401739999999998,4.069,0,0
-0.0029882560000000008,0.000477594,0.0020217200000000003,-0.0013788128000000001,-0.0035911419999999994,4.07,0,0
-0.004516932,0.004028932,0.003286008,-0.000735843,-0.005448702,4.071,0,0
-0.0050785280000000006,0.0046756908,0.0036224060000000003,-0.00021582220000000002,-0.005848686,4.072,0,0
-0.005976370000000001,0.0020760468,0.003741854,2.007300000000001e-05,-0.0060625359999999994,4.073,0,0
-0.0068033880000000005,-0.0016903632,0.004089758,0.00044139700000000006,-0.006064803999999999,4.074,0,0
-0.005591077600000001,-0.0041716632,0.0034662032000000002,0.0008196290000000001,-0.004360004399999999,4.075,0,0
-0.0036154416000000007,-0.0063644632,0.0017094152000000002,0.0008151750000000001,-0.0021947143999999997,4.076,0,0
-0.0017296296,-0.007371772,0.00046773920000000007,0.0007542816000000001,-0.0006027243999999998,4.077,0,0
0.0014930004,-0.005072834,-0.0010434588,0.0006040246000000001,0.0020367716000000004,4.078,0,0
0.0045320624,-0.00209856,-0.0032842448000000002,0.0002456136,0.0048489816,4.079,0,0
0.005463776,-0.0009671020000000001,-0.004553000000000001,-0.0003915584,0.005864708000000001,4.08,0,0
0.005965934,0.00015288200000000018,-0.004893874,-0.0005090822,0.006293026000000001,4.081,0,0
0.006808874000000001,0.0022429500000000005,-0.005679438000000001,-0.00017087559999999998,0.006582338000000001,4.082,0,0
0.005771256,0.003982614000000001,-0.005332224000000001,-0.00034255639999999996,0.0048003640000000005,4.083,0,0
0.00312058,0.004579426000000001,-0.002629744,-0.0003534998,0.002049492,4.084,0,0
0.0011575900000000004,0.0043393600000000004,-0.0001878880000000002,0.0001457922,0.00011291799999999983,4.085,0,0
-0.001301872,0.003946428,0.0017989360000000001,0.0002385056,-0.002252192,4.086,0,0
-0.0047948,0.0026572712,0.004225936,0.00016224860000000002,-0.004796262000000001,4.087,0,0
-0.006155832,-5.080799999999811e-06,0.005298758000000001,0.0007111940000000001,-0.0058628180000000005,4.088,0,0
-0.005386474,-0.0010443858000000002,0.004287358000000001,0.0009441646000000001,-0.006077066,4.089,0,0
-0.00539049,0.0011074582000000003,0.0032316980000000003,0.0008953328,-0.006380388000000001,4.09,0,0
-0.004437668,0.0026690282000000004,0.0024397048000000003,0.0011729894,-0.005838572000000001,4.091,0,0
-0.001661452,0.002318325,0.0013673607999999998,0.0011718756000000002,-0.0038943560000000007,4.092,0,0
6.327399999999988e-05,0.003418509,0.0011071168000000003,0.0008204557,-0.001943456,4.093,0,0
0.001019986,0.004241142,0.0007369878000000001,0.0007158787000000001,-0.00011025400000000038,4.094,0,0
0.00287821,0.001507952,-0.0004813561999999999,0.0005097247000000002,0.0026897120000000004,4.095,0,0
0.004632550000000001,-0.0015292480000000002,-0.0018895969999999998,-0.0001432273,0.0052965040000000005,4.096,0,0
0.004989882000000001,-0.0022354700000000003,-0.003346493,-0.0007432445000000001,0.0064169480000000004,4.097,0,0
0.00506801,-0.002778618,-0.004603431000000001,-0.0013977806000000001,0.007018072,4.098,0,0
0.00515351,-0.00479629,-0.004833632000000001,-0.0021533298,0.007351460000000001,4.099,0,0
0.00371617,-0.0067125200000000005,-0.003422374,-0.002433202,0.0060520980000000005,4.1,0,0
0.001232844,-0.006587534,-0.0016881340000000002,-0.0019264055999999997,0.0037592280000000007,4.101,0,0
-0.0006481580000000001,-0.005142740000000001,-0.0002644719999999999,-0.0011923915999999999,0.0014489400000000003,4.102,0,0
-0.0028899340000000003,-0.004075448,0.001875822,-0.00021403159999999999,-0.001514574,4.103,0,0
-0.005413572,-0.00242081,0.003643912000000001,0.0010973764,-0.004498232,4.104,0,0
-0.006160100000000001,0.00025942799999999997,0.003951648,0.0019315724000000002,-0.006129696000000001,4.105,0,0
-0.006042572,0.002024476,0.00405703,0.0020783620000000003,-0.006544902,4.106,0,0
-0.005739326000000001,0.0027296380000000004,0.00416595,0.0021783340000000005,-0.006393240000000001,4.107,0,0
-0.003578656000000001,0.00295485,0.0029939344000000003,0.002316816,-0.004949078,4.108,0,0
-0.0006893199999999998,0.002886732,0.0010195384,0.002034782,-0.002744118,4.109,0,0
0.001287056,0.0023140084,-0.00030164960000000007,0.0013497768,-0.001280742,4.11,0,0
0.0035265,0.0008393224000000002,-0.0010691716,0.000846998,0.000544674,4.111,0,0
0.00551983,-0.00034128359999999994,-0.0021108276000000002,0.0005961114000000001,0.002969224,4.112,0,0
0.005820548,-0.0004360716000000001,-0.0033287100000000003,-0.00020925459999999996,0.004482710000000001,4.113,0,0
0.005457591999999999,-0.00020255959999999993,-0.00386625,-0.0011163606,0.005235508,4.114,0,0
0.005641062,0.0002016360000000001,-0.0041642120000000005,-0.0013083074000000002,0.006193434,4.115,0,0
0.004674182,0.0011637474000000003,-0.0045483039999999995,-0.0014651346,0.005784878,4.116,0,0
0.0021637460000000002,0.0015829669999999998,-0.003700534,-0.0018981240000000002,0.0033727720000000004,4.117,0,0
0.00016258199999999987,0.001070396,-0.0017903639999999996,-0.0016551388000000003,0.0012459859999999997,4.118,0,0
-0.0017607840000000003,0.000612762,0.0008868160000000002,-0.0011324624,-0.0006213480000000003,4.119,0,0
-0.0046289600000000005,-0.00022376599999999997,0.0043128820000000005,-0.0007897004000000001,-0.0033347100000000003,4.12,0,0
-0.006675798000000001,-0.0010973454000000001,0.006555958000000001,9.795599999999985e-06,-0.0053048620000000005,4.121,0,0
-0.0067268560000000015,-0.0013269222,0.006861054000000001,0.0007955356000000001,-0.00520651,4.122,0,0
-0.006496046,-0.0012710904,0.005794448000000001,0.0010082098,-0.005017794,4.123,0,0
-0.00583537,-0.00046768039999999986,0.0041580672,0.0011548748,-0.004776116,4.124,0,0
-0.0036082400000000004,0.0020580416000000002,0.0017406854,0.0015469568000000002,-0.0030720186000000003,4.125,0,0
-0.0011426620000000005,0.0048519916,-0.0009964806,0.0013076468000000003,-0.0012931886,4.126,0,0
0.001134398,0.0055014568,-0.0025297725999999998,0.0009207632000000001,-0.00023711259999999992,4.127,0,0
0.003988632000000001,0.00442487,-0.0037176346000000002,0.0009719294000000001,0.0018619094000000003,4.128,0,0
0.0064999079999999996,0.002904656,-0.005525043800000001,0.000625822,0.0046169554,4.129,0,0
0.007649982000000001,0.002455386,-0.007559812000000001,-0.00015951399999999998,0.006052704000000001,4.13,0,0
0.007924586,0.0022852460000000003,-0.00746695,-0.000652744,0.006938978,4.131,0,0
0.007528182,0.0018860040000000002,-0.004690960000000001,-0.0008406828,0.007370812000000001,4.132,0,0
0.0054094880199999995,0.0018728820000000002,-0.0014935340000000004,-0.0015051624000000001,0.0057815704,4.133,0,0
0.0019544940199999997,-0.00036799399999999996,0.001290674,-0.0020079944,0.0024813623999999997,4.134,0,0
-0.0008352359800000001,-0.004460048,0.004323262,-0.0020243384000000002,-0.0006114576000000001,4.135,0,0
-0.0033644759800000004,-0.006823914,0.006349662,-0.0021338564,-0.0035849836,4.136,0,0
-0.006394325980000001,-0.006744422000000001,0.005433966,-0.002053327,-0.0062002916,4.137,0,0
-0.0077712300000000005,-0.004452467999999999,0.004168266,-0.0012350850000000001,-0.00720576,4.138,0,0
-0.007091558,-0.0006372119999999998,0.0036426180000000002,-8.909900000000014e-05,-0.007004524000000001,4.139,0,0
-0.006754368,0.0016174960000000004,0.002859766,0.0008185150000000001,-0.0064984859999999995,4.14,0,0
-0.005761956,0.0016603380000000004,0.0022381,0.0018320110000000001,-0.005164816,4.141,0,0
-0.0033709080000000006,0.0007530780000000002,0.0015320188600000003,0.002366682,-0.0028172200000000005,4.142,0,0
-0.00199275802,-0.001763934,0.00088517086,0.0021894324000000004,-0.0011433980000000001,4.143,0,0
-0.00064205402,-0.00482027,0.0002861428600000001,0.0018212372000000004,0.00058142,4.144,0,0
0.0021931379800000004,-0.0058452140000000005,-0.00082234314,0.0011661852,0.003496542,4.145,0,0
0.00465713198,-0.00467904,-0.0023164111400000003,0.00037118299999999986,0.005720866,4.146,0,0
0.0061437999800000006,-0.0030352079999999997,-0.0029742080000000003,-0.00016683820000000003,0.00609716,4.147,0,0
0.007596162,-0.0005794059999999995,-0.0031576460000000005,-0.0004908034000000001,0.0063491400000000005,4.148,0,0
0.00778185,0.003632794,-0.0038239780000000004,-0.0011442082000000001,0.006307084,4.149,0,0
0.005592318000000001,0.006469822000000001,-0.0034126780000000006,-0.0019910282,0.0041805516000000004,4.15,0,0
0.002799954,0.0065331700000000005,-0.0018395120000000002,-0.0026449460000000004,0.0016365016,4.151,0,0
0.00032046799999999986,0.004977812,-0.0008597880000000002,-0.0028645208000000004,-8.730840000000005e-05,4.152,0,0
-0.002738228,0.0016756939999999997,0.00022650000000000008,-0.0027272122,-0.0023319824,4.153,0,0
-0.005316296,-0.0018303920000000006,0.0018497600000000002,-0.0021759724,-0.004876164400000001,4.154,0,0
-0.005843752000000001,-0.004262364,0.0023873868,-0.0008239264000000001,-0.005813034,4.155,0,0
-0.005677810000000001,-0.005300078000000001,0.0020577928,0.0004001936000000001,-0.00571469,4.156,0,0
-0.00567924,-0.004445906,0.0019208810000000002,0.0010295796,-0.0059546239999999995,4.157,0,0
-0.004173594200000001,-0.0025615606,0.0012932458,0.0016393218,-0.004989072000000001,4.158,0,0
-0.0018533062000000004,-0.0016935866000000004,0.0004734736000000001,0.00225019,-0.0025817780000000003,4.159,0,0
-0.0006182462000000003,-0.0010105106,0.00012018900000000004,0.0023875420000000003,-0.000794864,4.16,0,0
0.0012174038,0.0008090614,-0.0006145489999999999,0.0023938020000000004,0.0009167820000000001,4.161,0,0
0.0043695038,0.0028925054,-0.0015952532,0.002429848,0.003721468,4.162,0,0
0.006159488,0.00483603,-0.0022112200000000003,0.0018099134000000002,0.005814252,4.163,0,0
0.006497532,0.005336557400000001,-0.0025786618,0.0008395513999999999,0.00631784,4.164,0,0
0.007003308000000001,0.004575107400000001,-0.00284082,-0.0001529405999999999,0.006523754,4.165,0,0
0.00633853,0.0032293794000000007,-0.002692222,-0.0011256546,0.005824721999999999,4.166,0,0
0.0034324000000000004,0.0013176754,-0.0018810868,-0.0019059566,0.003271472,4.167,0,0
0.0006099359999999997,-0.00020818460000000005,-0.0010286568,-0.0018510740599999998,0.000599476,4.168,0,0
-0.0016878580000000004,-0.0007834920000000001,-2.930680000000005e-05,-0.00121323006,-0.001395736,4.169,0,0
-0.004590292000000001,-0.0005030800000000002,0.0014061351999999998,-0.0007098000600000002,-0.0038513740000000003,4.17,0,0
-0.006639328000000001,-0.001032278,0.0023226011999999997,0.00018840794,-0.006025606,4.171,0,0
-0.007260730000000001,-0.0025263760000000003,0.0024733423999999996,0.0011705239399999998,-0.006647500000000001,4.172,0,0
-0.007154000000000001,-0.003424054,0.0024217924,0.001581996,-0.006765792000000001,4.173,0,0
-0.00648552,-0.0030526520000000003,0.0022086664,0.001974282,-0.006598728000000001,4.174,0,0
-0.004270087400000001,-0.0024418952000000004,0.0013685945999999999,0.002691662,-0.0052144918,4.175,0,0
-0.0019872274000000004,-0.0019280552000000002,0.001053024,0.0026161080000000002,-0.0032254518000000005,4.176,0,0
-0.0003132014000000003,-0.0005903391999999999,0.0012655856,0.0019845020000000004,-0.0016638438000000002,4.177,0,0
0.0019165326,0.0009520528,0.0007610596000000001,0.0016583478000000002,0.00043883819999999995,4.178,0,0
0.004447712600000001,0.0027524948000000006,-0.00024049039999999997,0.00104657166,0.0026946462000000003,4.179,0,0
0.005487598000000001,0.0046921540000000005,-0.0008960546000000001,0.00027204006,0.0034710460000000006,4.18,0,0
0.0054556380000000005,0.005489208,-0.0011421636,-0.00010603034,0.003975210000000001,4.181,0,0
0.006232724,0.0043283,-0.0022040756,-0.00059352834,0.004236068000000001,4.182,0,0
0.005240888,0.0023709079999999997,-0.0021487484000000004,-0.0015112961400000002,0.0033046852,4.183,0,0
0.00305954,0.0008628392000000002,-0.0009592284000000001,-0.001871962,0.00014779120000000005,4.184,0,0
0.0008770120000000004,-0.0005858368,0.0006191016,-0.0019276834,-0.0011185508,4.185,0,0
-0.0002591099999999997,-0.0024254348,0.0011881352,-0.0017941236,0.0032190412000000007,4.186,0,0
-0.0037715900000000004,-0.0033799448000000005,-0.0016704108,-0.0008538875999999999,0.0096991412,4.187,0,0
-0.004686874000000001,-0.0021973444000000005,-0.005640246,-0.0002839536000000001,0.016507116000000002,4.188,0,0
0.0034390340000000005,-0.0013892976,-0.008692048,-0.0013225936000000002,0.023428900000000003,4.189,0,0
0.010051184000000001,-0.0017641710000000004,-0.011168316000000001,-0.0029975746000000004,0.026793140000000003,4.19,0,0
0.012661888000000001,-0.00041829900000000023,-0.011927288000000001,-0.004650302,0.022230074,4.191,0,0
0.014711767200000002,0.002000463,-0.007083234000000001,-0.00676325,0.011865854000000002,4.192,0,0
0.010773439200000002,0.002039031,0.0007484060000000001,-0.007610994000000001,-0.0013478859999999995,4.193,0,0
-0.0029617607999999993,0.0008411429999999999,0.0072411260000000005,-0.006241519000000001,-0.014121186,4.194,0,0
-0.0165303208,-0.0005273356000000001,0.012821574000000002,-0.0037551550000000005,-0.024963086000000002,4.195,0,0
-0.0265261208,-0.0030700936,0.017517694,-0.0008310689999999998,-0.0337942,4.196,0,0
-0.03216222,-0.005176543600000001,0.01979316,0.002656325,-0.037240300000000004,4.197,0,0
-0.030541339999999997,-0.0059864440000000005,0.018608780000000002,0.0061707870000000005,-0.0355793,4.198,0,0
-0.025601139999999998,-0.00450639,0.015392192,0.008595044000000001,-0.030354900000000004,4.199,0,0
-0.016199786,-0.000492896,0.010049842,0.010006454000000001,-0.021491992000000005,4.2,0,0
-0.003346485999999999,0.004745804,0.0025523219999999997,0.010401212000000003,-0.009559692000000002,4.201,0,0
0.009058274000000002,0.008372296000000001,-0.0053282780000000005,0.009248674000000002,0.0029498280000000007,4.202,0,0
0.019255974000000002,0.00758611,-0.012493658000000001,0.0067102052,0.014728708000000002,4.203,0,0
0.028390834000000004,0.0049048220000000005,-0.018326910000000002,0.0037643672000000003,0.024908908,4.204,0,0
0.034402880000000004,0.002689730000000001,-0.021497660000000002,0.00015498319999999988,0.03145334,4.205,0,0
0.0340857,-0.00010646400000000012,-0.0205842,-0.0037636248000000004,0.033164940000000004,4.206,0,0
0.02948904,-0.0026851900000000005,-0.016489837800000004,-0.006470090800000001,0.030644040000000004,4.207,0,0
0.021806742,-0.0024889080000000006,-0.010683367800000001,-0.008189774,0.02440183,4.208,0,0
0.010574502,-0.0016561300000000004,-0.0032390678000000003,-0.009354972000000001,0.01380305,4.209,0,0
-0.0021417979999999994,-0.0022876820000000005,0.0040180722,-0.008902582000000003,0.001623069999999999,4.21,0,0
-0.013081538,-0.0032248760000000007,0.0094295922,-0.006789770000000001,-0.00958823,4.211,0,0
-0.021757858,-0.003990592000000001,0.01337717,-0.004320766000000001,-0.019534150000000004,4.212,0,0
-0.027770040000000003,-0.00348493,0.01620754,-0.0015007820000000006,-0.026597060000000006,4.213,0,0
-0.02960536,-0.001771276,0.0172335,0.001790972,-0.028836660000000004,4.214,0,0
-0.02731514,-0.0009589120000000002,0.016088264,0.00481995,-0.026894420000000002,4.215,0,0
-0.022299708,-0.0019311699999999998,0.013549666,0.006944918,-0.022090094,4.216,0,0
-0.014302306,-0.0010359619999999999,0.009131276,0.008235336,-0.013679925999999999,4.217,0,0
-0.003425066000000001,0.0020147800000000003,0.002719816,0.008363645999999999,-0.0032791260000000003,4.218,0,0
0.007035134000000001,0.00312654,-0.003966664,0.0069172762,0.006525853999999999,4.219,0,0
0.016254834000000003,0.00280659,-0.009481228000000001,0.0043871342,0.015341014,4.22,0,0
0.024722322,0.0035779800000000006,-0.013790950000000001,0.0013253542000000002,0.022621108,4.221,0,0
0.028802820000000003,0.004055537999999999,-0.01578698,-0.0017971298,0.0260699,4.222,0,0
0.027119940000000002,0.002018842,-0.015085804000000001,-0.0045746758000000005,0.025239420000000002,4.223,0,0
0.022731510000000003,-0.000916356,-0.013227182,-0.006377072000000001,0.022207152,4.224,0,0
0.015765866000000003,-0.001402788,-0.009799046,-0.0070378260000000005,0.01611073,4.225,0,0
0.005483226,0.00040560399999999995,-0.004576396000000001,-0.006994350000000001,0.006885010000000002,4.226,0,0
-0.004808874000000001,5.769720000000007e-05,0.0010056439999999998,-0.005966738,-0.0023326099999999997,4.227,0,0
-0.013413754000000002,-0.0015185268,0.005900208,-0.003956364,-0.01021745,4.228,0,0
-0.020632264000000004,-0.0008117468000000001,0.009859226,-0.001907478,-0.017308162000000002,4.229,0,0
-0.025075140000000003,-0.000408618,0.01234411,6.098599999999996e-05,-0.022006400000000002,4.23,0,0
-0.025660220000000004,-0.002521708,0.012276051999999999,0.002216972,-0.022421860000000002,4.231,0,0
-0.022898980000000003,-0.0041843872,0.010085133999999999,0.004023550000000001,-0.02042816,4.232,0,0
-0.017345218000000003,-0.0037962532000000004,0.0074329040000000015,0.00522943,-0.01657256,4.233,0,0
-0.008979538000000002,-0.0033954798000000006,0.003620772,0.006155766000000001,-0.009535008000000001,4.234,0,0
0.0004841219999999996,-0.0029359906000000005,-0.001218148,0.006074396,-0.0011590879999999987,4.235,0,0
0.008831002,-0.0009184766000000005,-0.004689204000000001,0.0048473054,0.006569832,4.236,0,0
0.015965162,0.0017746474,-0.007676886000000001,0.0029472374000000003,0.013738152,4.237,0,0
0.02131624,0.0030268494,-0.010782856,0.0003661773999999998,0.019364712,4.238,0,0
0.022783980000000006,0.003064814,-0.011175436000000002,-0.0022115046,0.021430440000000002,4.239,0,0
0.020724580000000003,0.0022973488,-0.008910368,-0.004045602600000001,0.02030852,4.24,0,0
0.016787268,0.0009522688000000003,-0.006537258,-0.004976086000000001,0.016707626,4.241,0,0
0.010346258,0.00010852140000000001,-0.0033426379999999998,-0.005512654000000001,0.010653464000000001,4.242,0,0
0.002115318,3.7339999999996495e-07,0.0008830800000000002,-0.005246188000000001,0.003207004000000001,4.243,0,0
-0.005615621999999999,0.0008677674,0.004099592,-0.003986180000000001,-0.004099576000000001,4.244,0,0
-0.012501421999999998,0.0028920546,0.006133536,-0.002488596,-0.010428696000000001,4.245,0,0
-0.01782207,0.0039663566,0.007700416,-0.0007675680000000002,-0.015606822,4.246,0,0
-0.019788880000000002,0.0035992380000000003,0.008394442,0.0010822520000000001,-0.018261720000000002,4.247,0,0
-0.018223542,0.0033808208000000004,0.0077634439999999996,0.0027807580000000004,-0.01807174,4.248,0,0
-0.015097150000000002,0.0011743848000000004,0.006692704,0.00428365,-0.016270372,4.249,0,0
-0.010251076000000003,-0.0018488692,0.005481878,0.005222862,-0.0123726578,4.25,0,0
-0.0033953760000000003,-0.0019458952,0.0034290512,0.0054385860000000005,-0.0059736478,4.251,0,0
0.0026510839999999997,-0.0007522511999999999,0.00016512519999999976,0.0052535179999999996,0.0006501321999999995,4.252,0,0
0.007953886,-0.000273978,-0.0032888348000000003,0.004327116000000001,0.0066208922,4.253,0,0
0.013516894000000002,0.001286222,-0.0066167148,0.0024789139999999996,0.0124785642,4.254,0,0
0.017103519999999997,0.002015612,-0.0103429008,0.0002685840000000001,0.01662463,4.255,0,0
0.017084259999999997,-0.00021858800000000025,-0.01237306,-0.00196006,0.01733456,4.256,0,0
0.01526218,-0.0018009760000000004,-0.011954064,-0.0036636980000000004,0.015771921999999997,4.257,0,0
0.0115797786,-0.0023819372000000003,-0.010298004,-0.00450636,0.012684408,4.258,0,0
0.0050656326,-0.0030606692,-0.007179728,-0.005025086,0.006943,4.259,0,0
-0.0014306873999999999,-0.0027170505999999997,-0.0014476479999999997,-0.0047017560000000005,9.917999999999993e-05,4.26,0,0
-0.0064113074,-0.0012596226,0.004942412,-0.0035125116000000005,-0.005564360000000001,4.261,0,0
-0.0107357674,-0.0007188828,0.009369876,-0.0023914338,-0.010307902,4.262,0,0
-0.013983586,-0.00011746560000000007,0.012514216,-0.0009428478000000002,-0.014181528,4.263,0,0
-0.01461466,0.0009701464,0.014235786,0.0010354802000000001,-0.0152589,4.264,0,0
-0.013836550000000001,0.0001607217999999998,0.012913273999999999,0.0027757902000000003,-0.013984262,4.265,0,0
-0.012469456,-0.0010319302000000004,0.008930941999999999,0.0039801338,-0.011809832000000001,4.266,0,0
-0.008722898000000001,-0.0010726380000000003,0.00491052,0.00514682,-0.008133422,4.267,0,0
-0.003168138,-0.0011108380000000005,0.000897906,0.005270434,-0.0027871379999999998,4.268,0,0
0.0023981220000000004,-0.0010648199999999997,-0.002792022,0.003930168,0.002538722,4.269,0,0
0.0077487120000000005,0.0009397579999999998,-0.0053184239999999995,0.0025422440000000004,0.007116084000000001,4.27,0,0
0.012774638,0.0033036520000000002,-0.007223798,0.0011675839999999997,0.011481354,4.271,0,0
0.01544676,0.0041880780000000005,-0.007982526,-0.000967214,0.013975824000000001,4.272,0,0
0.014717204000000001,0.0033764719999999997,-0.007372618000000001,-0.00304562,0.013904782000000001,4.273,0,0
0.012121880000000002,0.0011997459999999994,-0.006044734,-0.003950164,0.012267442,4.274,0,0
0.008364474,-0.0007141700000000001,-0.0045612068,-0.004721988,0.0091018406,4.275,0,0
0.00319511,-0.001966128,-0.002132338800000001,-0.005089954,0.004074784600000001,4.276,0,0
-0.00199647,-0.00261991636,0.0006350452000000002,-0.0040448894,-0.0009121754000000002,4.277,0,0
-0.006137574,-0.00217008696,0.0026764752000000003,-0.0026924213999999997,-0.0048572774,4.278,0,0
-0.00946985,-0.0011292289600000002,0.0043911512,-0.0013823974,-0.0085524974,4.279,0,0
-0.011595144,-0.0010481249600000002,0.0056046740000000005,0.00045289460000000006,-0.010715676,4.28,0,0
-0.011606430000000001,-0.0012833909600000002,0.0055564740000000005,0.0019522446000000003,-0.010751674000000001,4.281,0,0
-0.010024566000000002,-0.0011378686,0.004706212,0.0026651160000000004,-0.010059930000000002,4.282,0,0
-0.007679128,0.00021609999999999989,0.0036857876000000005,0.0035387820000000007,-0.009042384,4.283,0,0
-0.0037163160000000008,0.003110852,0.0015077176000000002,0.003984418,-0.00583955,4.284,0,0
0.0009288639999999997,0.00572836,-0.0013415084000000005,0.0034446520000000003,-0.0016729999999999998,4.285,0,0
0.0044010939999999995,0.0061117972000000005,-0.0034340544000000008,0.0024588898000000004,0.0018285640000000002,4.286,0,0
0.00733605,0.0034125132,-0.005113396400000001,0.0013209877999999999,0.0060120600000000005,4.287,0,0
0.010183512,-0.0007782788000000006,-0.006342246,0.0001680417999999999,0.009873154000000002,4.288,0,0
0.010647662,-0.004459706800000001,-0.006272164000000001,-0.0011282242000000002,0.011288760000000002,4.289,0,0
0.00906878,-0.0063585288,-0.005332984000000001,-0.0020394942000000003,0.01049356,4.29,0,0
0.0075851140000000004,-0.0062502992,-0.0041692064,-0.002370212,0.00926072,4.291,0,0
0.004796764000000001,-0.0037364515999999998,-0.0022986924,-0.002772558,0.0064729398,4.292,0,0
0.0005951939999999998,0.00044120240000000005,0.00016506959999999988,-0.0029662440000000003,0.0017443138000000004,4.293,0,0
-0.002528796,0.0040704504,0.0019984196,-0.0025461220000000005,-0.0020659501999999996,4.294,0,0
-0.004965954,0.0055073164,0.0033737236,-0.00211987,-0.0048105182,4.295,0,0
-0.007994328000000002,0.005268177600000001,0.004652184,-0.0014683646,-0.007636448200000001,4.296,0,0
-0.009461352000000001,0.005051354,0.005091094000000001,-0.00021333460000000012,-0.00910683,4.297,0,0
-0.008790282,0.00259808,0.00415951,0.0009112714000000001,-0.008481518,4.298,0,0
-0.008163186,-0.0027248000000000003,0.0031654986000000003,0.0015572794,-0.007922680000000001,4.299,0,0
-0.0071643,-0.0067315859999999995,0.0029812166000000003,0.0021021214000000003,-0.006769476,4.3,0,0
-0.004211704,-0.00767404,0.0017303726000000002,0.002354434,-0.0036608820000000007,4.301,0,0
-0.0008477879999999999,-0.007812884,-3.813740000000007e-05,0.0019401440000000002,-0.0008693840000000002,4.302,0,0
0.002151752,-0.006517758000000001,-0.0009050554000000001,0.0014286646000000003,0.0014007980000000004,4.303,0,0
0.005651903999999999,-0.0025007260000000004,-0.001810444,0.0010365386,0.0046923040000000004,4.304,0,0
0.00837205,0.0010879300000000002,-0.0032244240000000005,0.0005867148000000001,0.007599958,4.305,0,0
0.009049156,0.0028364720000000005,-0.0037506440000000005,8.581599999999979e-06,0.008025082000000001,4.306,0,0
0.008689692,0.004513338,-0.0031559776,-0.0003135748,0.007536172000000001,4.307,0,0
0.007504858,0.006149954,-0.0026337944,-0.0005368642,0.0068829120000000014,4.308,0,0
0.004473166,0.0049465918000000005,-0.0014759164000000002,-0.0011097962000000002,0.004052926,4.309,0,0
0.0011656519999999999,0.0025691838000000003,0.0002608936,-0.0014705604000000002,0.000260466,4.31,0,0
-0.001176104,0.0028050357999999994,0.0013727396,-0.0014516596000000003,-0.00206666,4.311,0,0
-0.0035693440000000003,0.0036464498,0.0022007932,-0.0013969882000000001,-0.0037299440000000002,4.312,0,0
-0.006015142000000001,0.0027865378000000002,0.003140564,-0.0010227954,-0.005438012000000001,4.313,0,0
-0.006567728,0.0020663240000000005,0.0030156514000000004,-5.2599399999999936e-05,-0.005885652000000001,4.314,0,0
-0.005567228,0.0013447360000000005,0.0025799434000000005,0.0006633026,-0.00560122,4.315,0,0
-0.00511688,-0.0021461339999999996,0.0029867834,0.001214101,-0.005713716000000001,4.316,0,0
-0.004503984,-0.006226034,0.0022833793999999996,0.001644028,-0.004980896,4.317,0,0
-0.002338344,-0.008114388,0.0004584213999999998,0.0012679966000000002,-0.0027644259999999995,4.318,0,0
-0.000264268,-0.008370618,-0.00044174600000000024,0.0008054472000000001,-0.0006501219999999995,4.319,0,0
0.0011816420000000001,-0.0068013660000000005,-0.001383352,0.0004690764000000001,0.0016709600000000004,4.32,0,0
0.004147508,-0.00335246,-0.003163746,-0.0002375856,0.004670046000000001,4.321,0,0
0.006566774,-0.0002566720000000001,-0.00391067,-0.0006854728000000001,0.006301404,4.322,0,0
0.0066827399999999995,0.0016510980000000001,-0.00329294,-0.0007379834000000001,0.005958056,4.323,0,0
0.006387078,0.003987666000000001,-0.002762842,-0.0009634160000000001,0.005386241999999999,4.324,0,0
0.005068688000000001,0.005328326,-0.00286534,-0.0011197132000000001,0.0043547374,4.325,0,0
0.0016250600000000004,0.005447136000000001,-0.002483226,-0.0012691852,0.0015802414,4.326,0,0
-0.001273412,0.00594226,-0.0010136000000000001,-0.001522096,-0.0007224186000000002,4.327,0,0
-0.0031423260000000004,0.005004091600000001,0.0005718480000000005,-0.0013315778,-0.0020267406,4.328,0,0
-0.005415792000000001,0.0029919716,0.0014761960000000001,-0.000873613,-0.0036277346000000003,4.329,0,0
-0.006193214000000001,0.0028571376000000002,0.0024198020000000004,-0.000488287,-0.004778434,4.33,0,0
-0.005424112,0.0031358396,0.003362378,0.000352213,-0.00457132,4.331,0,0
-0.004778284,0.00018177359999999986,0.0030670700000000003,0.001167321,-0.003899408,4.332,0,0
-0.00398239,-0.003767764,0.00259012,0.0012239968,-0.00343947,4.333,0,0
-0.0018317480000000002,-0.0056129380000000005,0.002585098,0.0011662934000000002,-0.0021916264,4.334,0,0
0.0004002080000000001,-0.006704522000000001,0.0021909252,0.001091973,-0.00045763839999999993,4.335,0,0
0.001440684,-0.007355414,0.0017776737999999999,0.0008464884,0.0008345976000000002,4.336,0,0
0.0029438760000000002,-0.005161078,0.0012320777999999999,0.0006718264000000001,0.0019380896000000002,4.337,0,0
0.0045830160000000005,-0.00026345800000000027,-0.0001363642000000001,0.0005340204000000001,0.0036190996000000004,4.338,0,0
0.004570266,0.003150002,-0.0013047942000000002,0.00024878460000000004,0.0046858080000000005,4.339,0,0
0.0037564400000000006,0.0038233660000000004,-0.0014754794000000002,-2.729499999999999e-05,0.004436062,4.34,0,0
0.003382196,0.0035779799999999997,-0.0018122160000000002,-0.00019892840000000002,0.004305556,4.341,0,0
0.00219581,0.00387861,-0.0018928440000000003,-0.000527028,0.0035550024,4.342,0,0
0.0004473000000000001,0.003681352,-0.0008855600000000001,-0.00047450220000000003,0.0015014604,4.343,0,0
-0.00045896200000000004,0.0012574199999999998,-0.0003583932000000001,1.8798200000000006e-05,3.36364e-05,4.344,0,0
-0.0011453680000000001,-0.001405438,-0.0004005952000000001,0.00030004360000000004,-0.0007265895999999999,4.345,0,0
-0.002041352,-0.00313962,9.158619999999999e-05,0.0003520446,-0.0020909815999999998,4.346,0,0
-0.002264738,-0.005113678000000001,0.0005068844,0.0005249904000000001,-0.002997108,4.347,0,0
-0.001783442,-0.00599683382,-1.5319200000000007e-05,0.0004159576000000001,-0.002611002,4.348,0,0
