bandpass 1,bandpass 2,bandpass 3,bandpass 4,bandpass 5,time,onset,mark
0.0006058633999999999,3.3648200000000014e-05,-2.0390179999999995e-05,-0.00026651200000000005,0.00035834180000000003,3.544,0,0
0.0009552494,0.0006550082000000001,-0.00018537298,-0.00028373200000000003,0.0006560898000000001,3.545,0,0
0.0009885178,0.0011826822,-0.00027490898,-0.0003468170000000001,0.0006157348,3.546,0,0
9.581579999999991e-05,0.0014477124,-0.00014748078000000002,-0.0007153044000000002,-0.00030851120000000004,3.547,0,0
-0.0006666942000000001,0.001564883,-0.00069513698,-0.0005745622,-0.00016519600000000002,3.548,0,0
-0.0009777155999999999,0.001737821,-0.0011996490000000001,-0.000375462,-0.00026635800000000007,3.549,0,0
-0.0016876756,0.001919193,-0.0010905966,-0.00042103160000000003,-0.0009001460000000001,3.55,0,0
-0.0016212404,0.001933761,-0.000866382,-3.325259999999999e-05,-0.0008093,3.551,0,0
-0.0006132244,0.0020463308,-0.0005714318,0.0006469566,-0.000571614,3.552,0,0
-0.00042863239999999995,0.0013966640000000002,-4.762259999999999e-05,0.0009610065999999999,-0.001080383,3.553,0,0
-0.00042645639999999994,0.0002712000000000001,0.0005658262,0.001031926,-0.0008778742000000001,3.554,0,0
-0.0001619584,-0.0001205920000000001,0.0008939486000000001,0.0010815156,-0.0002928702,3.555,0,0
-0.00042624479999999994,-7.82659999999999e-05,0.000547832,0.0006902296,-8.240320000000017e-05,3.556,0,0
-0.0006042348,-4.2793999999999916e-05,0.00012256560000000003,0.0003442374,0.00023779539999999998,3.557,0,0
-0.00010248340000000006,-8.753999999999988e-05,-1.6697599999999994e-05,0.0003533394,0.0006714313999999999,3.558,0,0
0.0005683546,-2.4108000000000115e-05,-0.0005838324,0.000320264,0.0011137605999999999,3.559,0,0
0.0009606806,-0.0006073523999999999,-0.0010000594000000001,0.0002234866,0.0010004536,3.56,0,0
0.0010996386000000002,-0.0019825864,-0.0005226734000000001,0.0001169722,0.0008697227999999999,3.561,0,0
0.0012345906,-0.0030742104,-0.0002510686000000001,-0.0003870516,0.0010825422,3.562,0,0
0.0011640536000000002,-0.0028856244,-8.968199999999973e-06,-0.0010827376,0.0009379669999999999,3.563,0,0
0.0007439556000000001,-0.0022817184,0.0005710882,-0.0013650378000000002,0.0005354752000000001,3.564,0,0
0.0006214934,-0.001825742,0.0006598042000000001,-0.0014802424000000002,0.0005257365999999999,3.565,0,0
0.0005780388,-0.0008787354000000002,0.0006078102,-0.0014658944,0.00016534739999999996,3.566,0,0
0.00013497120000000002,8.580819999999998e-05,0.0008736198,-0.0012068334000000002,-0.0008235966000000001,3.567,0,0
-6.2305e-05,0.0008738442000000001,0.0008611894,-0.0008482902,-0.0012793074,3.568,0,0
-0.000316735,0.0015983702,0.0006969766,-0.00041556959999999995,-0.0015775216,3.569,0,0
-0.0008804748000000001,0.0016286502,0.0010551116,8.863640000000004e-05,-0.001989016,3.57,0,0
-0.0011839734000000002,0.0008533316000000001,0.0010509536,0.0005584028,-0.0019160826000000001,3.571,0,0
-0.0012299446000000002,5.52799999999987e-06,0.0003387216000000001,0.0011461838000000001,-0.0013657063999999999,3.572,0,0
-0.0011473808000000002,-0.00038554580000000016,0.0001362856,0.0015050086,-0.0008925264000000001,3.573,0,0
-0.00086779184,-0.0003831358000000002,0.00027904039999999996,0.0014206645600000002,-0.00035236640000000004,3.574,0,0
-4.679183999999997e-05,5.043419999999988e-05,-0.0002622076,0.00132079316,0.0006872916,3.575,0,0
0.00098767416,0.0012568981999999999,-0.0006936076,0.00091643216,0.0014875202,3.576,0,0
0.0015109309600000002,0.0020081724,-0.0007205575999999999,0.00014063215999999998,0.0018908200000000003,3.577,0,0
0.0019198109600000002,0.0017909622000000002,-0.0011616036,-0.00026554504000000006,0.002232362,3.578,0,0
0.0019999604000000004,0.0009869662000000002,-0.0015887639999999999,-0.00011083720000000004,0.0019607024,3.579,0,0
0.0009587744,-0.0003833158,-0.001638836,2.4220199999999996e-05,0.0008712583999999999,3.58,0,0
-0.0003030076000000002,-0.0014461138,-0.0015165352000000001,0.00033815120000000004,4.614280000000002e-05,3.581,0,0
-0.0010679236000000003,-0.00143395,-0.0009885948000000002,0.0008342952,-0.00028497320000000007,3.582,0,0
-0.0019421616000000002,-0.001180008,7.40532000000001e-05,0.000755121,-0.0008697712000000002,3.583,0,0
-0.0024098080000000003,-0.0010477826,0.0009844592,0.0006377684,-0.0012713336000000001,3.584,0,0
-0.0016670682000000001,-0.00045090719999999997,0.0016910372,0.0007062644,-0.0012471956000000002,3.585,0,0
-0.0009366206,-0.00041828120000000007,0.0023375384000000003,0.000540242,-0.001407874,3.586,0,0
-0.0007194205999999999,-0.0006996630000000001,0.002440914,0.00023596499999999998,-0.001724804,3.587,0,0
-3.753479999999996e-05,-0.0004778050000000001,0.0018423758400000002,0.00045391260000000004,-0.0015173466000000001,3.588,0,0
0.0007602712000000001,6.086160000000004e-05,0.0009716198400000003,0.0006717648000000001,-0.0007365866000000002,3.589,0,0
0.0009422754000000002,0.0005701622,0.00024660184,0.0003168892,3.917340000000007e-05,3.59,0,0
0.0009445490000000001,0.0003728242000000001,-0.00054286216,0.000343848,0.0009886774,3.591,0,0
0.001283251,-0.00011463399999999996,-0.00133075616,0.00032062240000000004,0.0019139894000000002,3.592,0,0
0.0013376232,7.801599999999998e-05,-0.001643796,0.00015231819999999996,0.00201721,3.593,0,0
0.0008360724000000001,0.00042429199999999994,-0.0014315456000000002,5.5777999999999993e-05,0.0017496174,3.594,0,0
0.0006085138,0.0007306720000000001,-0.0015295056,-2.2492800000000003e-05,0.0017378953999999999,3.595,0,0
0.00047846174000000004,0.0014092360000000003,-0.0018813956000000003,-0.00017672600000000002,0.0012168058000000001,3.596,0,0
0.00017216454000000005,0.0013213680000000003,-0.0012594034000000002,-0.00031691740000000003,0.0004003198,3.597,0,0
0.00015147454000000003,0.0003665420000000003,-0.0005911633999999999,-0.0004166454,0.0004483118,3.598,0,0
7.016974000000002e-05,-0.0005747291999999998,-0.0006921784000000001,-0.000725645,0.000265274,3.599,0,0
-0.00041526766000000005,-0.0012073054,2.992559999999997e-05,-0.0009843806,-0.0007740120000000001,3.6,0,0
-0.0006460188,-0.0010620948,0.0013204996000000001,-0.0013071118,-0.0012673804,3.601,0,0
-0.0007959716,-0.0002817751199999999,0.0015120354,-0.0012121235999999998,-0.0010231305340000002,3.602,0,0
-0.0015399096,0.00029590288,0.0014094234,-0.0011785756,-0.001170651134,3.603,0,0
-0.0018971740000000002,0.00047927648000000003,0.001998136,-0.0012846898000000002,-0.0011955901340000002,3.604,0,0
-0.0016281942,0.0006828606800000001,0.001929808,-0.0007015977999999999,-0.000316606134,3.605,0,0
-0.0012707732,0.00098529408,0.001067433,-7.222580000000004e-05,5.702746599999997e-05,3.606,0,0
-0.0008024252000000001,0.0012655224,0.000533693,0.00020598859999999998,-0.0004000404000000001,3.607,0,0
-0.00021145599999999998,0.0015513644,-3.9917000000000045e-05,0.0006670166000000001,4.350619999999992e-05,3.608,0,0
0.0003849178,0.001105766,-0.0009976490000000002,0.0012631146000000003,0.0009206256,3.609,0,0
0.000763482,0.00018853800000000003,-0.001704511,0.0011292968,0.0006076418,3.61,0,0
0.0010362050000000001,-0.00041321780000000007,-0.001863922,0.0004633768,0.0005868223999999999,3.611,0,0
0.0013747850000000001,-0.0012170718,-0.00198513,0.00014526999999999992,0.0013826564000000003,3.612,0,0
0.0018081338,-0.0021275678,-0.0019447420000000002,-0.00017723220000000005,0.0008777852000000001,3.613,0,0
0.0017734466000000001,-0.0021785818000000005,-0.0015428856000000001,-0.0007539542,-0.00023837880000000003,3.614,0,0
0.0014638398000000003,-0.0015618902000000003,-0.0007617855999999999,-0.0005191544000000001,-0.00028255040000000004,3.615,0,0
0.0008628698000000002,-0.0013495354000000004,0.0003586784,6.516399999999996e-05,-0.0005808526000000001,3.616,0,0
-0.00017647820000000005,-0.0008945348,0.0012145104,5.653599999999999e-05,-0.0015290586,3.617,0,0
-0.0006640005799999999,9.248520000000002e-05,0.0016616900000000002,4.6219999999999995e-05,-0.0015052402000000002,3.618,0,0
-0.00072327518,0.0008118032000000001,0.00198034,9.975499999999996e-05,-0.0010381734,3.619,0,0
-0.0009484063799999999,0.0008787048,0.001885964,-0.00040776380000000006,-0.001220798,3.62,0,0
-0.00093864258,0.0006670725999999999,0.001081148,-0.0007040684000000001,-0.0008919894,3.621,0,0
-0.0006024793800000001,0.00042682399999999996,0.00058802928,-0.00023709019999999993,-0.00029340340000000005,3.622,0,0
-0.0007722476,-7.999440000000002e-05,0.00060877468,9.066800000000002e-05,-0.0006290906000000001,3.623,0,0
-0.0007391401799999999,-0.00027267200000000006,0.00038986147999999995,0.00042425280000000007,-0.0006196648000000001,3.624,0,0
8.390781999999996e-05,8.273880000000001e-05,0.00014696748,0.000706949,0.0003275391999999999,3.625,0,0
0.0006050220199999999,0.0006980319999999999,-1.7185200000000087e-06,0.0007009768,0.0009424425999999999,3.626,0,0
0.0007200228199999998,0.001335236,-0.0004303118,0.00037050019999999997,0.0013518286,3.627,0,0
0.00101890762,0.0016573964000000001,-0.0010042928,1.9528600000000008e-05,0.0021490325999999997,3.628,0,0
0.001029753,0.0015685392,-0.0012016280000000002,-0.0005729892,0.0023020000000000002,3.629,0,0
0.0003049318,0.0011488514,-0.0013348408000000002,-0.0013622546,0.0014757567999999998,3.63,0,0
8.206540000000004e-05,0.000649030094,-0.0013592932000000002,-0.0013599982,0.0006585287999999999,3.631,0,0
0.00028329320000000007,0.000403677094,-0.0010969448000000001,-0.0011933274,0.0002571727999999999,3.632,0,0
-0.00016989700000000002,0.000101021094,-0.0007370140000000001,-0.0011916184,-0.00028125020000000005,3.633,0,0
-0.0005680098,-0.00035605210600000005,-0.00033698460000000007,-0.0007954794,-0.0008143602,3.634,0,0
-0.0006874486,-0.0007282183060000001,-0.0001712135,-0.00013594660000000003,-0.000930437,3.635,0,0
-0.0011755202,-0.001058469,-4.28503e-05,-0.00020577659999999998,-0.001102939,3.636,0,0
-0.0016243260000000002,-0.0013504950000000002,0.0004121353,-0.0001848874,-0.0016152369999999998,3.637,0,0
-0.0012616674,-0.0012334356000000002,0.0011141525,0.0006219492000000001,-0.001705374,3.638,0,0
-0.0005019494000000002,-0.0004705096,0.0012219471000000002,0.0010005082,-0.001106056,3.639,0,0
4.34965999999999e-05,0.0003114684,0.0012481674,0.0010616812,-0.0007967154000000001,3.64,0,0
0.0005623734,0.0010891904,0.0016362886,0.0015261872,-0.00032043319999999986,3.641,0,0
0.0011832354,0.0015220954000000001,0.0012859584,0.0016706838000000001,0.0006752348000000001,3.642,0,0
0.0014480807999999999,0.0009403920000000002,0.0003291324000000001,0.0010422064,0.0011829528000000002,3.643,0,0
0.0014729907999999998,-9.036000000000005e-05,-0.00047144159999999995,0.0007821246000000001,0.0011265828000000002,3.644,0,0
0.0017025748,-0.001213326,-0.0010560202,0.0009633248000000003,0.0014304322,3.645,0,0
0.0016202902000000002,-0.0023374900000000002,-0.0016323082000000001,0.0007229774400000002,0.001686598,3.646,0,0
0.0011167096,-0.0026289706,-0.0015358902000000001,2.2599440000000076e-05,0.0013162668,3.647,0,0
0.0005973156,-0.0015404626,-0.0010031522,-0.00026063595999999996,0.001210526,3.648,0,0
1.5016399999999967e-05,-5.0270599999999816e-05,-0.0005210948,-0.00034426415999999995,0.0008036304,3.649,0,0
-0.0007097776000000001,0.0012188954,0.0002254892,-0.00086801816,3.631239999999996e-05,3.65,0,0
-0.0012348158,0.0020055847999999998,0.0007617772,-0.001057613,-0.0005001016000000001,3.651,0,0
-0.0013931192,0.0018045574,0.0006194214000000001,-0.0006812058,-0.0010473764000000002,3.652,0,0
-0.0015326732,0.0006389194,0.0004248962,-0.00048476905999999994,-0.0014614836000000002,3.653,0,0
-0.0013989401999999998,-0.0007256886000000001,0.0008150368,-0.00046913862,-0.00157962,3.654,0,0
-0.0009539588,-0.0014543772,0.0008489688000000001,-0.00028600242,-0.0012265458,3.655,0,0
-0.0008224708000000001,-0.0021677346,0.0005484228000000001,-0.00043163622000000004,-0.0008873809999999999,3.656,0,0
-0.0005869332,-0.0026359546,0.0005052992000000001,-0.00033784962,-0.00030027539999999994,3.657,0,0
0.00010574480000000001,-0.0018794884,0.00022687240000000006,0.00040364244000000004,0.0006688046,3.658,0,0
0.00025878800000000003,-0.0008884124,-0.00037423960000000005,0.000621346,0.0012953446000000001,3.659,0,0
4.647140000000001e-05,-0.0002274937999999999,-0.0008414516,0.0005882688000000001,0.0014271282,3.66,0,0
0.0005559988,0.0011081422000000002,-0.0009102916000000001,0.0009671072,0.001467776,3.661,0,0
0.0008885632,0.0026180882000000003,-0.0009127372,0.0008980188000000002,0.0015658064,3.662,0,0
0.00037942620000000005,0.003461102,-0.0009120652,5.359519999999995e-05,0.0008387924,3.663,0,0
0.0002269248,0.003831274,-0.0006752312000000001,-0.0005925048,-8.092560000000002e-05,3.664,0,0
0.00058682,0.003521402,-0.00034928880000000006,-0.0007908038,-0.00031653400000000004,3.665,0,0
0.00032916300000000005,0.0021567619999999996,-0.00032730140000000003,-0.0012813802,-0.0008577706000000001,3.666,0,0
-0.00024077900000000002,0.00021858599999999978,4.368579999999996e-05,-0.0018820576000000001,-0.0019639506,3.667,0,0
-0.0001647942,-0.0014291500000000001,0.0008351178000000001,-0.0018089500000000001,-0.0023617686,3.668,0,0
-7.770380000000004e-05,-0.00270178,0.0009557792000000001,-0.0013514952,-0.0019998546000000003,3.669,0,0
-0.0005324316000000001,-0.0033373459999999997,0.0009546006000000001,-0.0012345646,-0.002212124,3.67,0,0
-0.0006618220000000001,-0.002984514,0.0013643872,-0.0006620580000000001,-0.0018567200000000003,3.671,0,0
-0.0005243110000000001,-0.002146838,0.0012770188,0.000199008,-0.0006048120000000001,3.672,0,0
-0.0006270056,-0.0015079482000000001,0.0008001619999999999,0.0004103898,-6.18626e-05,3.673,0,0
-0.000583444,-0.0005328482000000001,0.0008670878,0.0008876270000000001,0.0004935934,3.674,0,0
-0.00020301020000000006,0.00033580979999999996,0.0005849237999999999,0.0013768164000000002,0.0014008394000000002,3.675,0,0
0.0005078338,0.0003084697999999999,-0.00021121619999999998,0.0013357014,0.0017244973999999999,3.676,0,0
0.0010489908000000001,-4.846220000000005e-05,-0.0005024608,0.0012947304000000001,0.0017220274000000002,3.677,0,0
0.0012136252000000001,-0.0002362400000000001,-0.0009090859999999999,0.0010814086000000003,0.002285352,3.678,0,0
0.0012865090000000001,0.0007137879999999999,-0.0014770992,0.00040266019999999996,0.0025692640000000004,3.679,0,0
0.0012070144,0.002646094,-0.0015989210000000001,-0.00018916180000000006,0.00203219254,3.68,0,0
0.0007599667999999999,0.00491488,-0.0013219068000000001,-0.00037797600000000003,0.00152488634,3.681,0,0
0.00038561008,0.0063405020000000005,-0.0010909162000000002,-0.0007242212,0.0009468051399999999,3.682,0,0
0.00017550248,0.00586822,-0.0006302214000000001,-0.0011189192,-0.00029109886,3.683,0,0
-0.00038657692000000003,0.003675254,0.00018679259999999993,-0.0011417670000000001,-0.00154539286,3.684,0,0
-0.00097751232,-0.00010317999999999937,0.0007158646,-0.001142889,-0.0018609094000000001,3.685,0,0
-0.00137657872,-0.003998492,0.0011214804,-0.0011034998,-0.0021643232,3.686,0,0
-0.001748846,-0.005807332,0.0012777088,6.96703999999999e-05,-0.0024941860000000002,3.687,0,0
-0.001760962,-0.005630008000000001,0.0010565428,0.0021408924,-0.002058821,3.688,0,0
-0.0013059980000000003,-0.005453398,0.0005844488000000001,0.0037727126000000003,-0.0015527372,3.689,0,0
-0.0008780893800000001,-0.004681142,0.0004870752000000001,0.0051523146,-0.0011756686,3.69,0,0
-9.629938e-05,-0.0027422013,0.00039280240000000007,0.006031632,-0.00023906059999999997,3.691,0,0
0.00099743462,-0.0014255913,-0.00024114360000000002,0.005002928,0.0007323574,3.692,0,0
0.00181406262,-0.0008459545000000001,-0.0008474744000000001,0.0029796140000000002,0.0013726724,3.693,0,0
0.00227531462,8.429750000000006e-05,-0.0013138644,0.0013700680000000003,0.0019306426,3.694,0,0
0.0024274217999999998,0.0010430695000000002,-0.0014135238,-0.000273718,0.002138508,3.695,0,0
0.0018399201999999997,0.0010343448000000002,-0.0016051252000000003,-0.002029224,0.002100486,3.696,0,0
0.0006513341999999999,0.0006664226000000002,-0.0012693008,-0.0031584440000000003,0.0017735288,3.697,0,0
-6.73108e-05,0.0007952574000000002,-0.00030373079999999994,-0.0037230780000000003,0.0011966344,3.698,0,0
-0.00038550480000000006,0.0010156034,2.819079999999996e-05,-0.004601874000000001,0.0005397764,3.699,0,0
-0.0007857846000000001,0.0010443674,-7.210200000000035e-06,-0.0052049340000000005,-0.00042592960000000006,3.7,0,0
-0.001052685,0.0014156534000000001,0.000416924,-0.004832192000000001,-0.0013871416000000001,3.701,0,0
-0.0006262202,0.0021546836,0.0005495462,-0.004011092,-0.0016592228000000002,3.702,0,0
-0.0007387952000000001,0.002500724,0.00038360400000000006,-0.0031328878000000003,-0.0019451344000000002,3.703,0,0
-0.0016932552,0.0026691680000000004,0.0009540864000000002,-0.0020951938000000002,-0.0021822684,3.704,0,0
-0.001558076,0.00315823,0.0008527854000000001,-0.0010145032000000002,-0.0016628948,3.705,0,0
-0.001156574,0.0032497059999999998,0.0004308612,-0.00029206740000000005,-0.00109425222,3.706,0,0
-0.0015339207999999999,0.002656395,0.0009560506,0.0002162478,-0.0005402078199999999,3.707,0,0
-0.0010001168,0.0016970890000000001,0.0009966132,0.0005513756,0.0003076541800000001,3.708,0,0
1.657200000000083e-06,7.899300000000018e-05,0.0003419472,0.0009103236,0.00109355818,3.709,0,0
-0.00010331459999999995,-0.0018947330000000002,0.00013240420000000004,0.001434997,0.00158056658,3.71,0,0
0.00022045740000000005,-0.003232167,-0.0003043595999999999,0.0017786452000000002,0.00195756,3.711,0,0
0.0012161494,-0.0034510006000000003,-0.0013856416,0.0018624480000000003,0.0016702974,3.712,0,0
0.0012904574000000002,-0.0031993262000000002,-0.0018554420000000001,0.0017589518,0.0009492614,3.713,0,0
0.0011887500000000001,-0.0027022901999999996,-0.0014575446,0.0015295122,0.0005403834,3.714,0,0
0.0015783604000000001,-0.0016140242000000002,-0.0008558546000000001,0.0013048202,0.00015551080000000004,3.715,0,0
0.0013312602000000002,-0.0009152738000000001,-0.00036612190000000005,0.0010548322,-0.0002614412,3.716,0,0
0.0004315782000000001,-0.0008260426000000001,0.0003459681,0.0010361362,-0.0005174412000000001,3.717,0,0
-0.00020898580000000008,-0.0006177926,0.0011073101,0.0013901284000000002,-0.0004675428000000001,3.718,0,0
-0.0005447988,-0.00033986600000000003,0.0011087331,0.001590504,-0.0005868808,3.719,0,0
-0.0010058026,-8.930600000000002e-05,0.0010908711,0.0017468820000000002,-0.0009234542,3.72,0,0
-0.0011912172000000001,8.13356e-05,0.0016115204,0.002012656,-0.0010723116,3.721,0,0
-0.0007671788,-7.5869e-05,0.0015320188,0.0019480814,-0.0010765462000000001,3.722,0,0
-0.00037792880000000003,-0.0006169154,0.0010200028,0.0014632948,-0.0013012366,3.723,0,0
0.0001436716,-0.0004358758,0.0008098418,0.001111205,-0.0011657578000000002,3.724,0,0
0.0009013376,0.0004894782,0.00018152579999999998,0.0008379710000000001,0.00013279420000000006,3.725,0,0
0.0014208903999999999,0.0012332902000000002,-0.0007048042,0.00038100400000000005,0.0012530816,3.726,0,0
0.0019840020000000003,0.0025098982,-0.000926497,0.0001259618,0.0016538788000000002,3.727,0,0
0.0025720380000000004,0.0042016782,-0.0008058194000000001,-9.167999999999999e-05,0.0023987028000000002,3.728,0,0
0.002576778,0.004780614,-0.0009009358000000001,-4.749459999999999e-05,0.0026373814000000004,3.729,0,0
0.0020394610000000002,0.00386577,-0.0006581158000000001,-0.00011394620000000001,0.0011397934000000002,3.73,0,0
0.0012603550000000003,0.0020993319999999998,-0.0003769666,-0.0004789992,-0.00018531859999999995,3.731,0,0
0.00014321100000000018,-0.0004050340000000003,-0.0007283022000000001,-0.0005051476,-0.0005379256,3.732,0,0
-0.001240243,-0.0023970980000000003,-0.0007136896,-0.0006642812,-0.0014298855999999999,3.733,0,0
-0.0022832190000000004,-0.0034607440000000004,-0.00016209059999999992,-0.0011279288,-0.002114527,3.734,0,0
-0.0025750820000000002,-0.003967488,0.00011101700000000009,-0.0016874872000000002,-0.0018877190000000002,3.735,0,0
-0.0025692240000000006,-0.0029338459600000005,0.0004055098,-0.0021442912,-0.001740223,3.736,0,0
-0.0027033540000000003,-0.00124812796,0.0011849338000000003,-0.002447954,-0.001912844,3.737,0,0
-0.002413432,-0.00026625776,0.0014260536000000002,-0.0021511422,-0.0015152452,3.738,0,0
-0.0019050018000000002,0.0005953842399999999,0.00105519066,-0.0017606712,-0.0007128452000000001,3.739,0,0
-0.0017429042,0.00144496824,0.0010056516600000002,-0.0015440731999999998,-0.00018449820000000002,3.74,0,0
-0.0012451588,0.0010691282,0.0008628516600000001,-0.0008577031999999999,0.0004833838,3.741,0,0
-0.00030085879999999993,-0.00034111380000000015,0.00017281366000000003,-0.0004823998,0.0013594818000000001,3.742,0,0
0.0006434072000000001,-0.0014961600000000003,-0.0006404523400000001,-0.000372465,0.001988035,3.743,0,0
0.001271561,-0.0022247560000000005,-0.0010712994,-8.1868e-05,0.002225667,3.744,0,0
0.0018519154000000001,-0.0030161426000000005,-0.0014679480000000002,0.00040461480000000003,0.002340898,3.745,0,0
0.00221036,-0.0027498610000000006,-0.0017924880000000003,0.0003160594,0.002002523,3.746,0,0
0.0016939744000000004,-0.0009904170000000002,-0.0014144614000000002,-0.00016943599999999991,0.001333669,3.747,0,0
0.0010299562000000001,0.0004356649999999999,-0.0005656614,-0.00028433279999999994,0.0009058794000000001,3.748,0,0
0.0007546704,0.001263183,9.746860000000001e-05,-0.0002699667999999999,0.0002629156,3.749,0,0
0.00038749580000000007,0.0025761676,0.00042590760000000004,-0.00017415159999999998,-0.0003195564,3.75,0,0
-7.86812e-05,0.004341996,0.0005425655999999999,5.110360000000003e-05,-0.0005023614,3.751,0,0
-2.9747800000000014e-05,0.005760634000000001,0.0005739782,0.00056349272,-0.0007427974,3.752,0,0
8.62499999999998e-06,0.005627488,0.0005417442000000001,0.00058342092,-0.0013190958,3.753,0,0
-0.0005392712000000001,0.003110922,0.0006302842000000001,0.00011559491999999993,-0.001576564,3.754,0,0
-0.0010655906000000001,-0.00026376600000000035,0.0008448132000000001,-0.00027884848000000003,-0.00125171808,3.755,0,0
-0.0011503750000000001,-0.0031897500000000003,0.0008734498000000002,-0.00035400628000000005,-0.00121612928,3.756,0,0
-0.0009298206,-0.0051887208,0.0009170376000000001,-0.00026872820000000005,-0.00100712508,3.757,0,0
-0.0005613852,-0.0044556948,0.0005591184000000001,0.0001406278,-9.159507999999998e-05,3.758,0,0
8.894599999999974e-06,-0.0014861828000000002,-0.00032653359999999993,0.0006351518000000001,0.0007775909200000001,3.759,0,0
0.0006657062,0.0013618911999999997,-0.0009266856,0.00044164319999999993,0.0011270890000000002,3.76,0,0
0.0014083276000000002,0.0028631031999999997,-0.0011688362,0.0004789904000000001,0.0015531142000000003,3.761,0,0
0.0017528694,0.002012772,-0.0014756428000000002,0.0006305951999999999,0.0020245140000000003,3.762,0,0
0.0014352382000000002,-0.00037533200000000014,-0.0016833796,0.00032071519999999997,0.0016101560000000004,3.763,0,0
0.0010450784,-0.00203237,-0.001225275,4.547400000000003e-06,0.0007257440000000002,3.764,0,0
0.0007976288000000002,-0.0025119138,-0.0007180946000000002,0.0001726732,0.000303976,3.765,0,0
0.00019945800000000007,-0.0028643526000000003,-0.000334386,0.00010621720000000002,-0.000398028,3.766,0,0
-0.0007395160000000001,-0.0026881426,0.0003092736,-0.000324871,-0.001716928,3.767,0,0
-0.0010070088,-0.0014449504,0.0009117016,-0.00035938720000000003,-0.0022696160000000003,3.768,0,0
-0.0010278408,-0.0006042124,0.00102240946,-0.00015740600000000002,-0.002215412,3.769,0,0
-0.0015719828,-0.0008519584,0.00089389966,7.52946e-05,-0.002503116,3.77,0,0
-0.001916924,-0.0008069742,0.00105305906,0.0002933482,-0.0023062210000000002,3.771,0,0
-0.0014522699999999999,-1.0156600000000004e-05,0.0006105439,0.0006695158,-0.001125661,3.772,0,0
-0.0010569396,0.000211887,0.0001653351,0.0006867716000000001,-0.00048571940000000015,3.773,0,0
-0.0010453056,0.000224277,0.00061592464,0.00042647820000000006,-0.00022132580000000003,3.774,0,0
-0.0005168354,0.0008314368,0.0006801122400000001,0.00020848800000000008,0.0006658302000000001,3.775,0,0
0.0003756206,0.0012731494,3.0012240000000013e-05,-3.200559999999999e-05,0.0014812112000000001,3.776,0,0
0.0011033146,0.0016530058,-0.00026437659999999997,-7.26402e-05,0.0017041072000000001,3.777,0,0
0.0017138122000000002,0.00231269,-0.0007011518,-1.987579999999997e-05,0.0018947536,3.778,0,0
0.0025666002,0.0024673620000000003,-0.0018377678,9.906680000000005e-05,0.002448916,3.779,0,0
0.002778845,0.00201232414,-0.00192472338,0.0002937378,0.002180972,3.78,0,0
0.002147409,0.00219805414,-0.00102684738,0.0002383884,0.0016323934,3.781,0,0
0.001858127,0.00269383414,-0.0006139205800000001,-0.00017019439999999998,0.0012552797999999998,3.782,0,0
0.0012718328000000001,0.0025354021400000003,-1.7297999999994426e-07,-0.0004741434,0.0004419618,3.783,0,0
0.00016072280000000003,0.00268060414,0.00088945902,-0.00043574679999999993,-0.00036484220000000006,3.784,0,0
-0.00021217619999999997,0.0024704770000000004,0.0009634016,-0.00011220000000000002,-0.0010762222,3.785,0,0
-0.00040928420000000006,-8.302899999999987e-05,0.0008062976000000001,7.793259999999999e-05,-0.0016741096,3.786,0,0
-0.0011819682,-0.003375129,0.0013221108,-1.853139999999999e-05,-0.002254854,3.787,0,0
-0.0015426660000000003,-0.004846371,0.0017634912,-0.00013323440000000006,-0.002217216,3.788,0,0
-0.0016508019999999998,-0.005284667,0.0015682944000000002,-0.0004356796,-0.0018234228,3.789,0,0
-0.00216123,-0.0049631484,0.0011772231999999999,-0.000890201,-0.0014473326,3.79,0,0
-0.0019764500000000003,-0.0025833304000000006,0.0006585752000000001,-0.0007547854,-0.0006930285999999998,3.791,0,0
-0.0011026220000000002,8.921559999999995e-05,-0.00028056279999999994,-0.0001550634,0.00023261739999999999,3.792,0,0
-0.0006460020000000001,0.0009863986,-0.0012373228000000002,0.0003681226,0.0010108133999999999,3.793,0,0
0.0001374,0.0011292306,-0.0015271940000000002,0.0008363686,0.0014416222000000001,3.794,0,0
0.0012792300000000001,0.0011074320000000002,-0.00166194,0.0009312922,0.001777878,3.795,0,0
0.0016461320000000002,0.0007291048800000001,-0.001919432,0.0007689795999999999,0.00149229176,3.796,0,0
0.001329616,0.0004992196800000001,-0.001909438,0.0007914236,0.00098439296,3.797,0,0
0.0011921222000000002,0.00052694508,-0.0014098516000000001,0.0008553016000000001,0.00066737716,3.798,0,0
0.0009209913999999999,0.00065958308,-0.0005147876,0.000759684,0.00020482335999999994,3.799,0,0
-8.447659999999998e-05,0.0008170740800000001,0.0006272764000000001,0.0008196056,-0.00018735284,3.8,0,0
-0.0010245766000000001,0.0005411552,0.0017476564000000001,0.0009674018000000001,-0.0005775146000000001,3.801,0,0
-0.0014717366000000002,0.000297348,0.0021859436000000003,0.0006863638,-0.0006121758000000001,3.802,0,0
-0.0019979568,0.00024436282,0.0022765890000000003,0.0001834938,-0.0007716400000000001,3.803,0,0
-0.002325514,-0.00010045872,0.002152467,-0.0001584926,-0.0012681002000000002,3.804,0,0
-0.0016182412000000001,-0.00016098072000000002,0.0012976348000000003,-0.00036895760000000004,-0.0009628840000000001,3.805,0,0
-0.0009190204000000001,-0.00012274472000000004,0.00031199280000000003,-0.0005229146,-0.000369284,3.806,0,0
-0.0007012604,-0.00016530772000000003,0.00015297560000000003,-0.0006794218,-0.00038484679999999994,3.807,0,0
-1.1532399999999971e-05,8.638905999999995e-05,-0.00012143239999999999,-0.0007988618000000002,2.7609200000000013e-05,3.808,0,0
0.0007471036,0.0006471786000000001,-0.0010242204,-0.0007077468,0.0006373058000000002,3.809,0,0
0.0010192208,0.0016174846000000002,-0.0012439102,-0.000582461738,0.0002999106,3.81,0,0
0.001176146,0.0025455186000000003,-0.0009868484,-0.00046767513800000007,0.0001799302,3.811,0,0
0.001461384,0.0019442300000000008,-0.0011694176,-2.346393799999998e-05,0.0009186330000000001,3.812,0,0
0.0015243820000000001,0.0005265140000000005,-0.0013521094,0.000420528462,0.001188957,3.813,0,0
0.0010702452000000001,-0.00023389779999999973,-0.0011389144000000001,0.000533223462,0.0011529832000000003,3.814,0,0
0.0005275706000000002,-0.0012758998,-0.0009006110000000001,0.0005444579,0.0015329564000000004,3.815,0,0
-1.8221399999999988e-05,-0.0022218858,-0.0007779752,0.00021491689999999998,0.0013570334,3.816,0,0
-0.0006040554,-0.0023820398,-0.00044100500000000006,-0.00042876110000000003,0.0002995234000000001,3.817,0,0
-0.0007689940000000002,-0.0024662577999999998,7.823699999999999e-05,-0.0007553274999999999,-0.0003694678,3.818,0,0
-0.0008405208000000003,-0.002594892,0.00043378080000000004,-0.0009928354999999998,-0.0006745508,3.819,0,0
-0.0011428062000000002,-0.0025318681999999997,0.0009889534,-0.0012025097999999999,-0.0013852848000000001,3.82,0,0
-0.0010903862000000001,-0.0020382481999999995,0.0014981058,-0.0009799678,-0.0018411614000000001,3.821,0,0
-0.0006973661999999999,-0.0006369962,0.0013071038,-0.0005441714,-0.0015636236,3.822,0,0
-0.0006149295999999999,0.0010438898000000002,0.0008868584000000002,-0.00025826200000000004,-0.001500443,3.823,0,0
-0.00025316739999999986,0.0018076098000000002,0.0006287532,-1.897400000000002e-05,-0.0015680348,3.824,0,0
0.0007563226000000001,0.0019714,0.00012195920000000003,0.00029783200000000004,-0.0003688528000000002,3.825,0,0
0.0014258346000000002,0.0019302268000000004,-0.0008011908000000001,0.0001673316,0.0008334152,3.826,0,0
0.0013406306000000002,0.0012664140000000002,-0.0011309798000000001,1.1329999999999907e-06,0.00099868946,3.827,0,0
0.0013269732000000002,0.0004819480000000001,-0.0008171456,0.00025503760000000005,0.0013996420600000002,3.828,0,0
0.0016247046,0.000459762,-0.0007603428000000001,0.00037659260000000007,0.0020027740600000003,3.829,0,0
0.001262717,0.001513646,-0.0006411218,0.00026944396000000003,0.00129358904,3.83,0,0
0.0009874794000000002,0.0029988452,-0.00010717640000000003,0.0003311293600000001,0.00034443704000000007,3.831,0,0
0.0012648974000000002,0.003674304,3.9653599999999996e-05,0.00029299936000000003,0.0004341685800000001,3.832,0,0
0.0006411148000000002,0.0030101240000000003,-0.00016143600000000004,-0.00016069624,-0.00015703141999999997,3.833,0,0
-0.00035844319999999997,0.0007572040000000003,0.0003605676,-0.00028655124000000003,-0.0008791334200000001,3.834,0,0
-0.0008735736,-0.0020275000000000002,0.0009096386,-0.00016508160000000002,-0.0007545090000000001,3.835,0,0
-0.001384848,-0.004035698,0.0009071560000000001,-4.389760000000003e-05,-0.0007100630000000001,3.836,0,0
-0.0017693637999999998,-0.004666706,0.0010600508,0.00013900940000000002,-0.0012079826000000002,3.837,0,0
-0.0014388242,-0.0035314910000000003,0.00114523206,0.000526915,-0.0012005406000000001,3.838,0,0
-0.0007819024,-0.0015376578000000003,0.00053773046,0.000939485,-0.0007516908000000001,3.839,0,0
-0.0004410274,-0.00024026039999999998,-6.412994e-05,0.0009161874,-0.0009036342000000001,3.84,0,0
-8.134456000000002e-05,0.00012610920000000002,-8.202739999999984e-06,0.0010892202,-0.0005001628000000001,3.841,0,0
0.00027328924000000004,0.0002553512000000001,-0.00018878554,0.0011346589999999999,0.00044001719999999997,3.842,0,0
0.00055515564,5.512860000000002e-05,-0.0006817419999999999,0.0007398082000000001,0.0009782432,3.843,0,0
0.00069910184,-0.000138225,-0.000716341,0.00030444080000000006,0.0011713314,3.844,0,0
0.00087781204,-0.0002668964,-0.0008943026,-7.657460000000003e-05,0.0015582534,3.845,0,0
0.0009785038,-0.0003824834,-0.0015565786,-0.0003285996,0.0017324880000000001,3.846,0,0
0.0006774686000000001,-0.0002493258,-0.0013979090000000001,-0.00020315920000000003,0.000876152,3.847,0,0
0.0005997648,0.0002062618,-0.0007390354,1.1482000000000105e-06,0.0003170319999999999,3.848,0,0
0.00038789080000000006,0.0007277542,-0.0005911108,-8.319340000000002e-05,0.00021272119999999993,3.849,0,0
-0.00043329640000000003,0.0007816148,-0.00017685480000000003,1.5288600000000008e-05,-0.0005615588,3.85,0,0
-0.001076903,0.0014707082,0.0006379412,-0.00026085640000000004,-0.0012068068000000002,3.851,0,0
-0.0009777412,0.0023767186,0.0008907390000000001,-0.0008570424,-0.0010547946,3.852,0,0
-0.0009907416,0.0016108026000000001,0.0007840754000000001,-0.0009694372000000001,-0.0012090766,3.853,0,0
-0.0012273984,0.0006213706000000001,0.0012632134000000001,-0.0007564367999999999,-0.0017665898,3.854,0,0
-0.0008282164,0.0007670580000000003,0.0017379174,-0.0006140722,-0.001253533,3.855,0,0
-0.0005755503999999999,-7.2299999999998884e-06,0.0016523294,-0.0004885702000000001,-0.0004647970000000001,3.856,0,0
-0.000859479,-0.0011934518000000002,0.0014206076000000002,-0.0001780886,-8.039920000000006e-05,3.857,0,0
-0.0006219127999999999,-0.0007289758,0.0011938110000000001,-3.5183400000000006e-05,0.0008122028000000001,3.858,0,0
0.00023008400000000014,-0.0003885834,0.000400845,-0.00024011920000000002,0.0015653908000000001,3.859,0,0
0.0008102980000000001,-0.0006508034000000001,-0.000895433,-0.0005401958000000001,0.0016940380000000001,3.86,0,0
0.0013557680000000003,-0.0002756154,-0.001549595,-0.00045915,0.0016483920000000003,3.861,0,0
0.002133912,-0.00036572760000000003,-0.0018165726,-6.225559999999998e-05,0.0018083640000000002,3.862,0,0
0.0020074520000000003,-0.0011911636,-0.002029708,-0.00022060619999999997,0.0014846350000000002,3.863,0,0
0.00099612,-0.001429848,-0.0014491240000000002,-0.00045033979999999996,0.0007381290000000003,3.864,0,0
0.0005009356,-0.0013773220000000003,-0.0005681740000000002,-0.00013342579999999998,0.00020281100000000012,3.865,0,0
-9.260239999999993e-05,-0.0016367618000000003,-0.0002138542000000001,-0.0004939556,-0.000694091,3.866,0,0
-0.0013605744,-0.0009133558000000001,0.0001100458,-0.0012863436,-0.001661919,3.867,0,0
-0.0017620404000000002,0.0003679682,0.000570533,-0.0010709524,-0.00220302,3.868,0,0
-0.0015167944,0.0011162902,0.0007280870000000001,-0.0005551406,-0.0023022959999999997,3.869,0,0
-0.0014615722000000002,0.0017964002000000001,0.000681657,-0.000637509,-0.00232149,3.87,0,0
-0.0010868976,0.0020311542,0.0008295982,-0.00010138420000000003,-0.0018257494000000001,3.871,0,0
-0.0005675316,0.0017946042,0.0010570802,0.0007942958,-0.0010197854,3.872,0,0
-0.00034333560000000005,0.0017049582000000002,0.0011526362000000001,0.0009494102000000001,-0.00044090120000000007,3.873,0,0
-0.00016493360000000002,0.0017532682000000002,0.0008520642,0.0009975484000000001,0.0005176887999999999,3.874,0,0
0.00012192620000000001,0.0007258821999999999,0.0002034022,0.0012249756,0.0013762908,3.875,0,0
0.0007668356,-0.0008089839999999999,-0.0003472168000000001,0.0014337808000000002,0.0018949762,3.876,0,0
0.0014865556000000003,-0.0017289000000000002,-0.0006837790000000001,0.0014720088000000002,0.0021700882,3.877,0,0
0.0018411056000000002,-0.0026932460000000003,-0.0010848142,0.0016591588000000003,0.00238719,3.878,0,0
0.0022618216,-0.003441626,-0.0017331961999999999,0.0014500233600000002,0.002203906,3.879,0,0
0.002090668,-0.0030503634,-0.0016486042000000002,0.00085074656,0.001428352,3.88,0,0
0.001471853,-0.0017692038,-0.0011724514,0.0005827997600000001,0.0008809020000000001,3.881,0,0
0.001169307,-0.00048063779999999996,-0.0009041834000000001,7.248216000000003e-05,0.0005138686,3.882,0,0
0.00034386900000000006,0.0001484334000000001,-0.00017174539999999998,-0.00070582584,-0.00010959140000000006,3.883,0,0
-0.0007090410000000001,-0.00015056659999999986,0.0007849906,-0.0008763952,-0.0007110214,3.884,0,0
-0.001115939,0.0002496728000000002,0.0012655283999999998,-0.0004599338,-0.0008246073999999999,3.885,0,0
-0.0017217800000000002,0.0019978772000000004,0.0011973868,-0.00036232120000000004,-0.0013134134,3.886,0,0
-0.002272356,0.0048687972,0.0010490189999999998,-0.00026037140000000005,-0.002061708,3.887,0,0
-0.0019207252000000004,0.00810568,0.0007840950000000001,0.00018193080000000002,-0.0020842400000000002,3.888,0,0
-0.0014510920000000002,0.008907605800000001,0.000704393,0.0006475396000000001,-0.0019175336000000001,3.889,0,0
-0.0010421340000000001,0.0064024538,0.0008953932,0.0006054330000000001,-0.0016941074,3.89,0,0
-0.0004065964,0.0020876458,0.0008912292000000001,0.0002720776,-0.0008909194,3.891,0,0
0.0004271276,-0.003383546200000001,0.0006962212000000001,9.8235e-05,0.0002379366,3.892,0,0
0.0008679548,-0.0076166382,0.0002514776000000001,-0.00048564520000000006,0.0009544546000000001,3.893,0,0
0.000837308,-0.0078375178,-0.0003775324,-0.0011643072000000001,0.0015185922,3.894,0,0
0.0009816716,-0.005389173,-0.0010567444,-0.0014363460000000002,0.002099796,3.895,0,0
0.001160082,-0.002424771,-0.0013638776,-0.0015501244,0.002031924,3.896,0,0
0.0008330195999999999,-0.00025974660000000014,-0.0010971622,-0.001436584,0.00131396,3.897,0,0
0.00028828899999999995,0.0007862730000000001,-0.0008567150000000001,-0.0009350152,0.0007948056000000002,3.898,0,0
0.00012853659999999994,0.0010113236,-0.0007176960000000001,-0.0005137992000000001,0.0004237604000000001,3.899,0,0
-0.00022285500000000002,0.0009261122,-0.00011809,-0.0002840928,-0.0005733515999999999,3.9,0,0
-0.0009226490000000001,0.00011130819999999992,0.0006245840000000001,7.72098e-05,-0.0012509036,3.901,0,0
-0.0010871006000000001,-0.0011665422,0.0006798682000000001,0.0004172838,-0.0013452015999999998,3.902,0,0
-0.0007257052000000001,-0.0019406338,0.0004306726000000001,0.0006021830000000001,-0.0017469472,3.903,0,0
-0.0008614772000000001,-0.0025309066,0.0005603336000000001,0.0007617850000000001,-0.0019350376000000001,3.904,0,0
-0.0009317332,-0.0028835860000000005,0.0005099912000000001,0.0009565958000000001,-0.0013573108,3.905,0,0
-0.0005513066000000001,-0.0021883399999999996,2.035479999999999e-05,0.0009719394,-0.0006906588000000001,3.906,0,0
-0.0005214598,0.00011548000000000005,-0.00029456820000000006,0.0005939862000000001,-0.0001881554,3.907,0,0
-0.0002242145999999999,0.002380788,-0.0002735362,0.00034700748,0.0005365546000000001,3.908,0,0
0.0006218234,0.0039083,-0.0004175324,0.00023994168000000002,0.0010526522,3.909,0,0
0.0013482634,0.0046799,-0.000962136,-0.00019762752,0.0012171508,3.91,0,0
0.0017687708,0.0045609664,-0.0011798496,-0.00081197972,0.0010551896,3.911,0,0
0.00200268,0.0033140802000000006,-0.001137903,-0.0010592905200000001,0.0008354738,3.912,0,0
0.0016420612000000003,0.0012361462,-0.0010188886000000001,-0.0012408319999999999,0.0007100854000000001,3.913,0,0
0.000990077,4.504979999999993e-05,-0.0006727606,-0.0015887642,0.0002845622000000001,3.914,0,0
0.0005472610000000002,-0.0006537392,-0.00047148839999999997,-0.001159478,0.00011119739999999999,3.915,0,0
-1.0677199999999993e-05,-0.0020643516,-5.4950799999999996e-05,-0.000520754,3.79346e-05,3.916,0,0
-0.0006281352,-0.0033541854,0.0007975440000000001,-0.0004164864,-0.000507033,3.917,0,0
-0.0011449664,-0.0032027934000000004,0.0015473996000000003,-0.00028015600000000005,-0.0009727486,3.918,0,0
-0.0013196302,-0.0029511112000000003,0.0017828318000000002,9.3917e-05,-0.001084841,3.919,0,0
-0.0015754422000000003,-0.0026092812000000003,0.00208485,0.0003089888,-0.0014627236,3.92,0,0
-0.0016826640000000002,-0.0012504667999999998,0.0023288864,0.0006202528,-0.00143411,3.921,0,0
-0.0012702572000000002,0.0003306692,0.0018006658000000002,0.0012142432000000001,-0.000372796,3.922,0,0
-0.0008604412000000002,0.0013969272000000001,0.0008853398,0.001752775,0.00037403200000000005,3.923,0,0
-0.0005122172,0.0012526561800000001,0.0003921140000000001,0.0021419380000000003,0.0010700416,3.924,0,0
-8.330300000000001e-05,0.00039778318,6.382980000000006e-05,0.0023139560000000003,0.0021380616000000003,3.925,0,0
0.0005703330000000001,-9.846121999999987e-05,-0.0009986182,0.002297074,0.00250452,3.926,0,0
0.0007723822000000001,-0.0004921778199999999,-0.0015952276,0.0018418768000000002,0.002258192,3.927,0,0
0.0010066282000000001,-0.0010212358200000003,-0.0014207204,0.0012482513999999998,0.00222864,3.928,0,0
0.0014188882000000004,-0.0002769226000000003,-0.0016271686,0.0006727564000000001,0.0018072012000000003,3.929,0,0
0.0010679778000000002,0.0008294614000000001,-0.0016011251999999998,-0.00012008359999999996,0.0005252772000000001,3.93,0,0
0.0006190168000000001,0.0011630948000000002,-0.0008193282,-0.0007039552,-0.0003100108,3.931,0,0
0.00046111540000000003,0.001464957,-0.0003398482,-0.0008511556,-0.0007032732,3.932,0,0
1.2154000000000223e-06,0.0011172036000000002,-0.00018459359999999992,-0.0011892902,-0.0015689991999999998,3.933,0,0
-0.0008711766000000001,0.00019617200000000002,0.0006044824000000001,-0.0018031832,-0.0020868104,3.934,0,0
-0.0012652684,-5.240059999999999e-05,0.0014088128,-0.0019020611999999999,-0.0016842963999999998,3.935,0,0
-0.0014801134,6.856256e-05,0.0015765258000000001,-0.0019027404000000001,-0.0013881568,3.936,0,0
-0.0018261680000000002,-0.00036161704,0.0013800058,-0.0017807792,-0.0013820517999999999,3.937,0,0
-0.0018154100000000002,-0.00011463764000000002,0.0012448456,-0.0010345611999999999,-0.0006525678,3.938,0,0
-0.001606762,0.0009866399600000002,0.0006930978,-0.00030919119999999996,9.334819999999995e-05,3.939,0,0
-0.001049182,0.00210907656,-0.00010668920000000004,0.000292113,5.276020000000002e-05,3.94,0,0
-0.0002632219999999999,0.0027531940000000005,-0.00027551740000000005,0.0007157098,0.00041150260000000005,3.941,0,0
0.0003756260000000001,0.0021433240000000007,-0.00030825320000000005,0.0006388144,0.001148446,3.942,0,0
0.0008937860000000001,0.0009333700000000002,-0.0006658328000000002,0.0004042814,0.0010101688000000001,3.943,0,0
0.00169077,-0.00029131999999999997,-0.001104449,0.0005575494,0.0002855068,3.944,0,0
0.00226938,-0.0015901652,-0.0015117260000000001,0.00048688780000000003,0.0005586431999999999,3.945,0,0
0.0022198060000000004,-0.0024920372,-0.0018910998,-1.6930199999999976e-05,0.0009215432,3.946,0,0
0.0019001216,-0.001792463,-0.001732524,-0.00025642439999999997,0.0001261972,3.947,0,0
0.00161159218,-0.0008081313999999999,-0.001139932,-0.0004023484,-0.00024760160000000006,3.948,0,0
0.00139162418,-0.0009590574000000001,-0.0005178252,-0.0006169563999999999,4.365139999999994e-05,3.949,0,0
0.0006722673799999999,-0.0009666742000000001,0.00021352380000000005,-0.0009760449999999999,-0.0004624570000000001,3.95,0,0
-5.505062000000005e-05,-0.0002531202,0.0010077298,-0.000986295,-0.0014145450000000001,3.951,0,0
-0.00033326422000000004,0.0002866276,0.0012552178,-0.00046587379999999995,-0.0014145710000000003,3.952,0,0
-0.0007534788,0.00015819420000000002,0.0009224528000000001,-0.00014103879999999996,-0.0013539150000000002,3.953,0,0
-0.0012857368,0.0004361965999999999,0.00108699,0.00012214719999999998,-0.0016897659999999999,3.954,0,0
-0.0011472476,0.0005693597999999999,0.001189525,0.0007852632000000001,-0.0011903574,3.955,0,0
-0.000755364,6.692439999999996e-05,0.0006395252000000001,0.0012004138000000003,-0.00048184939999999993,3.956,0,0
-0.000565252,-0.00041161980000000006,0.0004693574,0.0011197307999999998,-0.00033801739999999995,3.957,0,0
2.8798000000000018e-05,-0.000510262,0.0003855364000000001,0.0012343828,0.0004617406000000001,3.958,0,0
0.0007030560000000001,-0.00036645840000000004,-0.00026816959999999995,0.0010197706000000001,0.0015231666,3.959,0,0
0.0010566376,-0.0005196498,-0.0007361078,0.0006802011999999999,0.0014957508000000002,3.96,0,0
0.001239616,-0.0005543228,-0.000854512,0.0008166266,0.0015485748,3.961,0,0
0.00172696,-0.0003392642,-0.0012880182,0.00037015240000000003,0.0022013408,3.962,0,0
0.0018738780000000003,3.2514199999999994e-05,-0.0016455542,-0.00039400560000000005,0.0018649508,3.963,0,0
0.0012930930000000004,0.0001495334,-0.0012340930000000001,-0.00044422140000000004,0.0009701428000000001,3.964,0,0
0.0006288830000000002,0.00022812720000000002,-0.0007947128000000002,-0.0005753584000000001,0.0008558326,3.965,0,0
-0.00023271299999999995,0.0005752416,-0.0009072468000000002,-0.0009771682000000001,0.0003221222,3.966,0,0
-0.001298141,0.0008754332000000001,-0.0004320602,-0.0005482336000000001,-0.0009391658000000001,3.967,0,0
-0.002093693,0.0010069188000000001,0.0006170658,0.00016630839999999997,-0.0017295297999999999,3.968,0,0
-0.0021395252,0.0011435136,0.0007357436,0.0004688604,-0.0017820918,3.969,0,0
-0.0020025958,0.0010956928000000002,0.0009519496000000001,0.0006680888,-0.0020499684000000002,3.97,0,0
-0.0018706578000000002,-0.00022580920000000006,0.0018438436000000002,0.000904707,-0.002308124,3.971,0,0
-0.0013908850000000001,-0.0013542452,0.0018029760000000002,0.0009774396,-0.0017279610000000003,3.972,0,0
-0.0006958390000000001,-0.0009322692000000003,0.0012687154,0.0004680524000000001,-0.0014425170000000001,3.973,0,0
-0.00031775780000000006,0.00023273679999999972,0.0011439382000000002,0.00012420699999999998,-0.0012333216,3.974,0,0
7.30378e-05,0.0016481459999999996,0.0005964348,0.000340061,-0.0002583456,3.975,0,0
0.0007664678,0.002243164,-0.0003344872,0.0004302326,0.0008521064000000002,3.976,0,0
0.0009451896000000001,0.0016039059999999998,-0.0006877382000000001,0.00038068260000000007,0.0016662174000000001,3.977,0,0
0.0008031005999999999,0.00016526599999999985,-0.0010418516,0.0007143494,0.0024024814000000003,3.978,0,0
0.0008227425999999999,-0.0017742220000000002,-0.0016340974000000003,0.00076194444,0.00282489,3.979,0,0
0.0006701486,-0.0031111886,-0.0014555403999999999,-4.796156000000005e-05,0.0022201038,3.98,0,0
0.00021749659999999998,-0.0024587924,-0.0008157984000000001,-0.0007690615600000001,0.0011307598000000001,3.981,0,0
0.00018180300000000005,-0.0008076884000000001,-0.0006739224000000002,-0.0010802547600000001,0.00046596500000000004,3.982,0,0
2.8628200000000025e-05,0.0002367696,-0.00013073580000000007,-0.0014646403600000002,-4.057820000000002e-05,3.983,0,0
-0.00048583979999999996,0.0011486476,0.0009175022000000001,-0.0015935422000000002,-0.0008086602,3.984,0,0
-0.0006720947999999999,0.0018561362,0.0010977286000000003,-0.0010042938000000001,-0.001234812,3.985,0,0
-0.0007570687999999999,0.001963706,0.0009765304000000001,-0.0006469194000000001,-0.001112806,3.986,0,0
-0.0010788918,0.000976616,0.0013657584,-0.0007827454,-0.0012530286,3.987,0,0
-0.0012084180000000002,-0.0006982440000000002,0.0015451638,-0.0008453154,-0.0012874854,3.988,0,0
-0.0008838252000000002,-0.0017001300000000002,0.0009261376,-0.000849536,-0.0008939260000000001,3.989,0,0
-0.0006414172000000001,-0.002685136,0.00045697040000000015,-0.0010186038,-0.0005284136,3.99,0,0
-0.0001850780000000001,-0.003277892,8.821299999999996e-05,-0.0006989014,1.5094399999999975e-05,3.991,0,0
0.000844062,-0.0020809519999999996,-0.000990379,-3.129740000000004e-05,0.0006953318,3.992,0,0
0.00168376,-5.699399999999999e-05,-0.001573429,0.00010437119999999995,0.0013860738,3.993,0,0
0.0017719418,0.000976808,-0.0013076078,6.495799999999992e-05,0.0018320684000000002,3.994,0,0
0.0018652620000000001,0.0016106660000000002,-0.0014723326,0.00016349219999999996,0.0020008188,3.995,0,0
0.0019872908,0.0020249464000000003,-0.001521139,0.0002585493999999999,0.0020201808,3.996,0,0
0.0011196506000000002,0.0011737903999999998,-0.0006055652,-5.069280000000011e-05,0.0012567808,3.997,0,0
0.00021164859999999992,0.0005452074,-0.00022257939999999999,-5.412080000000006e-05,0.00020834279999999998,3.998,0,0
0.0001580858,0.00016939420000000003,-0.0002974248000000001,0.00020079599999999994,-0.00022479140000000004,3.999,0,0
-0.0002599524,-0.0007219978,0.00018064520000000002,0.0001644332,-0.0007578182,4.0,0,0
-0.0009299144,-0.0012552802000000002,0.0006275512,8.700720000000002e-05,-0.0016387341999999998,4.001,0,0
-0.0012877702,-0.0014195942000000002,0.0008460294,0.00013150054,-0.0018089042000000001,4.002,0,0
-0.0017026202,-0.0008731952000000002,0.0011332296000000001,0.00022449994000000006,-0.0017342302000000003,4.003,0,0
-0.002039922,0.0003957899999999999,0.0015441080000000002,0.00024167134000000005,-0.002162036,4.004,0,0
-0.0019439164,0.001250506,0.001685386,0.00038647514000000004,-0.0018798999999999999,4.005,0,0
-0.0017325494,0.0013905340000000001,0.0015235768000000003,0.00025310514000000003,-0.0012250644,4.006,0,0
-0.0012897152,0.0012113319999999999,0.0012091708000000004,-2.3311999999999996e-05,-0.0008760239400000001,4.007,0,0
-7.152320000000005e-05,0.000285752,0.0006444268,-2.7459999999999564e-06,-0.00021939194000000008,4.008,0,0
0.0010346088,-0.0003836740000000001,-0.0001060612,0.0002674058,0.00051218806,4.009,0,0
0.0018110832000000003,0.00039997799999999984,-0.0009061772,0.0002551912,0.00104412806,4.01,0,0
0.0027848742,0.0009133219999999998,-0.0017898880000000001,0.00012697099999999997,0.00132626046,4.011,0,0
0.0034703760000000003,0.0009635939999999999,-0.0022614040000000003,0.000623275,0.0015375940000000002,4.012,0,0
0.0029600904000000004,0.0009697619999999999,-0.0020847940000000005,0.000950271,0.0017023600000000002,4.013,0,0
0.0016903323999999998,0.00043987979999999996,-0.0016637206000000002,0.00048326500000000003,0.0014665844000000003,4.014,0,0
0.0005994064,-1.0038199999999934e-05,-0.0010987120000000002,7.795180000000004e-05,0.0008433744000000002,4.015,0,0
-0.0004618856000000001,-0.00011892699999999993,-0.000383711,-7.697799999999993e-05,0.0001398624,4.016,0,0
-0.0016192816000000002,-0.00018585699999999988,0.000505461,-0.00039002859999999993,-0.0005731435999999999,4.017,0,0
-0.0021854260000000003,-0.0007776469999999999,0.001231819,-0.0007248366,-0.0012178016,4.018,0,0
-0.001966736,-0.0016833648,0.0017551896,-0.0007878258000000001,-0.0014611159999999997,4.019,0,0
-0.001767322,-0.0024461242,0.002089171,-0.00033560580000000005,-0.00148909,4.02,0,0
-0.001660403,-0.0023595074,0.0021378002,0.0002272102,-0.001475352,4.021,0,0
-0.0011850294,-0.0011650894000000001,0.0016435744,0.0004180354,-0.0009617210000000002,4.022,0,0
-0.0004904596,6.865059999999992e-05,0.0007039283999999999,0.00043090999999999995,-0.000290683,4.023,1,1
-0.00013454180000000004,0.0007660062,-0.00011498980000000001,0.0004695734,0.00048563299999999996,4.024,0,0
0.00024365200000000002,0.0009149141999999999,-0.0007291798,0.00016588239999999996,0.001538045,4.025,0,0
0.0005915766000000001,0.0012406182,-0.000979374,-8.64974e-05,0.002486773,4.026,0,0
0.0006715154,0.0017888682000000002,-0.0010418846,7.518399999999998e-05,0.0031027100000000003,4.027,0,0
0.0010713296,0.0023779522000000005,-0.0012943286,9.098100000000002e-05,0.00323119,4.028,0,0
0.0016538138000000001,0.0027914586000000003,-0.0017648684,0.00012848040000000002,0.0030540600000000004,4.029,0,0
0.0018113880000000001,0.0023273020000000007,-0.0016793647999999999,0.000222959,0.0022661576000000006,4.03,0,0
0.0013462323999999999,0.0014190799999999999,-0.0010545867999999998,-5.387479999999998e-05,0.0012905036000000001,4.031,0,0
0.0007971599999999999,0.0005868707999999999,-0.0006320503999999997,-0.0003724468,0.00038405559999999994,4.032,0,0
3.3535999999999945e-05,-0.0004574932000000001,9.833960000000006e-05,-0.0003615364,-0.0009039344,4.033,0,0
-0.000913088,-0.0018452112,0.0011602456,-0.00014490819999999998,-0.0020970044,4.034,0,0
-0.001371885,-0.0025530972,0.0014818626,0.0002297102,-0.0025018160000000005,4.035,0,0
-0.001123441,-0.0026564732000000004,0.0009497886000000001,0.0005837704000000001,-0.002728082,4.036,0,0
-0.0006521586000000001,-0.002965384,0.0008815698,0.00064647318,-0.00320125,4.037,0,0
-0.0006864286,-0.0027670232,0.0009368218000000001,0.0006785503800000001,-0.0026907974,4.038,0,0
-0.00064178,-0.0015625216000000003,0.00047442702,0.00064726938,-0.001743651,4.039,0,0
-0.00041135000000000005,0.0007684744000000001,0.00054772842,0.00011772858000000001,-0.0014177859999999999,4.04,0,0
-0.00040549000000000005,0.0025768944,0.0008628694200000001,-0.00012779822000000003,-0.0005915219999999999,4.041,0,0
-0.0001732248,0.0022810004,0.00037788422,-0.00010507040000000002,0.000742316,4.042,0,0
0.0002664658,0.0015629215999999999,-0.0004163477800000001,-0.00019722940000000002,0.0013866934,4.043,0,0
0.0006680312,0.0004257120000000002,-0.0009222030000000001,-0.000160306,0.001759271,4.044,0,0
0.0009093902,-0.0016452320000000002,-0.0013859190000000002,-0.00023660520000000002,0.0021973820000000003,4.045,0,0
0.0010183174,-0.003069778,-0.0018957560000000002,-0.000444411,0.0020675408,4.046,0,0
0.0007945118000000001,-0.002864908,-0.0019811360000000005,-0.0005379312,0.0012274808,4.047,0,0
0.0004513140000000001,-0.001171662,-0.001289202,-0.000567722,0.0003617048000000001,4.048,0,0
0.00019201820000000003,0.001299016,-0.0009081108,-0.0008748652,-0.00022638619999999998,4.049,0,0
-0.0004397518,0.0032543700000000004,-0.0007648198000000001,-0.0008620752000000001,-0.0008260082,4.05,0,0
-0.0009324730000000001,0.0033264560000000006,-0.00010126580000000002,-0.0008688252,-0.0014941590000000001,4.051,0,0
-0.001134075,0.00209784,0.0005280762,-0.00081371222,-0.001395859,4.052,0,0
-0.0012623198,0.0001169760000000004,0.0006740282000000001,-0.0005584958200000001,-0.0010647788000000002,4.053,0,0
-0.0016669620000000001,-0.00179721,0.001130759,-0.0005808422200000001,-0.0011380556,4.054,0,0
-0.0015217224000000002,-0.0028432056,0.00153997,-0.00017885822000000004,-0.0005243076000000001,4.055,0,0
-0.0009130344000000002,-0.0026215576000000003,0.00130777472,0.00032663578000000006,2.6368399999999966e-05,4.056,0,0
-0.0009369544000000001,-0.0011096356,0.0014259927199999998,0.00030470240000000004,-1.8392000000000484e-06,4.057,0,0
-0.0006436090000000002,-6.095000000000015e-06,0.0009939343200000002,0.00013715860000000003,-8.174440000000008e-05,4.058,0,0
0.00011096900000000004,0.000436065,0.0008173749200000001,0.00012982280000000003,0.0008157193999999998,4.059,0,0
0.0006360414000000001,0.00039080120000000004,0.0007279509200000001,-0.0002496232,0.00022433599999999997,4.06,0,0
0.000545462,0.0006635952,0.0010447942,-0.0003821756,-0.0032187640000000007,4.061,0,0
0.0009567398,0.0011356871999999999,0.0029545422,-3.2307600000000016e-05,-0.005361178400000001,4.062,0,0
0.0006425264,0.0008081706,0.0044986186000000004,0.0008078184,-0.0057400694000000006,4.063,0,0
-0.0007266796,0.0006476381999999999,0.004555552,0.0021785096,-0.005777235400000001,4.064,0,0
-0.0006388875999999999,0.000435896,0.0036880899999999998,0.0032077436,-0.003142926000000001,4.065,0,0
0.0004516918,5.893120000000001e-05,0.001524602,0.004054238,0.0031290339999999997,4.066,0,0
0.0022289420000000002,0.0003961252,-0.003416618,0.004457392,0.008849814000000001,4.067,0,0
0.005343792000000001,0.0017623031999999999,-0.007802044000000001,0.0036561946,0.01256713,4.068,0,0
0.008570762,0.0029608296,-0.010316916,0.0019093906,0.0140311,4.069,0,0
0.009601894000000001,0.0032006246,-0.011371696,-7.961939999999988e-05,0.012685424,4.07,0,0
0.00914766,0.0025357794000000003,-0.010296174,-0.0023035354,0.009934773599999999,4.071,0,0
0.006764178000000001,0.0011089974000000002,-0.007654954,-0.0041331094,0.0053847116,4.072,0,0
0.0020635880000000007,-0.00037287860000000014,-0.0036928979999999996,-0.0052848059999999995,-0.0001489884000000002,4.073,0,0
-0.002465872,-0.0021143646000000003,0.00033364599999999994,-0.005695594,-0.0054083484000000005,4.074,0,0
-0.007054266,-0.0033843800000000006,0.004263172,-0.005152144,-0.0102917924,4.075,0,0
-0.011548526,-0.0036387340000000007,0.00760894,-0.00416948,-0.014004422,4.076,0,0
-0.014184630000000002,-0.0035101360000000005,0.0100294,-0.0028152419999999995,-0.015800500000000002,4.077,0,0
-0.014497520000000002,-0.0037307540000000006,0.010979164000000001,-0.001305572,-0.015123887999999999,4.078,0,0
-0.013243866000000002,-0.0035613440000000006,0.010586040000000001,0.000274128,-0.012217875,4.079,0,0
-0.01010314676,-0.0022547808000000003,0.009109966,0.00202061,-0.007848065,4.08,0,0
-0.005210450760000001,-0.0009231488000000001,0.006165466000000001,0.003768018,-0.0023531610000000007,4.081,0,0
-0.00040606275999999913,0.00034935719999999997,0.0025370499999999995,0.004959872000000001,0.003266159,4.082,0,0
0.00402213724,0.0019302132000000001,-0.0011991239999999998,0.005661028,0.007991687,4.083,0,0
0.00810784324,0.0032581952000000003,-0.004908064,0.005995508000000001,0.011704954,4.084,0,0
0.011009764,0.003643284,-0.008156990000000001,0.005204368,0.014067884000000003,4.085,0,0
0.012407548000000001,0.003403674,-0.009967410000000001,0.003123346,0.014038640000000002,4.086,0,0
0.012457406,0.002836462,-0.010211868,0.0007330580000000001,0.011971398000000001,4.087,0,0
0.010904314,0.0019561956,-0.009024354,-0.0014808220000000001,0.008672214000000001,4.088,0,0
0.007473184000000001,0.0010498464,-0.006589088,-0.0037422,0.004027252,4.089,0,0
0.0032462800000000007,0.0005473504000000001,-0.003242416,-0.005061336000000001,-0.001044368,4.09,0,0
-0.0011271160000000003,1.2440000000002883e-07,0.00028252400000000014,-0.005155666000000001,-0.005378828,4.091,0,0
-0.005528542,-0.0007425596,0.0033575560000000003,-0.004667348,-0.008766806,4.092,0,0
-0.00881597,-0.0018271192,0.006018036000000001,-0.0035167266000000006,-0.011547802,4.093,0,0
-0.01046704,-0.003574196,0.00796741,-0.0019595086,-0.01287292,4.094,0,0
-0.010812740000000001,-0.004321514,0.008800606,-0.0006588206,-0.011754722,4.095,0,0
-0.009788684000000002,-0.003664954,0.00848861,0.0005510334000000001,-0.009592956,4.096,0,0
-0.0069581082,-0.0021947900000000003,0.0070421584,0.0018578774,-0.006284536000000001,4.097,0,0
-0.0034836402,0.0005073420000000005,0.0042571244,0.002802722,-0.001118356,4.098,0,0
-8.77142000000003e-05,0.0037154240000000006,0.0009469703999999996,0.0034257260000000005,0.0036086440000000003,4.099,0,0
0.0037263898000000004,0.005916246,-0.0021291436,0.003777906,0.007052826,4.1,0,0
0.007045469800000001,0.006437658,-0.0049823196,0.0034803182,0.01028266,4.101,0,0
0.008964914000000001,0.004393760000000001,-0.007328906000000001,0.0023706582,0.01190716,4.102,0,0
0.009619406,0.00125426,-0.008153218,0.0008858221999999999,0.010702092000000002,4.103,0,0
0.009239986,-0.0008030960000000001,-0.007664084,-0.0006988038000000002,0.00893281,4.104,0,0
0.0075157819999999995,-0.0027047700000000004,-0.006891272,-0.0022590178,0.0064647026,4.105,0,0
0.004359738,-0.004002806000000001,-0.004847368,-0.0033033840000000004,0.0021627066000000006,4.106,0,0
0.000859322,-0.0035261940000000007,-0.001562618,-0.0036483600000000002,-0.0018916394,4.107,0,0
-0.002309542,-0.0026293180000000003,0.0013240860000000004,-0.003768118,-0.0049893713999999995,4.108,0,0
-0.005491248000000001,-0.0020206686000000004,0.0039055100000000005,-0.003573872,-0.007964969399999999,4.109,0,0
-0.007990084,-0.0013790232000000001,0.006478020000000001,-0.0028222217999999996,-0.010092142,4.11,0,0
-0.008783538,-0.0007706852000000001,0.007910754000000002,-0.0014822758,-0.010052366,4.111,0,0
-0.008262302,0.0002948667999999999,0.008030418000000001,0.0001560722,-0.008566854,4.112,0,0
-0.007054066,0.0010117708000000002,0.007226436,0.0015370262,-0.0064616884,4.113,0,0
-0.0045004400000000005,0.00029542939999999986,0.0055360850000000005,0.0031289842,-0.0032044184,4.114,0,0
-0.0012979539999999998,-0.0009989600000000001,0.003145005,0.004341604000000001,0.0010364216,4.115,0,0
0.001741386,-0.0014151258,0.00041755900000000007,0.004506820000000001,0.0045255816,4.116,0,0
0.004557902000000001,-0.0009897938000000004,-0.002254755,0.004281170000000001,0.0069687356,4.117,0,0
0.006696792,1.3004200000000122e-05,-0.0048072850000000006,0.003738284,0.00923139,4.118,0,0
0.008222498,0.0019092982,-0.006678856,0.0021489120000000002,0.009849646,4.119,0,0
0.008241336,0.0038767002,-0.007450252,0.00021695599999999992,0.008333708,4.12,0,0
0.0065881966,0.004954946000000001,-0.007243248000000001,-0.0011785660000000002,0.0063833184,4.121,0,0
0.0040102386,0.004470442,-0.0061168740000000004,-0.0029147100000000005,0.0037537164,4.122,0,0
0.0012685286,0.002363818,-0.0037791579999999995,-0.00443319,0.0002835584000000001,4.123,0,0
-0.0014068594,4.146999999999983e-05,-0.0009866540000000002,-0.004850220000000001,-0.0026806056,4.124,0,0
-0.0037196714000000005,-0.0015611800000000003,0.0015666060000000001,-0.004757118000000001,-0.0053575276,4.125,0,0
-0.005123768000000001,-0.0033762320000000003,0.0042040540000000005,-0.004579056,-0.007545378,4.126,0,0
-0.005913876,-0.004774414,0.005993740000000001,-0.0036446599800000006,-0.008476052,4.127,0,0
-0.0063261640000000004,-0.004476728,0.006555092000000001,-0.0019369119800000001,-0.00820976,4.128,0,0
-0.006404776,-0.0035138120000000003,0.0059965140000000005,-0.00023934198000000022,-0.0069708240000000005,4.129,0,0
-0.005622112,-0.0027098156,0.0045330878,0.00163639202,-0.004596116,4.13,0,0
-0.0037322680000000004,-0.0017620917000000002,0.0026211732,0.0032636260200000003,-0.0016198480000000006,4.131,0,0
-0.001181384,-0.0004371057000000002,0.0006585052,0.004041388,0.0011466100000000002,4.132,0,0
0.0019569160000000004,0.0009862683,-0.0009700628000000001,0.004306014,0.003827044,4.133,0,0
0.005069344,0.0019012583000000002,-0.0025453288000000006,0.00396324,0.006039112000000001,4.134,0,0
0.0071006,0.0024944559000000003,-0.0041146166,0.0030133094000000006,0.0074358340000000005,4.135,0,0
0.007702901999999999,0.0031449380000000003,-0.005430326,0.0018478928000000001,0.007598594,4.136,0,0
0.007394288000000001,0.0031906499999999997,-0.0057428060000000005,0.0005447248000000003,0.006790616,4.137,0,0
0.00629052,0.00277998,-0.005320798,-0.0007013092,0.005379412,4.138,0,0
0.003886360000000001,0.0022550498,-0.00419838,-0.0019384112000000002,0.003032528,4.139,0,0
0.0012033240000000006,0.0011147658000000003,-0.002073088,-0.0027414746,0.00010539599999999957,4.14,0,0
-0.0011255939999999997,-0.0004144302000000001,7.979000000000016e-05,-0.002829186,-0.0025438760000000005,4.141,0,0
-0.0034748,-0.0013621302,0.0018161420000000002,-0.0025498860000000003,-0.004922360000000001,4.142,0,0
-0.005671456,-0.0017002886000000003,0.003248776,-0.001623328,-0.006874212000000001,4.143,0,0
-0.0068423220000000005,-0.0021395044,0.00426052,-0.0003796800000000001,-0.007528674000000001,4.144,0,0
-0.006454894000000001,-0.0022162844000000004,0.004596944,0.000695478,-0.007101512000000001,4.145,0,0
-0.005587312,-0.0013734504000000002,0.004551106,0.0015363700000000002,-0.0057040888000000015,4.146,0,0
-0.004328974000000001,8.991600000000065e-06,0.003940368,0.002101472,-0.0031513648000000005,4.147,0,0
-0.0020432160000000005,0.0017001700000000004,0.002418116,0.0024390120000000004,-0.0002957648000000003,4.148,0,0
0.0003132399999999998,0.003298304,0.000570496,0.00276682,0.0019762772,4.149,0,0
0.002064378,0.0030858100000000005,-0.0009255240000000002,0.002736436,0.0042549452000000005,4.15,0,0
0.0037950280000000006,0.0014055200000000002,-0.0024084420000000002,0.0023031262,0.006238198,4.151,0,0
0.00524579,-5.55200000000002e-05,-0.003922254,0.0017434862000000003,0.006768268000000001,4.152,0,0
0.005661320000000001,-0.0018715998000000003,-0.004391896,0.0004297661999999999,0.006074820000000001,4.153,0,0
0.0052764380000000005,-0.0032390208,-0.0040295800000000005,-0.0009580998000000002,0.004920233280000001,4.154,0,0
0.0042670372000000005,-0.0024768348,-0.0035602760000000002,-0.0018902738000000003,0.00300232928,4.155,0,0
0.0024742352000000005,-0.0005406028,-0.0023563140000000004,-0.00250306,0.00030473328000000025,4.156,0,0
0.00037312520000000004,0.0009337832000000001,-0.00045590400000000025,-0.0023036122,-0.00192224272,4.157,0,0
-0.0017144168000000001,0.001779601,0.00079717,-0.0014057022000000003,-0.0035836867200000006,4.158,0,0
-0.0034606688000000004,0.002046272,0.0017049,-0.0006441086000000001,-0.005047572,4.159,0,0
-0.004261226,0.002843126,0.0029379340000000006,-0.00012456640000000003,-0.006179092000000001,4.16,0,0
-0.004276568,0.003294612,0.0033621500000000004,0.00038307019999999996,-0.006229002000000001,4.161,0,0
-0.0039421939999999996,0.0008242060000000001,0.0027269442000000007,0.0005645466,-0.005716352000000001,4.162,0,0
-0.003217666,-0.00202735,0.0025288202000000003,0.0007667366000000001,-0.005000546000000001,4.163,0,0
-0.0021661408000000003,-0.003217564,0.0025312422000000005,0.0013809770000000002,-0.002876086,4.164,0,0
-0.0013964258,-0.0045719820000000005,0.0012905782000000002,0.0017918748000000002,-0.00033582399999999987,4.165,0,0
-0.0001823298,-0.005680572,0.00012125619999999994,0.0017374684000000002,0.0015194080000000003,4.166,0,0
0.0015678842000000001,-0.0040341746,-0.00046636800000000005,0.0016554476000000002,0.0035920360000000003,4.167,0,0
0.0027526562,-0.0009965905999999999,-0.001630374,0.001068275,0.005403850000000001,4.168,0,0
0.003494117,0.0006267414000000002,-0.0025311,0.000122091,0.005697344000000001,4.169,0,0
0.00404603,0.0012470472000000003,-0.002655842,-0.0004312966,0.0052640479999999995,4.17,0,0
0.0038903220000000007,0.0015318452000000003,-0.0027694060000000003,-0.0008601008000000001,0.004404608,4.171,0,0
0.0024724660000000004,0.0014118524000000003,-0.002500396,-0.0014397742,0.0027622420000000003,4.172,0,0
0.000899696,0.0008278984,-0.00130691,-0.0018725696000000003,0.000685144,4.173,0,0
-0.00018534599999999997,0.0006127584000000001,-0.00023365400000000002,-0.0022897536000000005,-0.0011595620000000003,4.174,0,0
-0.0014808680000000002,0.0009804846,0.0006881200000000001,-0.0028814080000000002,-0.0023451480000000005,4.175,0,0
-0.0030485560000000004,0.0018769766000000002,0.0020854420000000003,-0.002992588,-0.0032222920000000007,4.176,0,0
-0.0037316500000000004,0.0030277360000000005,0.003179166,-0.0028194440000000004,-0.0033693540000000006,4.177,0,0
-0.0036519580000000003,0.0027343084000000005,0.0033024860000000003,-0.0024273816000000004,-0.0026997008000000005,4.178,0,0
-0.0036822760000000004,0.0014610704000000002,0.0031394879999999997,-0.0015249376,-0.0020465928,4.179,0,0
-0.003226198,0.0005278723999999999,0.0029618440000000004,-0.0004859676000000001,-0.0010703848000000002,4.18,0,0
-0.001962928,-0.00026700260000000017,0.0018283600000000002,0.00046512439999999995,0.0005126592,4.181,0,0
-0.00021987000000000005,-0.0014366560000000001,0.000358356,0.0011892624,0.0019885632,4.182,0,0
0.001269732,-0.0015657758,-0.0005779419999999999,0.0014571884,0.0033819180000000003,4.183,0,0
0.002438182,-0.0005500928000000001,-0.001801304,0.0012421686,0.005005580000000001,4.184,0,0
0.0034195840000000003,-0.0003086968,-0.0031294020000000003,0.0009320502000000001,0.00586102,4.185,0,0
0.003938022,-0.00044945740000000003,-0.0034657000000000004,0.00017576219999999995,0.005369148,4.186,0,0
0.003719538,-0.000749972,-0.0030829380000000003,-0.0005614278,0.004431343999999999,4.187,0,0
0.003107934,-0.0014811366000000003,-0.0026733150000000003,-0.0008770342,0.003393658000000001,4.188,0,0
0.0022331998000000002,-0.0018897216000000002,-0.0019746226000000003,-0.0013176163999999999,0.0015548700000000003,4.189,0,0
0.0010681758,-0.0014626554000000001,-0.0008694268000000001,-0.0014253904,-0.000300108,4.19,0,0
-5.328020000000018e-05,-0.0009517218000000003,-0.00025932719999999997,-0.0014500164,-0.001093256,4.191,0,0
-0.0011728922,-0.0005734278,3.8501199999999976e-05,-0.0016066304,-0.002116728,4.192,0,0
-0.0023743742000000003,1.670939999999998e-05,0.0007067461999999999,-0.0013463354000000003,-0.003383104,4.193,0,0
-0.003063466,0.0005506114000000001,0.0013140898,-0.0006734134000000002,-0.00369083,4.194,0,0
-0.002934342,0.0009087752000000001,0.0017542299999999999,5.594499999999995e-05,-0.003476082,4.195,0,0
-0.003076734,0.0009493512,0.0024806404000000002,0.000899803,-0.003393774,4.196,0,0
-0.0027402264,0.0006677012000000001,0.0030224580000000004,0.001911257,-0.00262627,4.197,0,0
-0.0013335204,0.0006431888000000001,0.0024242674000000005,0.0028089540000000002,-0.0013409479999999998,4.198,0,0
6.888559999999996e-05,0.0007053668000000001,0.0013848034000000003,0.0033437760000000006,-0.0006430302,4.199,0,0
0.0011799296000000001,0.0007314468000000001,0.00037379540000000004,0.0034014460000000007,-3.105719999999996e-05,4.2,0,0
0.0025567576,0.0016035728,-0.0009283106,0.0033156600000000007,0.0007698708,4.201,0,0
0.0035041060000000003,0.0023760748,-0.0019698646,0.0030289400000000004,0.0008727014,4.202,0,0
0.0031843672000000005,0.001956462,-0.002098242,0.0022851118,0.0002803114,4.203,0,0
0.0028225418000000003,0.001401528,-0.0015654632599999998,0.0013587154,0.00045961059999999993,4.204,0,0
0.0022624438000000005,0.0009321270000000003,-0.0011875356600000002,0.00035358540000000004,0.0005566556,4.205,0,0
0.0010873698,-0.0004548534,-0.0008020858599999999,-0.00041263059999999997,-0.00039758639999999993,4.206,0,0
-0.00012005420000000004,-0.0016783714,-7.715785999999999e-05,-0.0009258646,-0.001171293,4.207,0,0
-0.0007134894,-0.0018354474,0.0004872601400000001,-0.0012545534,-0.0017088770000000001,4.208,0,0
-0.0014880420000000002,-0.0018647334,0.0007370194000000001,-0.0010006598000000002,-0.0028436340000000003,4.209,0,0
-0.0026490840000000003,-0.0021637884,0.0011636458,-0.0005745498000000001,-0.00366727,4.21,0,0
-0.0026074040000000002,-0.00202137452,0.0016054200000000002,-0.0001435354,-0.00347875,4.211,0,0
-0.0022809602,-0.00114129152,0.0015480720000000002,0.0004727626000000001,-0.003196758,4.212,0,0
-0.0022637502,5.6564800000000214e-06,0.0011734280000000002,0.0008302596000000002,-0.0023520128,4.213,0,0
-0.0015845110000000003,0.0009131284800000001,0.0007443626000000001,0.0008230808000000001,-0.0010442028,4.214,0,0
-0.00032087099999999997,0.0008470644799999998,0.00022362380000000003,0.0008889620000000001,-0.00010323479999999996,4.215,0,0
0.00040646900000000007,0.000169221,-0.0002925832,0.0007218036,0.0006421132000000001,4.216,0,0
0.0008787372000000002,-9.355240000000008e-05,-0.0005787228,0.00038721359999999995,0.0014536792,4.217,0,0
0.0018132332,-0.00032391700000000006,-0.0010045108,0.0002768791999999999,0.00208655,4.218,0,0
0.0020896020000000003,-0.0006467770000000002,-0.0016377334000000003,-0.0001231212,0.00228623,4.219,0,0
0.0016516014000000003,-9.331500000000006e-05,-0.0018075346000000002,-0.0006760524,0.0020819382000000003,4.22,0,0
0.0013904154,0.0006263872000000001,-0.0015463878000000003,-0.0009009803999999999,0.0017885954000000004,4.221,0,0
0.0010661639999999999,0.0006563222,-0.0014505434000000002,-0.0012591984000000001,0.0014678454,4.222,0,0
-8.715200000000006e-05,0.00036125440000000006,-0.0010999722000000001,-0.001717186,0.0006297150000000001,4.223,0,0
-0.001054924,-0.00020491760000000003,-0.0001607356,-0.0014250624,5.350600000000023e-06,4.224,0,0
-0.0012130994,-0.0009479676000000001,0.0005469844000000001,-0.0008849982000000001,-0.0004710296,4.225,0,0
-0.0016084924,-0.0009601718000000002,0.0008661266,-0.0007599252000000001,-0.0010123968,4.226,0,0
-0.0018259254,-6.529240000000003e-05,0.0013369518000000001,-0.0006227272000000001,-0.0012697974,4.227,0,0
-0.0014804994,0.0012569260000000002,0.0015123146,-0.00023582579999999997,-0.001102819,4.228,0,0
-0.0012386673999999999,0.0022480520000000004,0.0011526079999999998,-0.00044985900000000004,-0.0009095516000000001,4.229,0,0
-0.0014042794,0.0024917140000000003,0.001089284,-0.0010665472000000002,-0.0007277778000000001,4.23,0,0
-0.00123104404,0.0018901640000000002,0.0007598576000000001,-0.0008157290000000001,0.00011261620000000002,4.231,0,0
-0.0004842076399999999,0.0005449020000000002,-1.6964400000000037e-05,-0.0005599604000000001,0.0005731128,4.232,0,0
0.00012991436000000004,-0.0006711713999999998,-0.00020009940000000005,-0.0006468844,0.0007686548000000001,4.233,0,0
0.00104931636,-0.0016711834000000003,-7.584019999999999e-05,-8.811880000000004e-05,0.0013043898,4.234,0,0
0.00241817636,-0.0014359534000000004,-0.0005305194,0.0005772542000000001,0.0020067360000000003,4.235,0,0
0.002993754,-0.00047400939999999993,-0.0009293010000000001,0.0005814667999999999,0.002059078,4.236,0,0
0.0025821506,0.00026369300000000007,-0.0006702354000000001,0.0006158159999999999,0.001973254,4.237,0,0
0.0023636752,0.0007065484000000001,-0.00026174839999999993,0.0006981498,0.0021309980000000003,4.238,0,0
0.0016191272000000002,0.0006259524000000003,6.50844e-05,0.00034409106,0.0012783059999999999,4.239,0,0
3.16712e-05,0.00023843440000000018,9.514019999999999e-05,-6.889340000000018e-06,0.00017016800000000016,4.24,0,0
-0.0008841847999999999,-0.0005400416,0.00015189620000000007,-0.00025747834,-0.0002535209,4.241,0,0
-0.0013773114000000001,-0.00135689,5.404640000000002e-05,-0.00038719074,-0.0002591129,4.242,0,0
-0.0016072174000000001,-0.0023658159999999998,-0.00013699620000000003,-0.0005774069400000001,-0.0008104009000000001,4.243,0,0
-0.0012252042000000002,-0.002337988,-0.0001872072,-0.0007838450000000001,-0.0008187129000000002,4.244,0,0
-0.000691386,-0.001170744,6.469780000000004e-05,-0.000539868,-0.0001163427000000001,4.245,0,0
-0.0005710660000000001,0.000294344,0.0005665158,-0.0001867766,-0.00030113480000000016,4.246,0,0
-0.000546644,0.0011072784,0.0006720140000000001,-2.9945999999999933e-06,-0.0006637482000000001,4.247,0,0
-0.0004630766,0.0005819224,0.0004523372000000001,0.0003246446,-0.00039826440000000004,4.248,0,0
-0.0005706474,-9.080760000000025e-05,5.424200000000035e-06,0.0004800906,-7.958540000000005e-05,4.249,0,0
-0.00035632700000000003,-0.0007976880000000001,-0.00024562799999999996,0.000219219,4.071439999999999e-05,4.25,0,0
0.00024289500000000005,-0.001386846,-0.0004068448,-3.836000000000063e-06,0.0006666754,4.251,0,0
0.0012785370000000002,-0.0014951214000000002,-0.0006607168,-9.408400000000003e-06,0.0011892948,4.252,0,0
0.001786519,-0.0005989674000000001,-0.0008863194000000001,-0.0003477008,0.0009557170000000001,4.253,0,0
0.0016649448000000003,0.0008011726,-0.0009228614000000001,-0.0005811900000000001,0.0007618998,4.254,0,0
0.0016001176000000003,0.001280033,-0.0009205856000000001,-0.00024084720000000002,0.000593314,4.255,0,0
0.0009393696000000001,0.0008164936,-0.0007360748000000001,-0.00022615839999999996,-0.000174902,4.256,0,0
-0.00015868840000000006,0.000942091,-0.0001973988,-0.0003086814,-0.0007500920000000001,4.257,0,0
-0.0009027064000000002,0.001590173,0.00017843039999999998,-2.906259999999999e-05,-0.0007984920000000001,4.258,0,0
-0.0011771986000000002,0.0010352532,0.0007153584000000001,0.0004031292,-0.0010612198000000002,4.259,0,0
-0.001470462,0.0001395012,0.0010664772000000002,0.0004387342,-0.0012289286000000002,4.26,0,0
-0.0012919564000000003,-0.00022573740000000003,0.0008902596000000001,0.0005668276,-0.0009609808,4.261,0,0
-0.0010632066000000001,-0.0004284838,0.0006230840600000001,0.0007789096,-0.0007690396,4.262,0,0
-0.0011278926000000001,-0.00044610580000000003,0.00074930866,0.0005702656,-0.0006653332,4.263,0,0
-0.00078152926,1.966199999999999e-05,0.0006598852600000001,0.0005286927999999999,-8.697960000000001e-05,4.264,0,0
-0.0003468452600000001,0.000709938,-3.648074e-05,0.00036227831999999997,0.00044930100000000004,4.265,0,0
-0.00011621666,0.001280592,-0.00025588034000000005,0.00022898531999999996,0.0007128512000000001,4.266,0,0
6.103706e-05,0.0013602036000000001,-0.0001397682000000001,-1.988868000000001e-05,0.0010792920000000001,4.267,0,0
0.00078408706,0.0010726276,-0.0005214000000000001,-7.026388000000001e-05,0.0017332136,4.268,0,0
0.00139347572,0.0014106616,-0.0009959926000000002,-7.287480000000006e-06,0.001949858,4.269,0,0
0.0011982201200000002,0.0017460096000000002,-0.0004259306,-6.185999999999063e-08,0.0013530776,4.27,0,0
0.00095698232,0.0013050336000000001,0.00032242459999999996,0.00020329174,0.0010914100000000001,4.271,0,0
0.0007727420000000001,0.0002401580000000003,0.0002897545999999999,-1.9164259999999972e-05,0.0006222515999999999,4.272,0,0
0.00011369799999999991,-0.0006485959999999998,0.0004711818,-0.00027442366,-0.0005021644,4.273,0,0
-0.0004919576,-0.0013542601999999998,0.0011011238,-0.00024707306,-0.0011128524,4.274,0,0
-0.00043696140000000006,-0.0021612652,0.0010766874,3.968800000000002e-05,-0.0011088528,4.275,0,0
-0.0003642702,-0.0019989053999999997,0.0005581004,3.0492800000000048e-05,-0.0016030172,4.276,0,0
-8.574960000000004e-05,-0.0007071954,0.0004411574,0.0005690688000000001,-0.0017048268,4.277,0,0
0.0005719204,0.0004334646000000001,0.00018757220000000007,0.0014401388,-0.0009333008000000001,4.278,0,0
0.0007275820000000001,0.00045699940000000006,5.701020000000004e-05,0.0012474282000000001,-0.0006656542,4.279,0,0
0.00035909740000000004,-1.6037599999999983e-05,0.00011141580000000005,0.0009760246,-0.0003178533999999999,4.28,0,0
3.458380000000003e-05,-0.00023663339999999996,-0.00029684519999999997,0.0009121582,0.00042840660000000003,4.281,0,0
-0.000349154,-0.00031446539999999997,-0.0004421326,0.00031913419999999996,0.0008248890000000001,4.282,0,0
-0.000813283,-0.0010286454,-0.00015873200000000005,-0.0004308378,0.0007502788000000001,4.283,0,0
-0.0008908478000000001,-0.00133599,-0.000646932,-0.0004543012,0.0007560386000000001,4.284,0,0
-0.0006627708000000001,0.00027635400000000014,-0.0014775532,-0.00036833219999999993,0.0007718046,4.285,0,0
-0.0004803882,0.002252214,-0.0015235332,-0.000583001,0.0006574368000000001,4.286,0,0
-5.641620000000004e-05,0.0034686020000000003,-0.0014050294,-0.0004274598,0.00042741320000000004,4.287,0,0
0.0002829868,0.004123638,-0.0014742380000000001,6.530020000000003e-05,-1.6238600000000058e-05,4.288,0,0
2.4240600000000013e-05,0.002954676,-0.0012837408,0.000155907,-0.00029843900000000006,4.289,0,0
9.097599999999999e-06,-0.00028234400000000034,-0.00042271280000000006,-0.00018188039999999996,-0.0007254170000000001,4.29,0,0
0.00032936780000000006,-0.0030243100000000005,0.00042233120000000014,-0.00026041000000000004,-0.0010146952,4.291,0,0
0.0004512358000000001,-0.0047561980000000005,0.0006182034,-0.00014424140000000003,-0.0009029616,4.292,0,0
0.0002676732,-0.005568634,0.0007660404000000001,-0.00045016200000000004,-0.0008039616000000002,4.293,0,0
-7.77999999999673e-08,-0.004251384200000001,0.0009832566000000003,-0.0007166496,-0.0010958476,4.294,0,0
-0.00029205579999999994,-0.0021017320000000003,0.0008889358,-0.0005535464000000001,-0.0012030356,4.295,0,0
-0.0005466322,-0.0007575460000000002,0.00043245204000000006,-0.00048747640000000006,-0.0011144064000000002,4.296,0,0
-0.000732173,-0.00011642199999999998,0.00017057704,-0.0007283042,-0.001065121,4.297,0,0
-0.0006012304000000002,0.00026818480000000003,3.343944000000002e-05,-0.0008488496,-0.00034460500000000005,4.298,0,0
-7.616059999999999e-05,0.00033470820000000004,-7.959235999999999e-05,-0.0007921550000000001,0.00020871819999999995,4.299,0,0
0.0001595008,0.00019542200000000008,1.6288439999999967e-05,-0.0009637542,0.0005740018,4.3,0,0
0.0005741004,0.000357118,-5.549620000000001e-05,-0.0007886278,0.0008118718000000001,4.301,0,0
0.0007205932000000001,0.0009936800000000003,-0.00022320340000000003,-0.0004945144,0.0006867972,4.302,0,0
0.0004075046,0.0022289412,-0.00016212756,-0.0002482304000000001,0.000277816,4.303,0,0
0.0005086582,0.0036236740000000003,0.00014610884000000005,0.00018372780000000007,0.0003045084,4.304,0,0
0.0005655816,0.004415548,0.00010133704000000007,0.0004337267800000001,0.0006637528,4.305,0,0
-0.0001405224,0.0038029010000000005,0.00021347924000000005,0.00041421692000000003,0.0003315576,4.306,0,0
-0.0005306466000000001,0.0017753649999999999,0.0009546912400000003,0.00037506552,0.0003542484,4.307,0,0
3.595399999999999e-05,-0.0006833090000000002,0.001194102,0.00031288932000000003,0.0005659216,4.308,0,0
0.00015630860000000006,-0.002520413,0.0009197416400000002,7.778012000000001e-05,0.00025126600000000004,4.309,0,0
3.6558599999999945e-05,-0.0031443706000000003,0.0010591634400000003,0.00039261914,-0.000393388,4.31,0,0
0.0003739062000000001,-0.0028377368000000003,0.0010261005600000002,0.0009137686000000001,-0.00031453519999999997,4.311,0,0
0.00044442159999999995,-0.0015657648000000001,0.00022865256000000007,0.0009558016,-0.00023496959999999995,4.312,0,0
-0.0002745504,-0.0001094046,-3.404543999999995e-05,0.0008768822000000001,-0.0009623235999999999,4.313,0,0
-0.000583557172,0.0003808814,3.482032000000006e-05,0.0010428014,-0.000827906,4.314,0,0
-0.000288497572,0.000183481,-0.00050431768,0.0010921454,-0.00013366799999999998,4.315,0,0
-0.00030119377200000006,-0.0001188904,-0.0008823466,0.0006814435999999999,7.012460000000006e-05,4.316,0,0
-0.000235631372,3.2059600000000014e-05,-0.0007264654000000001,0.0005338523999999999,0.000204997,4.317,0,0
5.9557628000000004e-05,0.0008847773999999999,-0.0007234454,0.000696542,0.000904579,4.318,0,0
4.41384e-05,0.0014449274,-0.0008503426,0.00024747599999999995,0.00101199638,4.319,0,0
-0.0001440194,0.0007220274,-0.0005666180000000001,-0.000642258,0.00040633478,4.32,0,0
-8.723480000000001e-05,-0.0002427200000000001,-0.00013078120000000002,-0.0009110756000000001,0.00056172138,4.321,0,0
-1.0873000000000002e-05,-0.0012130480000000002,-3.80538e-05,-0.0008606278000000001,0.00045127198000000004,4.322,0,0
-8.909960000000002e-05,-0.0026098420000000002,-7.4962e-05,-0.0010429574,-0.00013873002000000002,4.323,0,0
-0.00023513880000000005,-0.0028470580000000004,6.737220000000002e-05,-0.0006250714000000001,0.000156241,4.324,0,0
-2.4426400000000028e-05,-0.0014586580000000005,-0.00019693040000000003,8.860859999999996e-05,0.0005499686000000001,4.325,0,0
-8.299560000000004e-05,-4.0846000000000035e-05,-0.000326483,8.507859999999998e-05,0.0003001826,4.326,0,0
-0.000371365,0.00081068,-9.51192e-05,-9.245699999999997e-05,0.000345596,4.327,0,0
-0.00015736960000000007,0.001608264,-0.00013615640000000002,-9.166919999999999e-05,0.0008236644000000001,4.328,0,0
0.00022129959999999998,0.0015415054,-0.00020499460000000002,-0.0003485078,0.0005526942,4.329,0,0
0.0002971846,0.0009374273999999999,0.0001341998,-0.0005576218000000001,-5.000379999999996e-05,4.33,0,0
0.0003421632,0.0010505994,0.0004991536,-0.00022710820000000002,-0.00018581820000000002,4.331,0,0
0.0005303302000000001,0.0013616374,0.00034517760000000005,9.05952e-05,-0.0003810536,4.332,0,0
0.00040656760000000003,0.0016127474,0.00029015340000000005,9.762539999999999e-05,-0.000731346,4.333,0,0
0.0004889016,0.0014633896,0.00013367100000000003,0.00012446480000000002,-0.0008544698,4.334,0,0
0.0005099376,0.00043835360000000025,-0.00020932139999999997,0.00025022740000000003,-0.0004227664,4.335,0,0
0.0002676122000000001,-0.0010596804,-0.0005815686000000001,1.4098999999999995e-05,-8.79114e-05,4.336,0,0
0.00023250300000000003,-0.0020723184,-0.0004968514,-0.0005386584,-1.1429999999999957e-05,4.337,0,0
0.00029985820000000003,-0.0027529134,-0.0002125792,-0.0006045998,0.00033940580000000004,4.338,0,0
-0.0001350162,-0.002493073,-0.00030830100000000003,-0.00046744680000000005,0.00024175860000000005,4.339,0,0
-0.0005682982000000001,-0.0007940150000000003,0.00026867899999999997,-0.0006531116,-0.00032069479999999995,4.34,0,0
-0.00028287482000000005,0.0006889989999999999,0.0006159702,-0.0005730944,-0.00037530519999999995,4.341,0,0
-0.00022758662000000004,0.001510005,0.00022715259999999993,3.2439400000000034e-05,-0.00041014919999999997,4.342,0,0
-0.00028599522000000003,0.0016815436000000002,6.696999999999995e-05,0.00036489940000000005,-0.0008361709999999999,4.343,0,0
-7.903162000000005e-05,0.00140651042,-8.968000000000008e-05,0.00020969980000000004,-0.00047274359999999996,4.344,0,0
0.00013495586,0.0009932360200000001,-0.0007372540000000001,2.4757999999999996e-05,0.0004363464000000001,4.345,0,0
5.118347999999998e-05,0.00050868042,-0.00101025724,-6.00676e-05,0.00031297220200000007,4.346,0,0
-1.2425120000000026e-05,2.794841999999996e-05,-0.00070702384,-0.0002732622,0.00011585020200000008,4.347,0,0
3.436367999999999e-05,-0.00020079058000000002,-0.00057914884,-0.0005019218000000001,0.0006152862020000001,4.348,0,0
6.106607999999999e-05,-0.00025750320000000003,0.00018558516000000006,-0.0003825024000000001,0.0003606086020000001,4.349,0,0
0.0001648178,-0.00024720080000000005,0.00124009316,-0.0001600056,-0.00030173339800000003,4.35,0,0
5.93398e-05,0.00011827480000000003,0.0015941084,0.00015805700000000002,-0.00010510320000000001,4.351,0,0
-0.00017219559999999997,0.00025792360000000006,0.0015518732,0.0006737318000000001,0.0001972862,4.352,0,0
-0.0004471476,0.0007250050000000001,0.0014660089999999999,0.0009791924,-0.0003630578,4.353,0,0
-0.0003408692,0.0013885408,0.0009585838000000001,0.0014739228000000002,-0.0006547244000000001,4.354,0,0
-0.0002952574000000001,0.0011285096000000002,2.1299400000000015e-05,0.0018590020000000002,-0.0004457314,4.355,0,0
-0.0004743544,0.00038348559999999986,-0.0003008754,0.0015932720000000002,-0.0007381808000000001,4.356,0,0
-0.00011634460000000001,0.00047971159999999995,-0.00022936686,0.0013850420000000002,-0.0008001164,4.357,0,0
0.0003892088,0.0012768996,-0.00052139766,0.0009945718000000001,0.00022644960000000008,4.358,0,0
0.00036751160000000004,0.0011179036,-0.0008169964600000001,0.00021816979999999997,0.0013361196,4.359,0,0
0.000341322,0.0001305267999999998,-0.00081757246,-0.00010826540000000005,0.0017471486000000002,4.36,0,0
0.0007655502,-0.0011383952,-0.00098816186,-0.00020961480000000006,0.0022778358,4.361,0,0
0.0006017088,-0.002348854,-0.0014302886000000003,-0.0006227348000000001,0.002322057,4.362,0,0
-0.00012635119999999998,-0.0031432400000000003,-0.0013161462000000003,-0.0006785006000000001,0.0009557810000000002,4.363,0,0
-0.0004874874,-0.002721696,-0.0007210356000000001,-0.0007790946000000001,-0.00042582700000000026,4.364,0,0
-0.0007487128,-0.000677506,-0.0005064618,-0.0011693394,-0.001040623,4.365,0,0
-0.001042827,0.0009640025999999999,0.0001384284000000001,-0.001313982,-0.0019066590000000002,4.366,0,0
-0.0009417258000000001,0.0011793645999999998,0.0011437484000000001,-0.0011153107800000001,-0.0025341720000000003,4.367,0,0
-0.0004721644,0.0003027905999999997,0.0011546160000000002,-0.00039857478,-0.002162984,4.368,0,0
-0.0002801809,-0.0008740854000000001,0.0008894852000000001,0.00010471922000000007,-0.001744314,4.369,0,0
-0.0004950349000000001,-0.0017750814,0.0009182706000000002,0.00023673122000000008,-0.001413742,4.37,0,0
-0.00024242810000000002,-0.0012485220000000002,0.0005752482000000001,0.0006473496200000001,-0.0005989699999999999,4.371,0,0
0.00029630830000000006,0.0004754080000000001,0.00014831480000000003,0.0008786844,0.00019029000000000008,4.372,0,0
0.00013195430000000004,0.0007468400000000004,0.0004722926,0.00039288892000000005,0.0005518548,4.373,0,0
-0.00018887379999999994,0.0004354500000000002,0.0008473888,0.00015288932000000001,0.000974009,4.374,0,0
0.0004225602,0.00036470740000000017,0.0006421446000000002,0.00030729152,0.001282733,4.375,0,0
0.0008623014000000001,-0.0005595705999999999,0.00010302100000000002,3.0689320000000026e-05,0.0011465870000000001,4.376,0,0
0.0004952552,-0.0016078406000000001,-0.00040652360000000004,-9.831308000000004e-05,0.0011213290000000001,4.377,0,0
0.0007015168,-0.001263156,-0.0007853962,0.00015108039999999997,0.0014832362,4.378,0,0
0.001159815,-0.0002780960000000001,-0.001217145,4.680360000000001e-05,0.0014181870000000002,4.379,0,0
0.0008236956,0.00044230260000000004,-0.0010466170000000001,-0.0001135106,0.0009554078000000001,4.38,0,0
0.0003011688,0.0012155586,-0.0005585096,3.7637659999999794e-06,0.0007642222000000001,4.381,0,0
9.410899999999996e-05,0.0012078562,-0.0003148738,-0.00048721383400000004,0.0003262862000000001,4.382,0,0
-0.00017609580000000003,0.0007446415999999999,-9.763944000000004e-05,-0.0012992838340000002,-0.00047096780000000003,4.383,0,0
-0.00041240300000000004,0.00034592559999999995,0.00029781736,-0.001131705434,-0.0008695668000000001,4.384,0,0
-0.0005729456,-0.00020587860000000007,0.00034717036,-0.000634987434,-0.0011150496,4.385,0,0
-0.0008907008000000001,-0.0005766946000000001,2.380895999999996e-05,-0.0005246438,-0.001511296,4.386,0,0
-0.0010671968000000001,-0.00040781060000000003,0.00023341516,6.836820000000003e-05,-0.0014287777999999998,4.387,0,0
-0.0008181763999999999,-0.00020674959999999998,0.0005081656000000001,0.0007506974000000001,-0.000936702,4.388,0,0
-0.0004598033999999999,-0.00017225103999999998,0.0003003788,0.00064123,-0.0006200786000000001,4.389,0,0
9.060060000000013e-05,6.627315999999995e-05,0.00023055884,0.000324235,-0.00031891460000000005,4.39,0,0
0.0008982066000000001,0.00020593836,0.0006899968400000001,0.00026703260000000004,0.0002264174,4.391,0,0
0.0015874786000000002,7.829215999999997e-05,0.0006568468400000001,0.0001360358,0.0007049832,4.392,0,0
0.0018554700000000003,0.00025860716,0.00032816664000000006,1.7817360000000007e-05,0.0008424834,4.393,0,0
0.0017952120000000002,0.0010751866,0.00032186644,0.00014642076000000002,0.0007362592,4.394,0,0
0.0015885376,0.0023761326,-9.346720000000003e-05,0.00018378576,0.0007150694,4.395,0,0
0.0008369536000000001,0.0038992074,-0.0005483902,-0.00012030404000000001,0.0005068014,4.396,0,0
-9.249040000000006e-05,0.0042407538,-0.00037466219999999996,-0.0006865152400000001,0.0001165704,4.397,0,0
-0.0008057184000000001,0.0029969678,-0.00017844899999999999,-0.0010838080000000001,-1.9604400000000025e-05,4.398,0,0
-0.0015068444000000002,0.0008362558000000004,-0.00015703859999999996,-0.0011514034,-0.00023273960000000002,4.399,0,0
-0.002095794,-0.0017113421999999999,0.0004603574,-0.0008675294,-0.0005391998,4.4,0,0
-0.0018635606000000002,-0.0038290282000000004,0.0009304124,-0.00038664340000000024,-0.0005122772000000001,4.401,0,0
-0.0013304810000000001,-0.004440018,0.0008010234,5.4373999999999924e-05,-0.0006670662,4.402,0,0
-0.0011775002000000002,-0.0034099180000000005,0.00045111240000000007,0.0003307882,-0.0012566094,4.403,0,0
-0.0007187001999999999,-0.0020552714,7.1359e-05,0.00016118720000000001,-0.0012569174,4.404,0,0
-0.0003321026,-0.0010358548000000002,-0.000145349,-0.000215529,-0.0005989394,4.405,0,0
-0.00014375300000000002,-0.0006279873999999999,-0.0005218442,-0.00035176160000000006,-0.00017037799999999995,4.406,0,0
0.00021302339999999998,-0.0003723612,-0.0007774114,-3.794900000000001e-05,8.686880000000001e-05,4.407,0,0
0.0007356166,-4.5594399999999985e-05,-0.0006875900000000001,0.0003766568,0.0007876788,4.408,0,0
0.0010860186,1.5422000000000016e-05,-0.000686868,0.00047755820000000007,0.0015009728,4.409,0,0
0.001379313,0.0002263734,-0.000963176,0.0005220356000000001,0.0015816248,4.41,0,0
0.001721282,0.000712638,-0.0011298048,0.0005894722000000001,0.0014567728,4.411,0,0
0.0015091074000000001,0.0010505916,-0.0011676998,0.0002888264000000001,0.0013652062000000002,4.412,0,0
0.0011533654,0.0008810358,-0.0010558338600000002,-0.00013451699999999999,0.0008310782000000001,4.413,0,0
0.0007058154000000001,0.0005392308000000001,-0.00064619326,-0.00025221,0.00013561819999999996,4.414,0,0
0.00018362740000000004,0.00022403879999999997,-0.00030267446,-0.00038255060000000004,-0.0004872038,4.415,0,0
-0.00022299780000000004,5.582480000000003e-05,-4.912846000000002e-05,-0.0004661902000000001,-0.0012834938,4.416,0,0
-0.0006479032000000001,-7.858439999999995e-05,0.00021835614000000002,-0.0001471184000000001,-0.00167423,4.417,0,0
-0.0008125588000000001,0.00021278460000000006,0.000392063,0.000333879,-0.0014981802,4.418,0,0
-0.0006254696000000001,0.0007391586,0.000456983,0.000873825,-0.00123682738,4.419,0,0
-0.0005784036000000001,0.0002582626,0.00046328400000000006,0.0011808737999999999,-0.00117702338,4.42,0,0
-0.0009427104000000001,-0.00015309940000000002,0.00034842400000000006,0.0011714204,-0.00061603438,4.421,0,0
-0.0008756892,0.00035444000000000003,0.000248994,0.001065283,7.402162000000003e-05,4.422,0,0
-0.0006363098000000001,0.0011268860000000001,0.00031051580000000003,0.0008612508000000001,8.497841999999999e-05,4.423,0,0
-0.00033805700000000006,0.0009879662000000001,0.00016503733999999998,0.0009963608000000002,0.0005279036,4.424,0,0
0.000162321,-0.00015452179999999997,0.00011069828,0.0012224374,0.0012526555999999999,4.425,0,0
0.000266075,-0.0007128037999999999,0.00014261827999999997,0.0009426124000000001,0.0013765226,4.426,0,0
0.00039012979999999997,-0.0008490678000000001,-0.00032495512,0.0005736802000000001,0.001309923,4.427,0,0
0.0003604636,-0.0016859314,-0.0009337711200000001,0.0003640656000000001,0.0015638642000000002,4.428,0,0
-0.00023175840000000001,-0.0017185775999999998,-0.0013511112600000002,-0.0003272844,0.0013449561999999999,4.429,0,0
-0.0007336964,-0.0003441455999999999,-0.0016095460000000001,-0.0009450184000000001,0.0005289962,4.43,0,0
-0.0005261612,0.00011193640000000001,-0.001156904,-0.0009792263999999998,0.00013772820000000006,4.431,0,0
-0.00029747080000000004,0.00011286840000000005,-3.6015999999999934e-05,-0.0013440468,-0.00018878900000000005,4.432,0,0
-0.0006487883999999999,0.000843024,0.0009652480000000001,-0.0017479340000000002,-0.0009711368,4.433,0,0
-0.0008120904,0.001592694,0.001997852,-0.0014521062,-0.0014483948,4.434,0,0
-0.0005446164000000001,0.001603116,0.002583522,-0.0010598156000000002,-0.00114256,4.435,0,0
-0.0007753256000000001,0.00029238199999999967,0.002582884,-0.000765485,-0.0011177583999999999,4.436,0,0
-0.0012882520000000001,-0.0014710400000000003,0.00243395,-4.7397200000000035e-05,-0.0012127835999999998,4.437,0,0
-0.0007759790000000001,-0.002112772,0.001839238,0.0007962768,-0.0005227562,4.438,0,0
3.7970999999999925e-05,-0.0022355140000000005,0.00109743,0.0009399930000000001,-0.0002536708,4.439,0,0
0.00029190899999999997,-0.001891096,0.0006602182,0.0005882944,-0.0004977872,4.44,0,0
0.0014693370000000002,0.0007771400000000001,-0.00010874179999999998,0.0006517388000000002,3.0583200000000056e-05,4.441,0,0
0.0029466550000000003,0.004262016,-0.0011766518000000002,0.0006756733999999999,0.0007515452,4.442,0,0
0.0030415000000000004,0.005348942,-0.0015273738000000003,0.0002183642,0.0008929624,4.443,0,0
0.0028036182,0.0042631679999999995,-0.0015489834000000004,-6.691600000000003e-05,0.001112979,4.444,0,0
0.0023423442,0.00298038,-0.0016140706000000002,0.00015796599999999997,0.0017668146,4.445,0,0
0.0007540881999999999,0.0010223139999999996,-0.0012231865999999998,-0.00011745920000000003,0.0017540046,4.446,0,0
-0.0010365598,-0.0016873600000000002,-0.0004162326000000001,-0.0006586176,0.0011869432,4.447,0,0
-0.0016189858000000004,-0.0034455320000000003,8.202959999999997e-05,-0.0006253852000000001,0.0009712794,4.448,0,0
-0.0018579042000000001,-0.0038831340000000008,0.00021977519999999998,-0.0007068718000000001,0.0004006334000000001,4.449,0,0
-0.0019093262,-0.003524206,0.0003611267999999999,-0.0008217526000000001,-0.0005735506000000001,4.45,0,0
-0.0012800338,-0.0030840360000000005,0.0004633068,-0.0005256122,-0.00093134374,4.451,0,0
-0.0008929757999999999,-0.002525662,0.00024713765600000006,3.326179999999998e-05,-0.0009189381400000001,4.452,0,0
-0.0008637318,-0.0017993839999999998,0.00030730545600000003,0.000171362,-0.00144264494,4.453,0,0
-0.0011506776,-0.00138303,0.000565383456,0.000277211,-0.0012892011400000001,4.454,0,0
-0.0013351056,-0.0009125760000000001,0.000371386856,0.0003618612,-0.00049117514,4.455,0,0
-0.0012502073999999998,-0.00028905140000000005,0.00023663925600000008,2.2165000000000016e-05,-0.0005091799999999999,4.456,0,0
-0.0008381965999999999,-3.0687400000000055e-05,0.00011264540000000006,-0.00037765879999999996,-0.0004899318,4.457,0,0
-0.00019737859999999989,0.00017975659999999987,-0.00028890459999999997,-0.0005387222,8.378300000000001e-05,4.458,0,0
0.0005188734000000001,0.0009666966,-0.0006660474,-0.00016880440000000007,0.0004490306,4.459,0,0
0.0013325194,0.0017025646,-0.00045152740000000004,5.517559999999996e-05,0.0002700018,4.46,0,0
0.0019116508,0.00189574,-0.00038093024000000004,0.00030338880000000003,0.0003322782,4.461,0,0
0.0022282100000000004,0.002022504,-0.00038811504,0.00037137739999999997,0.0007242598,4.462,0,0
0.002132034,0.00182401,-9.051104000000002e-05,-0.00011711660000000005,0.000572862,4.463,0,0
0.002043258,0.0014734608,4.314356e-05,-0.0005483928,8.235260000000004e-05,4.464,0,0
0.001757609,0.0014423088,-0.00018031643999999998,-0.0009317642,-0.00010654859999999997,4.465,0,0
0.000811977,0.0014409108000000002,-0.0005835840000000001,-0.0014436074,-0.0005617510000000001,4.466,0,0
-0.00018012499999999995,0.0011334895999999999,-0.0004680002,-0.0017977022,-0.001192093,4.467,0,0
-0.0006171474,0.0005939996000000001,-0.0005011084,-0.0013738796000000001,-0.0010146468000000002,4.468,0,0
-0.0010107205999999999,0.00025740080000000013,-0.0006146238000000001,-0.0008567154000000001,-0.0007955776,4.469,0,0
-0.0015473816,-0.0001220258,-0.00021327060000000004,-0.0004299274,-0.0009985976000000001,4.47,0,0
-0.001305131,-0.0006790018,0.0001490776,0.0004241065999999999,-0.0007340760000000001,4.471,0,0
-0.0008267662,-0.0011760306,1.9368599999999983e-05,0.0012850746,-0.0003313284,4.472,0,0
-0.0009540438,-0.0015174586,-6.460840000000002e-05,0.001505417,-0.0005317264,4.473,0,0
-0.0006365306,-0.0015209706,0.00020173079999999998,0.0011232770000000002,-0.00011694959999999997,4.474,0,0
0.00022225940000000004,-0.0015222066,2.3053600000000013e-05,0.0009393706,0.0010642744000000002,4.475,0,0
0.00037243260000000006,-0.0013588698,-0.0002899026,0.0005864962000000001,0.0016629588000000002,4.476,0,0
0.0005963494000000001,-0.0005247318,-0.0002459816,0.00021963973999999999,0.0018505712000000004,4.477,0,0
0.0011596634000000001,0.0003811882000000001,-0.0004283934,0.00031715274,0.002295136,4.478,0,0
0.0010520618,0.0008378036,-0.0008389010000000001,0.00040557054,0.0021257764000000004,4.479,0,0
0.0006974094,0.0011063222,-0.0005711010000000001,0.00037390012,0.0009719644000000002,4.48,0,0
0.0007103934000000001,0.0014393054000000002,0.00025134700000000007,0.00043274912,0.0002578044000000001,4.481,0,0
0.0003488098,0.0014749514,0.000604105,0.00057004378,-0.0004862476000000001,4.482,0,0
-0.0005626082000000001,0.0014764734,0.001126272,0.00046870638000000005,-0.0013138876000000001,4.483,0,0
-0.0009322646000000001,0.00123804,0.0018262800000000002,0.00073938658,-0.0015390362000000002,4.484,0,0
-0.001158794,0.00026363199999999997,0.0016615446,0.0011474114000000002,-0.0013217768000000003,4.485,0,0
-0.0017026198,-0.0006834,0.0012453002,0.0010309504,-0.0010376352000000001,4.486,0,0
-0.0017600898000000001,-0.001756378,0.0009274480000000002,0.0009778210000000002,-0.0009420252,4.487,0,0
-0.0010233319999999998,-0.0022706246,0.00039952620000000016,0.0010958224000000001,-0.0006138612,4.488,0,0
-0.00034018799999999995,-0.0012444485999999995,-0.00035187780000000006,0.0007987844,-0.00042263520000000005,4.489,0,0
0.0002906138,0.0005771073999999998,-0.0006236270000000001,0.0002564424,-0.00021782979999999995,4.49,0,0
0.0011593818,0.0022493794,-0.0005022724,0.00031463579999999996,0.00013198460000000007,4.491,0,0
0.0013626618,0.0026001494,-0.000570512,0.0002899452,0.0009566386000000001,4.492,0,0
0.000982454,0.001046988,-0.00037120880000000004,-0.0001365168,0.0013457694000000003,4.493,0,0
0.0005421865999999999,-0.0008040720000000003,-8.985880000000001e-05,-0.00010733459999999999,0.0011887130000000003,4.494,0,0
0.00044606660000000005,-0.0017045224000000001,-0.0003825282,-4.4827399999999984e-05,0.0013429962000000002,4.495,0,0
0.0003869326000000001,-0.0026009474,-0.0007775204,-0.0005276344,0.0009617302000000001,4.496,0,0
0.0003225534000000001,-0.0024269995999999998,-0.00047907420000000003,-0.0008928466000000001,0.00042419920000000006,4.497,0,0
0.0007905906000000001,-0.000617482,-0.0005104568600000001,-0.0007942848000000001,0.00017511059999999996,4.498,0,0
0.0008672160000000001,4.787400000000008e-05,-0.0006527376600000001,-0.001116177,8.672299999999998e-05,4.499,0,0
0.000154072,-0.0003360556,0.00014739034,-0.0014843642,-0.0003448456,4.5,0,0
-0.0004160580000000001,9.123340000000005e-05,0.0007758843400000001,-0.0011076026,-0.0007630676000000001,4.501,0,0
-0.00046602980000000013,0.0005159376000000002,0.00080084774,-0.0005364085999999999,-0.0011393986,4.502,0,0
-0.0009218330000000002,0.0006110294,0.000820281,-0.0002190984000000001,-0.0014624968,4.503,0,0
-0.0014269490000000003,0.0010076386000000001,0.0009055390000000001,9.785580000000002e-05,-0.0014679744,4.504,0,0
-0.0013682630000000002,0.0007840826000000003,0.0005792837400000001,0.0007439178,-0.0014168714,4.505,0,0
-0.0013143436000000001,-0.00012919139999999988,-3.855226000000001e-05,0.0009299604,-0.0010303320000000001,4.506,0,0
-0.001026035,-0.00046124519999999995,-0.00015766206000000001,0.0005880178,-0.00036270199999999996,4.507,0,0
-0.0002604190000000001,-0.0002800106,-0.00024571066,0.0005070472,0.000443054,4.508,0,0
0.0004928889999999999,-4.9569799999999906e-05,-0.0008325158600000001,0.00044588680000000005,0.0007209002000000001,4.509,0,0
0.0008435048,0.0003742042000000001,-0.0010722066000000002,0.00043788880000000005,0.0008255312000000001,4.51,0,0
0.0011973492,0.0006597548000000001,-0.0012492586,0.0007338346,0.0013097918,4.511,0,0
0.0011184088,0.0002505086000000001,-0.0019518086,0.000825017,0.0015876038000000002,4.512,0,0
0.0003045628,-0.0005161854000000001,-0.0019436994000000003,0.00047914560000000004,0.0011957939,4.513,0,0
-0.00019130480000000003,-0.0005081934000000001,-0.0010308414,0.00039401580000000006,0.0008194735,4.514,0,0
4.528939999999995e-05,-0.00012459340000000002,-0.0003792073999999999,9.023519999999998e-05,0.0006701997,4.515,0,0
-3.452700000000007e-05,0.0001217263999999999,0.0005643926,-0.0009071808,-0.0002498963000000001,4.516,0,0
-0.0005357561999999999,0.0008580604,0.0018321766,-0.0014275906,-0.0012904763000000001,4.517,0,0
-0.0002928958,0.0011191832000000002,0.002343874,-0.0014296826,-0.0015780544,4.518,0,0
3.075280000000001e-05,0.00038942719999999993,0.00256026,-0.0014014486000000002,-0.0016049884,4.519,0,0
-0.0003483698,-0.0003890748000000001,0.002509194,-0.0011299182,-0.001726558,4.52,0,0
-0.0003566934,-0.0004235756,0.0018550968,-0.0004911890000000001,-0.00125292014,4.521,0,0
0.0001751878,0.0006762104,0.0010615904000000002,6.44699999999994e-07,-0.00036822814000000005,4.522,0,0
-3.9460000000003854e-07,0.0021958836000000002,0.00036459440000000007,4.926030000000002e-05,0.00011036985999999992,4.523,0,0
-0.0003329956000000001,0.0028687816,-0.0004498716,5.3002300000000026e-05,0.00067072786,4.524,0,0
3.3666999999999974e-05,0.0020053816000000003,-0.0010840576,6.274270000000003e-05,0.00129468986,4.525,0,0
0.00039176719999999996,1.7440000000001378e-06,-0.0012453644,0.00010731670000000002,0.0015248700000000002,4.526,0,0
0.000591554,-0.0023079579999999997,-0.0013826700000000001,8.005960000000003e-05,0.001515838,4.527,0,0
0.001168892,-0.004538946,-0.0017444500000000003,0.00012688320000000004,0.0016859860000000002,4.528,0,0
0.001706454,-0.005757452000000001,-0.0022426140000000004,1.1841000000000024e-05,0.0017011300000000001,4.529,0,0
0.0012450906000000001,-0.004869712000000001,-0.0022596400000000003,-0.0004081932,0.001066862,4.53,0,0
0.0004555106,-0.002834687,-0.0018220690000000004,-0.0007379184,0.00045461399999999994,4.531,0,0
-3.0300000000000032e-05,-0.0012887510000000003,-0.0013646840000000001,-0.0008932314000000001,4.102539999999989e-05,4.532,0,0
-0.00096434,-0.00020076100000000017,-0.00041658600000000004,-0.0008759344,-0.0007938926,4.533,0,0
-0.001800158,0.0008516324000000001,0.0007630800000000001,-0.0009247112,-0.0018390486000000002,4.534,0,0
-0.0018260686,0.0015269704000000002,0.0012210348,-0.0006764286600000002,-0.0019784506,4.535,0,0
-0.0016911826,0.0018369354000000002,0.0013389418,-0.00041120726,-0.0017361908000000001,4.536,0,0
-0.0013724461999999997,0.0024241894000000003,0.0012611996,-0.00045474086,-0.001787738,4.537,0,0
-0.0005317962,0.0037107314000000002,0.0008485024,-0.00027171146,-0.001069568,4.538,0,0
4.37462e-05,0.004831936,0.0007489724,-2.3604259999999977e-05,-3.1576000000000065e-05,4.539,0,0
-4.898979999999999e-05,0.0043511286,0.0009158816,-5.6259200000000005e-05,0.0004612514,4.54,0,0
1.4114000000000021e-05,0.0025391466,0.0009463296,-0.0003111306,0.0011087996,4.541,0,0
7.767480000000007e-05,0.0003492005999999996,0.0010125408,-0.0002821958,0.0018581494,4.542,0,0
-0.0002979355999999999,-0.0017157193999999998,0.0009765884000000002,-0.00024723400000000004,0.0018501654,4.543,0,0
-0.00023258599999999993,-0.0028971256,0.00045242239999999993,-0.0003944692000000001,0.0015937448,4.544,0,0
0.0006964340000000001,-0.0023968602000000007,-0.00011659760000000001,-0.00014297080000000002,0.0014726080200000002,4.545,0,0
0.0013219462000000001,-0.0006477462000000001,-0.0005899672,0.0002444014,0.0007739276200000001,4.546,0,0
0.0013824656000000002,0.0009792598000000002,-0.0005098872000000002,0.00035874619999999997,-0.00015706038000000002,4.547,0,0
0.0017744300000000002,0.0021442338,-5.217360000000002e-05,0.00034855220000000003,-0.00071727638,4.548,0,0
0.0015859178000000003,0.002279726,0.00013039480000000004,0.00039415720000000003,-0.0013756457800000001,4.549,0,0
0.0006248298000000002,0.0016082640000000003,0.00033690680000000005,0.0001867278,-0.0020280664000000004,4.55,0,0
6.172840000000003e-05,0.00024890800000000027,0.000622088,3.9336119999999985e-05,-0.00207052,4.551,0,0
-0.00032135119999999995,-0.001914762,0.0006607440000000001,0.00015233952000000002,-0.0019068154,4.552,0,0
-0.0007446534,-0.0035233,0.0005781940000000001,0.00029690812000000003,-0.0018994954,4.553,0,0
-0.0007722948,-0.00432251,0.0009568576000000002,0.0006905001200000001,-0.0015062114,4.554,0,0
-0.0005948294,-0.0043355,0.0011097352,0.0009204175200000001,-0.0007639474,4.555,0,0
-0.0006918024000000001,-0.003580752,0.0009153000000000001,0.0010377224000000002,-0.0003583102,4.556,0,0
-0.0004959104000000002,-0.0018785579999999998,0.0003214660000000001,0.0013378274000000003,0.00010131720000000003,4.557,0,0
9.44818e-05,3.921600000000001e-05,-0.0010414579999999999,0.0015218014,0.0008637592,4.558,0,0
0.0007022814,0.001374252,-0.002227168,0.0013688874000000002,0.0013883652,4.559,0,0
0.00132235,0.002331964,-0.0027461036,0.0010522710000000002,0.0014978752000000001,4.56,0,0
0.0016418086,0.0027502380000000003,-0.003160232,0.0010552128,0.0014898758000000002,4.561,0,0
0.0016484676,0.0022240000000000003,-0.0032402539999999997,0.0011320288000000003,0.0014841218000000002,4.562,0,0
0.0008898855999999998,0.0007657540000000002,-0.0022073444,0.00071117976,0.001080907,4.563,0,0
-0.00024863240000000007,-0.00013664400000000006,-0.0011203114,0.00039264156000000004,0.0007976082000000001,4.564,0,0
-0.0009710104,-0.0005503738000000002,-0.0005788786000000001,0.00051162916,0.0009320122000000001,4.565,0,0
-0.0014818126,-0.0008758836,0.0003246254,0.00011391396000000006,0.0005976982000000001,4.566,0,0
-0.001837518,-0.0006943996000000002,0.0015239794,-0.00048172184,-0.00040019180000000005,4.567,0,0
-0.001758868,-0.00038533960000000005,0.0021245138,-0.00028584940000000005,-0.0008264050000000001,4.568,0,0
-0.0015504480000000003,-0.00041329440000000006,0.0021856628,8.031800000000007e-06,-0.0008192628,4.569,0,0
-0.0015136200000000002,-0.000566017,0.002341306,4.7836199999999994e-05,-0.0012909178000000002,4.57,0,0
-0.000954608,-0.00020797919999999997,0.0020917070000000004,0.0007176602,-0.0011073038800000002,4.571,0,0
-0.00021712399999999975,0.0003342848,0.001149386,0.001239962,-0.00037494128,4.572,0,0
9.435200000000013e-05,0.0009666768,0.00031574600000000005,0.0006981766,-0.00011111688,4.573,0,0
0.0003177722,0.0015569636000000002,-0.0002508220000000001,0.0002570296000000001,0.00037647172,4.574,0,0
0.0008557742,0.00184885,-0.0007634416,-6.761999999999513e-07,0.0012086967200000001,4.575,0,0
0.0011273342,0.001884456,-0.0011254354,-0.0009857762000000001,0.001485885,4.576,0,0
0.0010763042,0.0015609932000000002,-0.0011523724,-0.0017499442,0.0017856904,4.577,0,0
0.0016081982,0.0009972187999999999,-0.0010724544000000002,-0.0015488526,0.002267924,4.578,0,0
0.002107706,0.00029164680000000006,-0.0012427944000000001,-0.0015522046000000002,0.0015936266,4.579,0,0
0.0017546942,-0.00023764919999999997,-0.0011179326,-0.0016840784,0.0003795946,4.58,0,0
0.001121369,-0.0003067392,-0.0006079837999999999,-0.0012288464000000002,-0.0002667394,4.581,0,0
0.0005025890000000001,-0.0002949256,-0.0002568242000000001,-0.0011348864,-0.0010799874,4.582,0,0
-0.00048281699999999997,-0.0003521492,5.775200000000001e-05,-0.001535948,-0.0020778934,4.583,0,0
-0.001269241,-0.00022816280000000002,0.0007260574000000001,-0.0014953280000000002,-0.00226473,4.584,0,0
-0.0017524032,-0.00023661879999999996,0.0011964972,-0.0011131736,-0.0018906412,4.585,0,0
-0.001957982,-0.0007806268,0.0012203992000000001,-0.000837255,-0.0017700912000000002,4.586,0,0
-0.0017611780000000002,-0.0012369416000000003,0.0013245656,-0.000211477,-0.0016127512,4.587,0,0
-0.00134573556,-0.0011730338000000002,0.0011046168,0.000763999,-0.0008708712000000001,4.588,0,0
-0.0008189505600000002,-0.0013649182000000002,0.0006331794000000001,0.0010574702,-0.00017108119999999997,4.589,0,0
-0.0003857757600000001,-0.0014135882000000002,0.0003481308,0.0010260048,-5.061520000000001e-05,4.59,0,0
0.00021204224000000003,-0.0010957162000000003,0.00014041420000000002,0.0012871622000000002,0.00042810280000000003,4.591,0,0
0.0006146042400000001,-0.0008762882,-0.0003560998,0.0012752922000000002,0.0011398848000000001,4.592,0,0
0.0009371678000000001,-0.0008024598,-0.0006586852000000001,0.0011197822000000002,0.0010344754000000001,4.593,0,0
0.0016187248,-0.0004534190000000001,-0.00035698519999999994,0.001075808,0.0010420474,4.594,0,0
0.0022511220000000004,0.001136997,-0.0005741112,0.0009722404,0.0017139086000000003,4.595,0,0
0.0021713004000000003,0.003009837,-0.0010952206,0.0005548424000000001,0.0014933386000000003,4.596,0,0
0.0015903272000000002,0.003941193,-0.000952164,9.390420000000008e-05,0.0007725586,4.597,0,0
0.0011034584,0.0037573088000000003,-0.0005788188,-0.00021993339999999998,0.0008950288,4.598,0,0
5.0782400000000004e-05,0.0026794159999999996,-0.0007488978,-0.0004743544,0.00021506279999999997,4.599,0,0
-0.0011464056,0.0008569840000000002,-0.00036698720000000006,-0.0005830034,-0.0010876772,4.6,0,0
-0.0017950560000000002,-0.0008468781999999998,0.0009288168,-0.0004405625999999999,-0.0010885731999999999,4.601,0,0
-0.0020450208,-0.0017001362,0.0015979062000000001,-0.0001672842,-0.0006957572,4.602,0,0
-0.00219901,-0.0012065901999999999,0.001633629,-0.0003040796,-0.0013262360000000002,4.603,0,0
-0.002023303,0.0013255078,0.001548444,-2.074780000000001e-05,-0.0016600780000000002,4.604,0,0
-0.0013351104,0.0027779858,0.000754228,0.0005475358,-0.0008243334,4.605,0,0
-0.0008783240000000001,0.002084642,-0.00038884200000000003,0.0004395499999999999,-0.0004905894000000001,4.606,0,0
-0.0003716012,0.0012918139999999996,-0.0007399539999999999,0.0002725659999999999,-0.0003724374000000001,4.607,0,0
0.0002608228,-2.2234000000000316e-05,-0.0008501748,0.0004585898399999999,0.0006071646,4.608,0,0
0.0008314738,-0.00245667,-0.0007658956000000001,0.0004197506399999999,0.0016740945999999999,4.609,0,0
0.0011792552,-0.004025092,-0.00044750960000000006,2.5052179999999996e-05,0.001936596,4.61,0,0
0.0012914858,-0.003700138,-0.0006633836000000001,-4.7720020000000005e-05,0.002082576,4.611,0,0
0.0013570773999999999,-0.00312159,-0.0011631536,-0.00021627822,0.0020538188,4.612,0,0
0.001119767,-0.0021711192,-0.0011374230000000003,-0.0007318110599999999,0.0010048568,4.613,0,0
0.00048566379999999995,-0.0013770828,-0.0006847661999999999,-0.00113099566,0.0002495488000000001,4.614,0,0
-5.858599999999996e-05,-0.0013107668000000002,-0.00019546420000000008,-0.0012821294,-0.00018721250000000006,4.615,0,0
-0.000220095,-0.0012885315999999999,0.0005075998000000001,-0.0013769703999999998,-0.0013198265000000002,4.616,0,0
-0.0005987914,-0.0011390526,0.0012581198,-0.0011712912,-0.0020132313,4.617,0,0
-0.0006841519800000001,-0.0009097334,0.0016343220000000001,-0.00065645652,-0.0017889893000000003,4.618,0,0
-0.00038979158,-0.0004614818000000001,0.00137083332,-0.00039134012,-0.0018523333000000002,4.619,0,0
-0.00046396378000000004,0.00021565240000000002,0.0012033857200000001,-0.00017566212,-0.0019421762000000002,4.62,0,0
-0.00046985357999999996,0.0004973108000000001,0.0010327563200000001,0.00020346607999999997,-0.0010612721999999999,4.621,0,0
-0.00024381577999999998,0.0007270256000000001,0.00049733472,0.00059712088,-0.00023911820000000004,4.622,0,0
-0.00032094459999999997,0.0007976120000000001,0.00042559872,0.0007121034000000001,0.00010888887999999999,4.623,0,0
-0.0003116502,0.00115327,0.000378598,0.0008666322000000001,0.00079163088,4.624,0,0
0.0002466558,0.0017298838000000003,-0.00026120840000000005,0.0010240124,0.0014711970800000002,4.625,0,0
0.0006579876000000001,0.0016892526,-0.0005535872000000001,0.0008754098,0.0015308930800000003,4.626,0,0
0.0010325938000000001,0.0028502848,-0.00045140880000000004,0.0006796756000000001,0.0014109742800000001,4.627,0,0
0.0018555136000000002,0.0051432564,-0.0009564868000000002,0.0005588186600000001,0.0016558772000000003,4.628,0,0
0.002067348,0.0061871964,-0.0014809254,0.00029580146000000006,0.0015737652,4.629,0,0
0.00122696,0.005182572400000001,-0.0010895328,-0.00016560854000000001,0.0008686691999999999,4.63,0,0
0.0002281160000000001,0.0023064220000000007,-0.0005344006,-0.00044970774,0.000562781,4.631,0,0
-0.0008632380000000002,-0.0017010140000000003,-0.0005190052,-0.00086644554,0.00032704,4.632,0,0
-0.001974358,-0.005471744000000001,-0.000158413,-0.0011652718000000001,-0.0007110720000000001,4.633,0,0
-0.0025541680000000003,-0.007921242,0.000632315,-0.0011021428,-0.00154804,4.634,0,0
-0.002439408,-0.007919190000000001,0.0006855424,-0.0008416166,-0.0015386698,4.635,0,0
-0.0019266146,-0.004796698,0.00019536600000000007,-0.00046587859999999996,-0.0016005556,4.636,0,0
-0.0011615150000000003,-0.0016406600000000002,0.0001331843,-0.00032314719999999993,-0.0018075758000000001,4.637,0,0
-0.0006144418,-0.0002617836,9.888110000000001e-05,0.00014800000000000002,-0.0011516272000000002,4.638,0,0
-0.00016465739999999997,0.00047359439999999995,-8.02053e-05,0.000920303,-0.0004036882,4.639,0,0
0.0007157126000000001,0.0006744472,0.00019149490000000002,0.0012528328,-6.617039999999997e-05,4.64,0,0
0.0014409792000000003,0.0011592832000000002,0.0006642333000000001,0.0012220848,0.0003943396,4.641,0,0
0.0021479796,0.0020034432,0.0007248231999999999,0.0011526096000000002,0.0010059916000000001,4.642,0,0
0.0028176964000000003,0.0024131408,0.0003396441999999999,0.0008643638000000001,0.001235985,4.643,0,0
0.0030672040000000005,0.0020325928,-2.2301400000000098e-05,0.00016805480000000003,0.0009682834,4.644,0,0
0.0028671140000000005,0.001324376,-0.0005560276000000002,-0.00047731520000000003,0.0010102774,4.645,0,0
0.0020331700000000004,0.0002440180000000001,-0.0011415936000000002,-0.0008106772000000001,0.0005682364,4.646,0,0
0.000491824,-0.0012992400000000001,-0.0009908500000000002,-0.0009590874000000001,-0.0001238096,4.647,0,0
-0.0008136420000000001,-0.001336034,-0.0005025178,-0.0008996602000000001,-3.11636e-05,4.648,0,0
-0.00165809,-0.00019773000000000002,-0.0004370038,-0.0007238322000000001,0.00010737099999999999,4.649,0,0
-0.0024911440000000003,0.000307504,-1.1033199999999974e-05,-0.00040520200000000007,-0.00044030100000000004,4.65,0,0
-0.002442914,0.0004885806000000001,0.0006078908000000001,2.0639799999999978e-05,-0.0006740040000000001,4.651,0,0
-0.0017208911999999999,0.0008747034000000001,0.0005415976,0.0003477678,-0.00044883640000000007,4.652,0,0
-0.0011286503999999998,0.0005405432000000001,0.0004527092,0.0004996234000000001,-0.0008060922000000001,4.653,0,0
-0.00047033840000000013,-0.00022707720000000002,0.000853082,0.0006902864,-0.0010119082000000002,4.654,0,0
0.00040777159999999996,-6.621879999999997e-05,0.0010501994,0.0008862382000000001,-0.0005791596000000001,4.655,0,0
0.0006999578,-0.0002060054,0.000609075,0.0007102128000000002,6.09284e-05,4.656,0,0
0.0005265669999999999,-0.0006873422,0.00041807300000000003,0.0008529316000000001,0.00040061880000000005,4.657,0,0
0.000493725,-0.0007642304000000001,6.919120000000004e-05,0.0011517714000000001,0.0009610526000000002,4.658,0,0
0.0003617748,-0.000513212,-0.0006664635999999999,0.0007968368,0.0016735186000000001,4.659,0,0
0.0002422268,2.804960000000003e-05,-0.0010176898,0.0003981903999999999,0.0015842476,4.66,0,0
0.0007055066,0.0004919196,-0.0011217254,0.000289814,0.0013315339999999999,4.661,0,0
0.0015380826,0.0009941746,-0.0013859262,-0.00012109679999999995,0.0011709836,4.662,0,0
0.00154993,0.0009932376,-0.0013714422,-0.0008914688,0.00043333360000000014,4.663,0,0
0.0010803622,0.0009902556,-0.0009522164,-0.0009789356,-0.0005539424,4.664,0,0
0.0004451781999999999,0.0008675096,-0.0008807938,-0.000851944,-0.0011285880000000002,4.665,0,0
-0.0006369498,0.00013580160000000005,-0.0005422165999999999,-0.0013677982,-0.0015981164,4.666,0,0
-0.0015989238,-7.11154e-05,0.00010441740000000007,-0.0015867282,-0.002080268,4.667,0,0
-0.002038136,0.00010021000000000006,0.0005847726,-0.0012176910000000001,-0.0020748380000000003,4.668,0,0
-0.00203053,-0.00020576739999999993,0.0008031706,-0.0010124174000000002,-0.0016143042000000003,4.669,0,0
-0.001907372,-0.0003876725999999999,0.0008399601999999999,-0.0010033912,-0.0014190242000000001,4.67,0,0
-0.001793266,0.0001226054,0.0008394883999999999,-0.0003970720000000001,-0.0012216074000000001,4.671,0,0
-0.0014952844,0.0001611818,0.0005187434,0.00032898000000000004,-0.0004916714000000001,4.672,0,0
-0.0009808044000000002,-4.893106000000002e-05,0.0002261514,0.00044744340000000003,-6.859200000000051e-06,4.673,0,0
-0.00028943040000000016,0.00020577314,0.00018247922000000003,0.0007564212,0.00035458699999999996,4.674,0,0
0.0006553615999999999,0.00015690234000000002,0.00017413422,0.0011452798000000002,0.0012928050000000002,4.675,0,0
0.0013942096000000002,-0.00010560366,-4.472838e-05,0.0010538494000000003,0.0021028422,4.676,0,0
0.001770668,-6.7390599999999815e-06,-9.413138e-05,0.0010566454,0.0023008562,4.677,0,0
0.002164866,0.0002558478000000001,-0.00011965617999999999,0.0010405354000000001,0.0023090024000000002,4.678,0,0
0.002201362,-1.1811199999999945e-05,-0.0003437178,0.00044081140000000013,0.0018563238000000003,4.679,0,0
0.0016793446000000001,-0.00030536319999999997,-0.0002868126,-0.00013001059999999997,0.0009048757999999999,4.68,0,0
0.0011554806,-4.5769999999999496e-06,-0.00023417523999999998,-9.290539999999993e-05,1.10778000000001e-05,4.681,0,0
0.00033253860000000016,-8.538639999999995e-05,-0.00021189834,-0.000259922,-0.0008205082,4.682,0,0
-0.0008964594,-0.0005140638,0.00018310326000000002,-0.000546628,-0.0016055945999999999,4.683,0,0
-0.0018328734000000002,-0.0005262994,0.0007618232600000001,-0.00022119400000000002,-0.001853704,4.684,0,0
-0.0020749984000000003,-0.0005069334,0.0009569210600000001,1.7301600000000004e-05,-0.0016348726,4.685,0,0
-0.0018561604000000005,-0.0005342136,0.0011681829000000001,7.74516e-05,-0.0018445806,4.686,0,0
-0.0016981464000000001,-0.00035498999999999996,0.0014150040000000003,0.0004272542,-0.0017267746,4.687,0,0
-0.0010464636,-0.00010594880000000001,0.0011668956,0.0008357916000000001,-0.0008017866,4.688,0,0
-6.262760000000009e-05,0.000401325,0.0006232522,0.0007850866,-0.0004094463999999999,4.689,0,0
0.00046033679999999994,0.0016116350000000002,0.00016192120000000002,0.0008404168,-0.0002376453999999999,4.69,0,0
0.0011272308,0.002558627,-7.434880000000003e-05,0.0012430748,0.0006472606000000001,4.691,0,0
0.0019526528,0.0020613778,-0.0004364776,0.0009529003999999999,0.0014347706000000001,4.692,0,0
0.0019532790400000003,0.000937834,-0.0008668791999999999,0.0004842864,0.0016409446,4.693,0,0
0.0015673364400000003,-0.0003285100000000003,-0.0011237197999999999,0.00035304659999999997,0.0020675224,4.694,0,0
0.0012746946400000003,-0.001829274,-0.0014264188,-0.00010981120000000015,0.0024589340000000003,4.695,0,0
0.0005241382400000001,-0.0023949139999999997,-0.0017640528,-0.0009436372000000001,0.0020350281200000003,4.696,0,0
-1.98356000000001e-06,-0.0016585420000000003,-0.0015426392,-0.0012576668,0.00110060612,4.697,0,0
-5.4487e-05,-0.00041919799999999997,-0.0008761892,-0.0010808856000000002,0.00010845811999999998,4.698,0,0
-0.0005972624,0.0004782086000000001,-0.0002980450000000001,-0.0011310148,-0.0008692438800000002,4.699,0,0
-0.0012152946000000002,0.0003666406,0.000485605,-0.0010632428,-0.0018434478800000002,4.7,0,0
-0.0010177642,7.668600000000095e-06,0.001309517,-0.0010110268000000002,-0.002175382,4.701,0,0
-0.000937775522,0.00015199060000000006,0.0014642222000000001,-0.0011140728,-0.0018162069200000001,4.702,0,0
-0.0013558091220000003,0.0006472766000000001,0.0014126222,-0.0012058554,-0.00158734092,4.703,0,0
-0.0009706763220000001,0.001790186,0.001315451,-0.001194531,-0.0012435469200000001,4.704,0,0
-0.000516326322,0.002821594,0.000591647,-0.0008082888,-0.00023067892000000012,4.705,0,0
-0.0008512183220000001,0.001629144,-0.000133249,-0.00045319939999999997,0.00070095508,4.706,0,0
-0.0006443572000000001,-0.0008984599999999998,-0.00036752160000000004,-3.9968399999999954e-05,0.001160518,4.707,0,0
0.00016444079999999994,-0.0028761740000000004,-0.000693518,0.000429335,0.001895378,4.708,0,0
0.000453642,-0.004419040000000001,-0.000838993,0.00061571,0.00242269,4.709,0,0
0.000810422,-0.004773887000000001,-0.00020570099999999997,0.0006174910000000001,0.002211508,4.71,0,0
0.001301974,-0.0032635690000000005,0.00012130719999999998,0.000709807,0.001559981,4.711,0,0
