bandpass 1,bandpass 2,bandpass 3,bandpass 4,bandpass 5,time,onset,mark
0.002379336,0.0009831294,0.0010423939999999999,7.857639999999999e-05,0.0028271340000000002,3.736,0,0
0.002605604,0.0006290054,0.001350198,-0.0002517396,0.0031637980000000002,3.737,0,0
0.002148726,0.00013757739999999997,0.0012782774,-0.0008930156,0.0025703260000000004,3.738,0,0
0.0008325960000000001,-0.0005663192000000001,0.0008136094,-0.001102328,0.0007035139999999999,3.739,0,0
-0.00045109199999999994,-0.00022471320000000015,0.0006030612000000001,-0.0013991278,-0.0012747960000000001,3.74,0,0
-0.0021549440000000002,0.00038089539999999994,-0.00027244079999999993,-0.002379068,-0.004260524,3.741,0,0
-0.003183486,0.0011159474,-0.0011334028000000002,-0.002633384,-0.006218062,3.742,0,0
-0.0029488960000000003,0.0022181294000000002,-0.0008880127999999999,-0.002265,-0.006253172,3.743,0,0
-0.0030113360000000003,0.0019137720000000002,-0.0006441308,-0.002400162,-0.006110172,3.744,0,0
-0.003385982,0.0002923760000000002,-0.0009245206000000001,-0.002247709,-0.005808464,3.745,0,0
-0.0023568012,-0.000701598,-0.0006662646000000002,-0.0009157710000000001,-0.0035370084000000005,3.746,0,0
-0.0012908251999999999,-0.001565312,-0.0001253266,0.0001334229999999998,-0.0013809684000000003,3.747,0,0
-0.0009526763999999999,-0.002549166,-6.158000000000004e-05,0.0008011309999999998,-0.00016401640000000004,3.748,0,0
0.0003934696,-0.0019656072,0.0002807700000000001,0.0020112710000000002,0.0024744976,3.749,0,0
0.0022203956,-0.0007367012000000002,0.0009739780000000001,0.002844586,0.0056708516,3.75,0,0
0.0027543848,-9.82992e-05,0.001270309166,0.0027474360000000002,0.0066403880000000005,3.751,0,0
0.0030913108000000006,0.0010847448000000002,0.0015434511660000001,0.0023969204000000004,0.006694928,3.752,0,0
0.0035453280000000004,0.0025588648000000004,0.0012902551660000001,0.0020316476,0.0068458239999999995,3.753,0,0
0.002584935,0.0031529900000000005,0.000167549166,0.0008715016,0.004477126,3.754,0,0
0.0010290370000000002,0.003042124,-0.0007425228340000002,-0.0002511264000000001,0.0007956180000000005,3.755,0,0
0.00019138219999999994,0.0027043286,-0.0009688060000000001,-0.0005879106000000001,-0.001085104,3.756,0,0
-0.0009901258000000002,0.001879672,-0.0017428260000000003,-0.001014165,-0.002675726,3.757,0,0
-0.0029099818,0.0008002208000000001,-0.002466568,-0.0015612882000000002,-0.005071348000000001,3.758,0,0
-0.0033658368,-0.00019168120000000004,-0.0018684220000000002,-0.0013334176000000001,-0.00579052,3.759,0,0
-0.0030214568000000003,-0.0012814572000000002,-0.001213428,-0.00083669,-0.005102392000000001,3.76,0,0
-0.0035451720000000005,-0.0013989678000000001,-0.0011827097999999997,-0.0007447628,-0.005210852000000001,3.761,0,0
-0.0029561693599999997,-0.0009039852000000002,-0.0010387178,-0.00011570879999999996,-0.004598900000000001,3.762,0,0
-0.0010068213599999998,-0.0017179040000000003,-0.0003917398,0.0009072872000000002,-0.00228607,3.763,0,0
0.00026402663999999993,-0.002903524,-0.00021165779999999994,0.0014204666000000002,-0.0007199479999999999,3.764,0,0
0.00129897064,-0.0028303240000000004,-0.00037659079999999995,0.0015913050000000003,0.0005042400000000002,3.765,0,0
0.00262191864,-0.0027730582,2.064600000000014e-06,0.001983644,0.0029420240000000005,3.766,0,0
0.0032294019999999997,-0.0031147704,0.0006297266000000001,0.0021377880000000003,0.004767644000000001,3.767,0,0
0.0031090119999999995,-0.0021645888,0.0011024666,0.0016321904000000003,0.005099928000000001,3.768,0,0
0.003088684,-0.0003851568,0.0013406626,0.0013951140000000002,0.005548048,3.769,0,0
0.0029068260000000004,0.0008210552000000001,0.0016085456,0.0014457780000000002,0.00569945,3.77,0,0
0.0018589960000000001,0.0011718492,0.0015500676,0.0006346100000000001,0.0035708159999999997,3.771,0,0
0.000833246,0.0014046814,0.0012371970000000002,-0.00027264799999999996,0.0008272179999999998,3.772,0,0
-6.199799999999985e-05,0.0018157198,0.0009978828000000001,-0.0004750284,-0.0009354080000000004,3.773,0,0
-0.001900918,0.0016789818000000002,0.0006711480000000001,-0.001137372,-0.003303994,3.774,0,0
-0.0033654600000000002,0.0011719266,0.0002454926,-0.0018714060000000002,-0.005537994,3.775,0,0
-0.0033085320000000003,0.0008789690000000001,-0.00017456100000000002,-0.0014764634000000003,-0.005553192,3.776,0,0
-0.003421646,7.58489999999999e-05,-0.0005573624,-0.0010690192000000001,-0.00485477,3.777,0,0
-0.0035864000000000004,-0.001069251,-0.0010237522,-0.0009409008000000001,-0.004983378000000001,3.778,0,0
-0.002393172,-0.0011580840000000002,-0.0011245010000000002,-0.00012583280000000004,-0.0036835422000000002,3.779,0,0
-0.000868936,-0.0004780228,-0.0009698560000000003,0.00041140900000000006,-0.0012681702,3.78,0,0
-5.60379999999999e-05,0.00011602500000000001,-0.0008406010000000001,0.0003446262,0.00015759179999999995,3.781,0,0
0.001100732,0.0011692630000000002,-0.0002978986,0.000586508,0.0023953318,3.782,0,0
0.0028231560000000003,0.002192869,0.0006702354000000001,0.0009965816,0.005546267800000001,3.783,0,0
0.0035207100000000002,0.0013639680000000001,0.001132315,0.000820505,0.007099828000000001,3.784,0,0
0.0033859620000000006,-0.00011148400000000002,0.0011082558,0.0004344452,0.0071300700000000005,3.785,0,0
0.003408762,-0.0006391938,0.0014680598000000001,0.00016995340000000006,0.0068372400000000005,3.786,0,0
0.0028384356,-0.0003213278000000001,0.0011272534,-0.00038082459999999997,0.004888002,3.787,0,0
0.0014092296000000003,0.0012428361999999998,-0.0002461686,-0.0010683506,0.001231828,3.788,0,0
0.0003954596000000002,0.0034586141999999997,-0.0010090426000000001,-0.001534296,-0.0012608339999999997,3.789,0,0
-0.0003582304,0.0038440582,-0.001043641,-0.0015558440000000002,-0.002779252,3.79,0,0
-0.0017273244,0.002185052,-0.0014287746,-0.001372526,-0.005002036,3.791,0,0
-0.002681694,0.00018801399999999959,-0.0017409906000000002,-0.0006796320000000001,-0.006103982,3.792,0,0
-0.002687974,-0.0025274320000000005,-0.0013687745999999999,0.00022883399999999992,-0.004996954,3.793,0,0
-0.002712276,-0.005133574,-0.0011988328,0.0007564292,-0.004239112,3.794,0,0
-0.002851166,-0.005124148,-0.0011700842000000001,0.0012027962,-0.0040803639999999995,3.795,0,0
-0.0021313134,-0.002433172,-0.0005023976000000001,0.0016989542,-0.0021283160000000003,3.796,0,0
-0.0009280293999999998,0.000377348,0.0004305004000000001,0.0017513302000000002,-5.062399999999998e-05,3.797,0,0
-0.0003818254,0.0022193900000000003,0.0009999384,0.0012794638,0.0004823780000000001,3.798,0,0
0.0006837906000000001,0.0031482398,0.0016323066,0.0015106546,0.002320522,3.799,0,0
0.0023694686,0.0027662298,0.0022710300000000003,0.0019724856,0.004847848,3.8,0,0
0.002848562,0.0011720958,0.002041216,0.0013614928,0.005407978,3.801,0,0
0.0026361754,-0.0008829142000000001,0.0018589779999999998,0.0006272048,0.005305088,3.802,0,0
0.0025343960000000004,-0.0024161722,0.001906606,0.00034373719999999995,0.005640562,3.803,0,0
0.0016167699999999998,-0.0034239780000000003,0.00113291,-0.0004956108000000001,0.0038812832,3.804,0,0
2.187999999999973e-06,-0.00351181,1.885599999999993e-05,-0.0015887608000000003,0.0007331551999999995,3.805,0,0
-0.00069817,-0.0028971474800000003,-0.0007116280000000001,-0.0017269500000000003,-0.0006204088000000002,3.806,0,0
-0.0010999334000000001,-0.0023629612800000004,-0.001366484,-0.0014297468000000002,-0.0022286008,3.807,0,0
-0.001897994,-0.0015185132800000006,-0.001969386,-0.0014094802000000001,-0.0046654748000000005,3.808,0,0
-0.001974222,-0.00051898688,-0.001904178,-0.0012016522000000002,-0.005457524,3.809,0,0
-0.0014058066,-0.00014248088000000012,-0.001101248,-0.0009417002,-0.004944534,3.81,0,0
-0.0010323086000000002,0.00011518059999999998,-0.0003299859999999999,-0.0011232142,-0.0052137220000000005,3.811,0,0
-0.0005367552000000002,0.0008228364,7.111020000000004e-05,-0.0013721754,-0.004448478,3.812,0,0
0.0006034048000000001,0.0008938024,0.0006846902,-0.001211718,-0.001767246,3.813,0,0
0.0010118994,0.0006284519999999998,0.0009077848,-0.00101415,-0.00011681400000000013,3.814,0,0
0.0005187060000000001,0.0006339839999999999,0.0004935180000000001,-0.0005672699999999999,0.0012875780000000002,3.815,0,0
0.0006411728,0.0004203662000000001,0.00033313699999999995,0.00019470200000000002,0.003636592,3.816,0,0
0.0007422874,0.00032457819999999997,0.0003147518,0.000713666,0.005445756000000001,3.817,0,0
2.0747399999999997e-05,0.0008072082000000001,0.00018010739999999996,0.001072552,0.005801334000000001,3.818,0,0
0.0003213888,0.0021779722,0.00038088879999999996,0.0011991230000000003,0.00629795,3.819,0,0
0.0012703848000000001,0.0039511742,0.0005448852,0.001057794,0.0065244560000000005,3.82,0,0
0.0005665500000000002,0.00487456,-1.4469800000000029e-05,0.00040261800000000015,0.004395868000000001,3.821,0,0
-0.00025289599999999996,0.005276678,-0.00046334880000000004,-0.0003730620000000001,0.0015480559999999995,3.822,0,0
-6.409140000000003e-05,0.005579298,-0.0006881106,-0.0007747522,-0.0005349560000000006,3.823,0,0
-0.0009356513999999999,0.0034655,-0.0014597746,-0.0013381592,-0.003102126,3.824,0,0
-0.0020590154,-0.0005670720000000005,-0.0021166302,-0.0017844002000000003,-0.005549536000000001,3.825,0,0
-0.0014899954000000002,-0.003129544,-0.0016824675600000004,-0.0013320224000000001,-0.0057917080000000004,3.826,0,0
-0.0009106982000000001,-0.004662276,-0.0010483797600000003,-0.0007301334,-0.00573255,3.827,0,0
-0.0010903508000000002,-0.005720935999999999,-0.0009726175600000001,-0.0005833516000000001,-0.006321946,3.828,0,0
-0.0008210312000000001,-0.004569915,-0.0003184441600000001,-0.00017414500000000003,-0.004978780400000001,3.829,0,0
-2.0339200000000037e-05,-0.002314109,0.00041299084,0.0002618658,-0.0027926404,3.83,0,0
0.00031383880000000004,-0.000942757,0.000371404,0.000257137,-0.0015632584000000002,3.831,0,0
0.0006549976000000001,-0.0005270359400000001,0.0008117382,0.00016205819999999999,0.0006785915999999998,3.832,0,0
0.0016156176000000002,-0.0006427575400000001,0.0018310942000000002,0.0003092066,0.0037433576000000003,3.833,0,0
0.0021345440000000004,-9.426654000000009e-05,0.0023071268000000003,0.0004716154,0.005105452,3.834,0,0
0.002273752,0.0008789274600000002,0.0024431498,0.0007857666,0.005243084,3.835,0,0
0.0027958120000000004,0.0012667872600000002,0.002828408,0.0012622376,0.006018714,3.836,0,0
0.0026514340000000003,0.0012903316,0.0023724574,0.0011252626,0.005767536,3.837,0,0
0.001278786,0.0012474266,0.0010949094000000002,0.0007857988,0.0029637180000000006,3.838,0,0
0.0004052299999999999,0.0010614046000000002,5.1559400000000095e-05,0.0006052174,0.0003133080000000002,3.839,0,0
-0.0004847500000000001,0.0004596184000000001,-0.0006629146,-0.00023866860000000005,-0.0015711499999999999,3.84,0,0
-0.0025264780000000004,-0.00012747339999999994,-0.0014900465999999998,-0.0013644666000000001,-0.004702384,3.841,0,0
-0.0038223980000000003,-0.0005407987999999999,-0.00254361,-0.0017201178,-0.007105122,3.842,0,0
-0.0034534339999999996,-0.0017266062000000002,-0.002686912,-0.0017560928000000002,-0.006458704000000001,3.843,0,0
-0.003331634,-0.0030678182000000004,-0.00224116986,-0.0017104508000000004,-0.005667658000000001,3.844,0,0
-0.003406596,-0.0028695645400000002,-0.00200759246,-0.0011179217999999999,-0.005394264000000001,3.845,0,0
-0.00196946,-0.00192594254,-0.0013552124599999998,-3.6789800000000235e-05,-0.0028721560000000003,3.846,0,0
-0.00033507799999999994,-0.0010489245400000004,-7.481445999999993e-05,0.0011128002,-7.370400000000017e-05,3.847,0,0
0.00040752400000000004,0.0003544134600000001,0.0005924615400000001,0.001736815,0.000961266,3.848,0,0
0.0015737940000000003,0.0014399348600000002,0.0009324914000000001,0.0022574450000000003,0.002861588,3.849,0,0
0.002982498,0.0014698550000000002,0.001574256,0.0027396060000000003,0.005379384,3.85,0,0
0.0035609020000000003,0.001277323,0.0015159817999999999,0.0024160064,0.0059700479999999995,3.851,0,0
0.003847608,0.001165599,0.0011727557999999998,0.0018573136000000002,0.005916108,3.852,0,0
0.003986524,0.0010686410000000002,0.0010508336,0.0015887616000000004,0.00633874,3.853,0,0
0.003013378,0.0012193516000000002,0.0006666916000000002,0.0008789524000000001,0.0049604968,3.854,0,0
0.0013209440000000001,0.002016092,-0.00020626240000000003,-0.00026361160000000006,0.0020596247999999998,3.855,0,0
-5.378800000000014e-05,0.0026315620000000005,-0.0006983702000000001,-0.0007811720000000001,0.0002513887999999997,3.856,0,0
-0.0014509319999999998,0.0013535340000000004,-0.0010328882,-0.0009252560000000002,-0.0017627752000000003,3.857,0,0
-0.0027928420000000002,-0.000249916,-0.0016547760000000002,-0.0013603260000000002,-0.004704381200000001,3.858,0,0
-0.00329333,-0.0006536965999999999,-0.0017317208,-0.0013183224000000002,-0.0060842760000000004,3.859,0,0
-0.002819668,-0.0009533845999999999,-0.0015156924,-0.0006847786000000001,-0.005919776000000001,3.86,0,0
-0.0024269955999999997,-0.0011100626,-0.0014562184000000001,-0.0005526126,-0.006201374,3.861,0,0
-0.0022264896,-0.00022986859999999995,-0.0009445458,-0.0006937998,-0.0057489920000000005,3.862,0,0
-0.0010352156,0.0009036974000000001,-3.7987800000000124e-05,-0.0002197198,-0.0032529720000000002,3.863,0,0
0.00016252640000000005,0.0005336000000000001,0.0002687458,0.0002957998,-0.00118375,3.864,0,0
0.0004997368,-0.00044387600000000006,0.0008878294000000001,0.000521222,0.0005193460000000001,3.865,0,0
0.0015652524,7.251600000000012e-05,0.0020896314,0.001292166,0.00361942,3.866,0,0
0.0029929944,0.0010249080000000002,0.0027440528,0.002089162,0.005859982,3.867,0,0
0.0029148064,0.0009960680000000001,0.0027909028000000003,0.0016721774,0.00601199,3.868,0,0
0.0027061144000000005,0.0007842320000000002,0.0027192664000000003,0.0007357774000000001,0.00608874,3.869,0,0
0.0028383122000000005,-4.793599999999994e-05,0.0024937804000000003,0.00027998780000000004,0.00604424,3.87,0,0
0.0012541082000000004,-0.002121612,0.0012546364,-0.0004902982,0.00327624,3.871,0,0
-0.0008077977999999999,-0.003368934,-7.288159999999989e-05,-0.0016755562000000002,0.00011101399999999999,3.872,0,0
-0.0017427618,-0.0030577670000000007,-0.0007553956,-0.0019581996,-0.0012589900000000002,3.873,0,0
-0.0030370558,-0.0019529550000000006,-0.00165559,-0.0018380816,-0.00379788,3.874,0,0
-0.004158524,0.000124793,-0.0022512160000000003,-0.0017460328,-0.006194562,3.875,0,0
-0.0038333280000000004,0.002141311,-0.0017180508,-0.0008242028000000002,-0.0057277149999999995,3.876,0,0
-0.0032744560000000007,0.002823729,-0.0012431678000000002,0.0002860031999999999,-0.004430888799999999,3.877,0,0
-0.0031299,0.0018361280000000002,-0.0013058518,0.0009854572,-0.0040964648000000005,3.878,0,0
-0.0021082682400000003,0.0006533800000000002,-0.0006068139999999999,0.0018818512,-0.0021805302,3.879,0,0
-0.00029520424,2.2947600000000146e-05,-9.102860000000001e-05,0.0022848160000000003,0.00041769380000000007,3.88,0,0
0.00092027776,-0.00041653239999999976,-0.000346172,0.0016220690000000003,0.0010864728,3.881,0,0
0.00217403776,-0.00013565639999999987,7.2209999999999636e-06,0.0013051066000000003,0.0023145426000000004,3.882,0,0
0.00387132376,0.00043722959999999996,0.000741673,0.0014231666,0.0047536105999999995,3.883,0,0
0.00485948,0.0008741615999999998,0.0009730504000000001,0.000982902274,0.006187490000000001,3.884,0,0
0.004638662,0.0011462380000000002,0.0009750794000000001,0.00031892027400000003,0.006003006000000001,3.885,0,0
0.004224586,0.001499922,0.001129709,1.3532740000000423e-06,0.005990098000000001,3.886,0,0
0.0033211982000000005,0.0006730008000000003,0.0009212574000000001,-0.0006200683260000001,0.005260252,3.887,0,0
0.0012970262,-0.0008950311999999995,0.00022749540000000003,-0.0017035943260000001,0.0023225400000000005,3.888,0,0
-0.0004523957999999999,-0.0009765071999999996,-0.00034517580000000003,-0.0020723060000000003,-0.0004853440000000002,3.889,0,0
-0.0018576278,-0.0010950911999999995,-0.0006793362000000001,-0.00202116,-0.0023928840000000005,3.89,0,0
-0.0036053258,-0.0025019891999999997,-0.0012581536,-0.002158028,-0.00466248,3.891,0,0
-0.004579012,-0.002096316,-0.001934902,-0.002019616,-0.006425694000000001,3.892,0,0
-0.004140948,0.0005619360000000001,-0.00195018,-0.0016107180000000001,-0.006270236000000001,3.893,0,0
-0.0035038676,0.0009771688,-0.0015682934,-0.0013109128,-0.005664428000000001,3.894,0,0
-0.0027708874000000002,0.00017883480000000006,-0.0010675274000000001,-0.0008852458000000001,-0.004869438,3.895,0,0
-0.0009226454000000001,0.0012842868000000002,-0.00015033339999999997,7.456199999999937e-06,-0.0025607800000000003,3.896,0,0
0.0008660586,0.0031963508000000004,0.0006726266,0.0008567081999999999,-0.00029012600000000003,3.897,0,0
0.0016104486000000002,0.0043011608,0.0011375786,0.0014025862,0.0008529920000000001,3.898,0,0
0.0023383942000000002,0.0027071,0.0017592840000000003,0.001755489,0.002819424,3.899,0,0
0.0028649940000000005,-0.0009264299999999994,0.0020896540000000003,0.001774212,0.0052200779999999995,3.9,0,0
0.00274193,-0.004048179999999999,0.001420816,0.0012873799999999999,0.005688816,3.901,0,0
0.0025823400000000002,-0.006577219999999999,0.0008910460000000002,0.0006080304,0.0055696,3.902,0,0
0.0026610820000000004,-0.007791347999999999,0.0008395628000000004,-3.611599999999923e-06,0.005919306,3.903,1,1
0.0019277668000000003,-0.005326544000000001,0.00011384100000000013,-0.0007402356,0.00418133,3.904,0,0
0.0005068108000000002,-0.0013013291999999998,-0.000855373,-0.0013981336,0.000684186,3.905,0,0
-0.0006525731999999997,0.0008613729999999999,-0.000761485,-0.0017511416,-0.0013062839999999996,3.906,0,0
-0.0020928632,0.001482153,-0.0005808136,-0.002013468,-0.0030168440000000003,3.907,0,0
-0.0036045452000000003,0.000875215,-0.0013679284000000002,-0.0019818220000000003,-0.005440206,3.908,0,0
-0.003909296,0.0001049252,-0.0015731206,-0.0012983440000000003,-0.005954714,3.909,0,0
-0.0026981000000000006,0.0005553024000000001,-0.0009712646000000001,-0.000491806,-0.004651898,3.91,0,0
-0.0018282398000000002,0.0009994322,-0.0008721034,8.4602e-05,-0.0039428020000000005,3.911,0,0
-0.0011212080000000003,0.0009732842,-0.0009075438,0.0009886080000000002,-0.003221572,3.912,0,0
7.644599999999998e-05,0.0013827942,0.0001349382,0.0019002160000000001,-0.0006751439999999999,3.913,0,0
0.0004345578,0.0011993266000000001,0.0008118502000000001,0.0017942922000000001,0.0011206839999999998,3.914,0,0
0.0003672458,0.0004346105999999999,0.0005822858,0.0016028484000000002,0.001536746,3.915,0,0
0.0011440776,0.0003151446,0.0008975186,0.0020269544000000002,0.00329223,3.916,0,0
0.0022984978000000003,0.00021715740000000002,0.001060396,0.0021429124000000004,0.005277966,3.917,0,0
0.0026390078000000003,-6.8765999999999944e-06,0.0006981270000000001,0.0017617724000000001,0.005446144,3.918,0,0
0.003020674,0.0005397507999999999,0.0005035354,0.0013892382000000002,0.0056113000000000005,3.919,0,0
0.0030120528,0.0017036847999999999,0.00047882445999999993,0.001091052,0.006256908,3.92,0,0
0.0017023988000000002,0.0022177808,4.5440659999999963e-05,0.00019340399999999994,0.004185286,3.921,0,0
0.0002755168,0.0021923454,-0.0003990697400000001,-0.0008514740000000001,0.0009977360000000002,3.922,0,0
-0.0005591532,0.0024233994,-0.0006365239400000001,-0.001239774,-0.0007541480000000001,3.923,0,0
-0.0015211652000000002,0.0019805928,-0.0011516923400000001,-0.001724656,-0.003457786,3.924,0,0
-0.002403786,0.0008417547999999998,-0.0013558726000000001,-0.002086308,-0.006612668,3.925,0,0
-0.002076395,0.0008325028,-0.0008386008,-0.0016372266,-0.007112356,3.926,0,0
-0.0017264446000000001,0.0017981614,-0.000388522,-0.0010625889999999999,-0.006386028000000001,3.927,0,0
-0.0018294466000000002,0.0023891214,-0.0005277228,-0.0007253384,-0.0065413680000000005,3.928,0,0
-0.0012687066,0.0020513,-0.0003212572,5.426920000000009e-05,-0.005065748,3.929,0,0
-0.0004911308,0.00028218800000000006,0.00011159840000000003,0.0007711392,-0.0019229620000000003,3.93,0,0
-0.0003555868,-0.002143138,-4.9515199999999935e-05,0.0004794142,-0.00029000800000000013,3.931,0,0
0.00012756679999999997,-0.003779316,0.000367284,0.00044931839999999996,0.00142164,3.932,0,0
0.0014748667999999999,-0.004732167800000001,0.001621192,0.0010152618000000002,0.004404074000000001,3.933,0,0
0.0025543928000000002,-0.0042509520000000005,0.0022411024,0.0015703382000000002,0.006538752000000001,3.934,0,0
0.0028214570000000003,-0.0019410584,0.0022076724,0.0019080802000000002,0.007171020000000001,3.935,0,0
0.0032080200000000007,-0.00042955359999999993,0.0022248194,0.0024129278,0.008261322000000001,3.936,0,0
0.003085450000000001,-0.00026283359999999996,0.0017484795999999998,0.0023175348000000003,0.008626396,3.937,0,0
0.0017297140000000003,-0.00028711724,0.00042403760000000003,0.0012698008000000002,0.006290888,3.938,0,0
0.000579524,-0.00025241863999999996,-0.00022317459999999996,0.0004957140000000002,0.004029301999999999,3.939,0,0
4.8265799999999974e-05,-0.00054228484,-1.0645999999999898e-06,-0.0005189959999999999,0.002156096,3.94,0,0
-0.0013657862,-0.000363200966,-6.578339999999992e-05,-0.001509674,-0.0006824380000000001,3.941,0,0
-0.0024389962,0.001164487034,-9.876500000000005e-05,-0.0018019747999999999,-0.003504796,3.942,0,0
-0.0013100462000000001,0.002588708474,0.0002900230000000001,-0.0013171578,-0.0032736073999999997,3.943,0,0
-0.0008840581999999999,0.003281664074,0.000377737,-0.0015835150000000002,-0.0037511654,3.944,0,0
-0.00050862,0.002898516674,-0.000488757,-0.0010444552000000002,-0.0037532074,3.945,0,0
0.0005854550000000001,0.0020870080000000004,-0.00022109160000000002,3.1608799999999866e-05,1.721260000000016e-05,3.946,0,0
0.0023171570000000002,0.00057686,0.00017568580000000008,-0.0018448912,-0.0015049294000000005,3.947,0,0
0.0019691530000000004,-0.002294514,-0.0017850562000000002,-0.0043240762000000005,-0.008582470000000002,3.948,0,0
-0.003586965,-0.004914164,-0.004434578,-0.0059462582,-0.015951534,3.949,0,0
-0.009858299000000001,-0.006054253999999999,-0.006682270000000001,-0.008240758,-0.025399740000000004,3.95,0,0
-0.014303778,-0.006095354000000001,-0.008890056,-0.009884802,-0.03568658,3.951,0,0
-0.018008772,-0.0056379204,-0.009865816000000001,-0.007764442,-0.037281680000000005,3.952,0,0
-0.01873391,-0.0036059703999999993,-0.0076467620000000005,-0.004103924,-0.030579656,3.953,0,0
-0.012173890000000001,-0.00026216840000000004,-0.0035272900000000006,-0.00013214400000000005,-0.019021155999999997,3.954,0,0
-0.0025200699999999997,0.0037373416,0.0014574299999999996,0.004869316,-0.0012702560000000009,3.955,0,0
0.00697749,0.005953145600000001,0.0063863800000000005,0.009183898000000001,0.017572664,3.956,0,0
0.015992250000000003,0.005709891200000001,0.010119204,0.012147938,0.034346264,3.957,0,0
0.02279698,0.0053505412,0.012480392,0.01334138,0.04792154,3.958,0,0
0.027356620000000005,0.0033843792000000004,0.01363596,0.013114894000000002,0.05653572,3.959,0,0
0.027850900000000005,0.0002818572,0.01323382,0.011035397999999998,0.05668772,3.96,0,0
0.024361784,-0.0005015308000000001,0.010403606,0.007349184,0.04910522,3.961,0,0
0.017812926,0.000559936,0.006784824000000001,0.0030390799999999996,0.03661164200000001,3.962,0,0
0.008521166,0.001237316,0.002688826,-0.0015572000000000003,0.018383221999999998,3.963,0,0
-0.002374114000000001,0.002372888,-0.002352834,-0.005790634000000001,-0.0028499780000000004,3.964,0,0
-0.012057554000000002,0.003474906,-0.006983333999999999,-0.009160118,-0.021677758000000002,3.965,0,0
-0.019305278000000002,0.0027937200000000004,-0.01022874,-0.011355784,-0.036367538000000005,3.966,0,0
-0.024529860000000004,0.0006607099999999999,-0.012496338000000001,-0.01215742,-0.04714186,3.967,0,0
-0.02617128,-0.0012952620000000004,-0.01305802,-0.0110695,-0.050453780000000004,3.968,0,0
-0.023542980000000005,-0.0029412120000000003,-0.011568554,-0.008176786,-0.04592402,3.969,0,0
-0.018706574000000004,-0.005489848,-0.0089142088,-0.004267928,-0.037276124,3.97,0,0
-0.012133008,-0.007019774000000001,-0.0050197448,0.0004476320000000001,-0.024146104,3.971,0,0
-0.003020308000000001,-0.0058022386000000006,-0.0002556567999999998,0.005244792,-0.006458044000000001,3.972,0,0
0.006391271999999999,-0.0036964546000000003,0.0042887032000000005,0.008532532,0.010776856,3.973,0,0
0.013856091999999999,-0.0013845126000000003,0.0079010772,0.010415238,0.025097296,3.974,0,0
0.019649246000000002,0.0023606373999999998,0.010529872,0.011367740000000001,0.037261,3.975,0,0
0.02281562,0.0050200814,0.011562392,0.010555918000000001,0.04409698000000001,3.976,0,0
0.02171806,0.0049296923999999995,0.010645742,0.007810200200000001,0.042903540000000004,3.977,0,0
0.017842562000000003,0.00387820884,0.008449728,0.0043256082,0.03579617,3.978,0,0
0.012206792000000001,0.0029405388399999996,0.005335482,0.0005256761999999997,0.024720404000000005,3.979,0,0
0.004236472000000001,0.0017378968400000002,0.0010397279999999997,-0.0036843238,0.009363324000000003,3.98,0,0
-0.004191987999999999,-9.065316000000012e-05,-0.0033144360000000005,-0.007174221800000002,-0.007159516,3.981,0,0
-0.011063408,-0.0016246475600000003,-0.006787033999999999,-0.009094884000000001,-0.020793256000000003,3.982,0,0
-0.01661485,-0.00282121,-0.009602300000000001,-0.009784982000000001,-0.031496586,3.983,0,0
-0.020050480000000002,-0.0037162120000000004,-0.011265094,-0.009545870000000001,-0.03838256,3.984,0,0
-0.01993094,-0.0035546220000000003,-0.01054374,-0.008005018000000001,-0.03901214000000001,3.985,0,0
-0.017290112,-0.002132802,-0.00793122,-0.0055111586000000014,-0.034252880000000006,3.986,0,0
-0.013278967999999999,-0.0005600494000000003,-0.004962052000000001,-0.0027520866000000006,-0.026620892000000007,3.987,0,0
-0.0070131740000000005,0.00031305859999999994,-0.0010441799999999998,0.0003586993999999999,-0.014880332000000005,3.988,0,0
0.0006120659999999992,0.0005202465999999998,0.0033529800000000006,0.0037197994000000003,-2.9711999999999447e-05,3.989,0,0
0.007324346000000001,0.00042163659999999985,0.006346552000000002,0.0067135474,0.013155808000000001,3.99,0,0
0.013019217999999999,0.0009837586,0.007873866000000002,0.008844968,0.024156228000000002,3.991,0,0
0.017764053999999998,0.00225364,0.008914272,0.009976314,0.03330062,3.992,0,0
0.01932734,0.002818458,0.008777932,0.009597378,0.03687270000000001,3.993,0,0
0.017257736000000003,0.002476358,0.007378762,0.0072998,0.03361486,3.994,0,0
0.013745526000000001,0.0017425420000000004,0.005653478,0.00377305,0.027224024000000003,3.995,0,0
0.008470946,0.0004502472000000002,0.003324016,-0.00020736400000000046,0.017419440000000005,3.996,0,0
0.0012400459999999994,-0.0008415153999999998,0.00016103599999999982,-0.004137962,0.0034987399999999993,3.997,0,0
-0.005566094000000001,-0.0012998654,-0.003067728,-0.007019602,-0.00948098,3.998,0,0
-0.01099791,-0.0009441494000000002,-0.005439638,-0.008520182000000001,-0.01986682,3.999,0,0
-0.015327780000000001,-0.0006701954000000001,-0.0072159680000000006,-0.00884822,-0.028829744,4.0,0,0
-0.01725252,-0.0006530076,-0.008206564000000001,-0.0077745800000000006,-0.03387138,4.001,0,0
-0.016211096,-0.0011186170000000001,-0.007457830000000001,-0.0056454470000000005,-0.03268778,4.002,0,0
-0.013587401999999998,-0.0018639430000000003,-0.0055864702000000006,-0.003228653,-0.027711162000000004,4.003,0,0
-0.0095657536,-0.0020074190000000003,-0.003951608,-0.000526641,-0.020247308000000006,4.004,0,0
-0.003872909600000001,-0.0016333530000000004,-0.0016949000000000005,0.002244985,-0.008811428000000001,4.005,0,0
0.0018867704,-0.0010340500000000001,0.001205476,0.004565111,0.003703732000000001,4.006,0,0
0.0066009264,1.4351999999999865e-05,0.003444292,0.00624775,0.014349152000000002,4.007,0,0
0.010773112400000001,0.0017847800000000001,0.004892886200000001,0.007136208,0.023306914,4.008,0,0
0.013959024,0.0029741460000000004,0.005792106000000001,0.007273692000000001,0.029791360000000003,4.009,0,0
0.014594780000000002,0.0029981260000000003,0.005722512000000001,0.006288702,0.031017180000000002,4.01,0,0
0.013214098,0.0028953520000000003,0.004653214,0.004079798,0.02728258,4.011,0,0
0.010855601999999999,0.003049922,0.0032875958,0.00145435,0.020929719,4.012,0,0
0.006400982,0.0026047320000000002,0.0013662838,-0.0011615100000000001,0.010886179000000001,4.013,0,0
0.00038218200000000044,0.000904304,-0.0007071881999999999,-0.003983372000000001,-0.0012697210000000014,4.014,0,0
-0.005015718000000001,-0.001038088,-0.0027525642,-0.0060626000000000005,-0.011345561,4.015,0,0
-0.009489396,-0.0026897120000000004,-0.0046154942000000004,-0.0067726999999999996,-0.018959681,4.016,0,0
-0.013137020000000003,-0.004285936000000001,-0.005893034,-0.00672838,-0.024832700000000003,4.017,0,0
-0.014181720000000002,-0.005220364,-0.006399402,-0.005562459600000001,-0.026634739999999997,4.018,0,0
-0.012363858,-0.0040922,-0.005870102000000001,-0.0033015936000000004,-0.023724700000000005,4.019,0,0
-0.0094143282,-0.0012278680000000004,-0.0045799732,-0.0011260456000000004,-0.019068208000000003,4.02,0,0
-0.0056517362,0.0018337300000000002,-0.0026175492,0.0006803004,-0.012838978000000001,4.021,0,0
-0.0007091481999999998,0.004172970000000001,-0.0001243492,0.0026666104,-0.003708138,4.022,0,0
0.0043172518000000005,0.0047155420000000005,0.0023448768000000004,0.003906488,0.005495262000000001,4.023,0,0
0.008211049800000002,0.003293656,0.004290160800000001,0.004147998,0.012867702000000002,4.024,0,0
0.011174420000000001,0.0011952460000000007,0.005971436,0.004458694,0.01955983,4.025,0,0
0.013092688000000002,-0.0008317039999999998,0.006727612000000001,0.00421945,0.024094700000000004,4.026,0,0
0.012663694000000001,-0.002652378,0.005743918,0.0030268515999999994,0.02401364,4.027,0,0
0.010031318000000001,-0.0018376479999999995,0.0041681248,0.0022179715999999998,0.020913156000000002,4.028,0,0
0.006503796,0.000986316,0.0026689572,0.0015645702000000002,0.01621273,4.029,0,0
0.0016046559999999999,0.0013298680000000001,0.0004274312000000002,-0.00025437380000000007,0.00804895,4.03,0,0
-0.0037541040000000003,0.00014521800000000013,-0.0019622548,-0.0017739238,-0.0015419300000000008,4.031,0,0
-0.007757718,0.00023270400000000003,-0.0035014788,-0.0025794334,-0.00964943,4.032,0,0
-0.010326602000000002,-0.000492664,-0.0047767396000000005,-0.0038963494000000005,-0.016579246,4.033,0,0
-0.01149183,-0.00264915,-0.005829638,-0.0048782880000000015,-0.02181156,4.034,0,0
-0.010418162,-0.0032624360000000005,-0.005629170000000001,-0.0042722540000000005,-0.02298,4.035,0,0
-0.007889914,-0.002355302,-0.0039802100000000005,-0.0029911464000000002,-0.02018981,4.036,0,0
-0.005450133,-0.00199249808,-0.0018741740000000002,-0.0019211264000000001,-0.016122070000000002,4.037,0,0
-0.0025099370000000003,-0.0017998120800000004,0.00033900399999999995,-4.614639999999987e-05,-0.009791354000000002,4.038,0,0
0.001097743,-0.00037174408000000003,0.00262366,0.0021249776000000003,-0.0012494739999999996,4.039,0,0
0.004656755,0.00121936392,0.004405758,0.0035509836000000004,0.006173106000000001,4.04,0,0
0.007507307000000001,0.0014195499199999998,0.0054456140000000005,0.004454914000000001,0.012243736000000002,4.041,0,0
0.009927726000000001,0.0012594244,0.006088902,0.00511547,0.017994316000000003,4.042,0,0
0.011112386000000002,0.0010957209999999998,0.006279496,0.005001892,0.020880400000000004,4.043,0,0
0.009879496000000001,0.000366453,0.005477132000000001,0.00413263,0.01946148,4.044,0,0
0.00750567,0.00013936900000000003,0.0040167078,0.00304009,0.01664061,4.045,0,0
0.004610672,0.0008250410000000001,0.0017951018000000004,0.0012160159999999997,0.011913424,4.046,0,0
0.0006497319999999999,0.0019654846,-0.0010809702,-0.0009998840000000001,0.003917164000000001,4.047,0,0
-0.003081196,0.002854744,-0.0031506282,-0.002566456,-0.0034520159999999996,4.048,0,0
-0.005588104000000001,0.0021175599999999997,-0.0044607822,-0.003583948,-0.008993576,4.049,0,0
-0.008083598,0.0004283519999999999,-0.005419696,-0.004471962,-0.014555846,4.05,0,0
-0.00975842,-0.0007054460000000002,-0.005544764000000001,-0.004576770000000001,-0.018389040000000002,4.051,0,0
-0.009206278,-0.002359514,-0.00467558,-0.0033653518,-0.0180496,4.052,0,0
-0.007901320000000002,-0.004207514000000001,-0.003868508,-0.0021291358,-0.01576519,4.053,0,0
-0.006220179800000001,-0.003973232,-0.003215086,-0.0013843050000000002,-0.012767730000000001,4.054,0,0
-0.0030635218000000003,-0.0024221800000000003,-0.001571532,0.000148051,-0.006704738,4.055,0,0
0.0005669602000000003,-0.001199538,0.00014603800000000003,0.0016489390000000003,0.00039696200000000027,4.056,0,0
0.0035165102000000005,0.00039747200000000006,0.0014043480000000001,0.0024695668000000006,0.005840082,4.057,0,0
0.006376504200000001,0.0029858440000000005,0.0029670399999999998,0.0032431708000000004,0.010897492,4.058,0,0
0.008738112000000001,0.005467872,0.004362602,0.0036666840000000003,0.015483311999999999,4.059,0,0
0.00884475,0.006021134000000001,0.004329504,0.003247516,0.016688679999999997,4.06,0,0
0.007394655400000001,0.0046830280000000005,0.003758082,0.002218986,0.015086858,4.061,0,0
0.005593569800000001,0.002852676,0.0031435767999999998,0.0009758200000000001,0.012648163999999998,4.062,0,0
0.0028839118,0.00016805999999999993,0.0015307348,-0.0007997020000000001,0.007254746,4.063,0,0
-0.0005191602,-0.002585872,-0.0003483412,-0.002524992,-8.229400000000012e-05,4.064,0,0
-0.0030244662,-0.0035073,-0.0017042012,-0.0038318940000000006,-0.005557974,4.065,0,0
-0.0045970836,-0.0033232640000000003,-0.0025069192,-0.004431928000000001,-0.009609172,4.066,0,0
-0.006250904,-0.002657492,-0.003264022,-0.0042867520000000004,-0.013420238000000001,4.067,0,0
-0.0069613900000000005,-0.0007611299999999999,-0.003443578,-0.0035814732,-0.01457772,4.068,0,0
-0.00613388,0.00037139,-0.0025855525,-0.0022155872,-0.012380706,4.069,0,0
-0.0048171334000000005,-0.00010148400000000021,-0.0018624391,-0.0010008646,-0.009984429,4.07,0,0
-0.0033052358000000004,-0.0001393700000000002,-0.0012309359,0.0001603288,-0.006937149000000002,4.071,0,0
-0.0006409718000000002,-0.0004202740000000001,2.2962100000000103e-05,0.0012347288,-0.0014921150000000005,4.072,0,0
0.0019174042,-0.0013394946000000003,0.0009837101,0.0019320980000000001,0.003891645,4.073,0,0
0.0033790182,-0.0012567966,0.0014832226,0.002404116,0.0077087710000000005,4.074,0,0
0.0051929435999999995,-0.00013815660000000005,0.0024474132,0.0029379674,0.011020914,4.075,0,0
0.0066493920000000005,0.0004927432,0.003090882,0.003459932,0.013309834,4.076,0,0
0.0061022920000000005,0.0007926152000000002,0.002719066,0.0030376520000000005,0.012790438000000001,4.077,0,0
0.004774389600000001,0.0010410878000000003,0.0021305916,0.0018977240000000004,0.01046939,4.078,0,0
0.0035122168,0.0006005138000000001,0.00144236,0.0004495520000000001,0.007408558000000001,4.079,0,0
0.0010695348,-6.883619999999998e-05,0.00021713000000000006,-0.0012545859999999998,0.002539998,4.08,0,0
-0.0017011472000000001,-9.407959999999998e-05,-0.00084876,-0.0028507740000000004,-0.0028086020000000003,4.081,0,0
-0.0033869012000000004,0.00022071960000000001,-0.001464012,-0.003771126,-0.006177894000000001,4.082,0,0
-0.0045294268,-0.00018459320000000003,-0.0018294776000000001,-0.00399397,-0.008581426,4.083,0,0
-0.005501677999999999,-0.0010775832,-0.002208192,-0.0036803240000000004,-0.011126494,4.084,0,0
-0.005270634,-0.0017269872000000002,-0.0025072700000000002,-0.0022839020000000004,-0.010857794,4.085,0,0
-0.0041627854,-0.0019023736000000002,-0.002371686,-0.0004510060000000001,-0.00817623518,4.086,0,0
-0.0032650294,-0.0020134848,-0.0021075630000000002,0.0007924539999999999,-0.00652302518,4.087,0,0
-0.0020601960000000002,-0.0015648,-0.0013164890000000001,0.001925998,-0.0038304331800000004,4.088,0,0
-0.00025805199999999993,0.0005520200000000001,5.0272999999999984e-05,0.0030968820000000005,0.0011676268200000004,4.089,0,0
0.0013034000000000001,0.0037448380000000003,0.0013118230000000002,0.003081092,0.00446483682,4.09,0,0
0.0027744374000000004,0.005678852,0.001950335,0.0025182800000000003,0.006006466,4.091,0,0
0.0045694074,0.005815711,0.002294918,0.0027420860000000003,0.00829441,4.092,0,0
0.005000986000000001,0.0045384990000000005,0.002343174,0.0026607980000000002,0.009238998,4.093,0,0
0.004115588000000001,0.0017744470000000002,0.0017360720000000002,0.0017748104,0.007627852,4.094,0,0
0.0034484140000000003,-0.0010716470000000002,0.0010242738,0.0011578904,0.00631198,4.095,0,0
0.0019762362,-0.003015007,0.00022600380000000007,0.0002272343999999999,0.0048450342,4.096,0,0
-0.0005185617999999999,-0.0034371120000000004,-0.0009527582,-0.0014660316000000002,0.0010409742000000006,4.097,0,0
-0.0017362317999999998,-0.0024491236000000003,-0.0021091502000000002,-0.0021929416,-0.0024620998,4.098,0,0
-0.0021105898000000002,-0.0015297436,-0.0026296082000000004,-0.0021737632,-0.0046302198,4.099,0,0
-0.0033019398000000005,-0.0019681696,-0.0026771334000000005,-0.0023630912,-0.0071475098,4.1,0,0
-0.0038999280000000004,-0.0022857196,-0.0021414258000000005,-0.001834787,-0.009023228,4.101,0,0
-0.0031495480000000003,-0.0019971136000000002,-0.0008875198000000003,-0.0007600718,-0.008126438,4.102,0,0
-0.0026226842,-0.0019992394,-0.00012883120000000008,-0.0006655106,-0.0062377722,4.103,0,0
-0.0024541542,-0.0014248406000000001,0.00010549119999999997,-0.0007223533999999999,-0.0047649642,4.104,0,0
-0.0010713062,0.0001513494000000002,0.0007998186000000001,5.032060000000001e-05,-0.0018288242000000002,4.105,0,0
0.0008720738000000001,0.0017179674,0.001237259,0.0005976784000000001,0.0017324197999999999,4.106,0,0
0.0018342538,0.0021945854000000003,0.0014528090000000002,0.0008441152000000002,0.0040516398,4.107,0,0
0.002842084,0.0023245346000000003,0.0021241664000000004,0.001290948,0.005695908,4.108,0,0
0.004632366,0.0024476618000000006,0.0027183960000000005,0.001753494,0.007905446,4.109,0,0
0.005127741999999999,0.0026062198,0.0025348320000000003,0.0015706268,0.008532932000000002,4.11,0,0
0.004306277999999999,0.0024231018,0.001953326,0.0011084862,0.0070175920000000004,4.111,0,0
0.00405173,0.0014953178000000002,0.0017260560000000001,0.0006271744,0.005665228400000001,4.112,0,0
0.0027958760000000005,4.5289999999999914e-05,0.0012320538,-3.793760000000008e-05,0.0036528124000000006,4.113,0,0
0.00020711999999999987,-0.00155778,0.0003717498,-0.0006342036000000001,-1.5251599999999968e-05,4.114,0,0
-0.0014550260000000003,-0.0029524600000000005,-0.00018415820000000004,-0.0009276574,-0.0029293816,4.115,0,0
-0.002768496,-0.0038021064,-0.0007963242000000001,-0.001120345,-0.0041865956,4.116,0,0
-0.004595966,-0.0032667850000000008,-0.0020757722,-0.0014601012000000002,-0.006017646,4.117,0,0
-0.00498448,-0.0017658670000000006,-0.0028549560000000005,-0.0012774852000000001,-0.00712627,4.118,0,0
-0.0038039978,-0.00030223639999999997,-0.0025448784,-0.0006355912000000001,-0.005850887999999999,4.119,0,0
-0.003286191,0.0005197444000000001,-0.0021312122,-0.00029530440000000006,-0.004892786,4.12,0,0
-0.002583525,0.0005840968,-0.0013424280000000001,-0.00021327320000000003,-0.004339078,4.121,0,0
-0.0006228869999999999,0.00023540740000000006,0.0002515900000000001,0.0004498468,-0.0017578440000000002,4.122,0,0
0.0006873670000000001,-0.00036832860000000006,0.0015392440000000002,0.0008581088,0.000696052,4.123,0,0
0.0009194466000000001,-0.0007229492,0.0014848622,0.0006060084,0.001379626,4.124,0,0
0.0016264098,-0.0007806846,0.0008757660000000003,0.0007772786000000002,0.002722496,4.125,0,0
0.0025934878,-0.0006983146000000001,0.0005006958000000001,0.0010317898,0.004458228,4.126,0,0
0.0024133558,-9.958060000000003e-05,-7.85588e-05,0.000655548,0.004123336,4.127,0,0
0.0017761946000000002,0.0006719874000000001,-0.00037259480000000013,0.00047128040000000016,0.00321261038,4.128,0,0
0.0013706788000000002,0.0011366214000000001,0.0001431534,0.0006432008000000002,0.00301147838,4.129,0,0
0.0003499568000000001,0.0009138114000000002,0.0005587074,-5.765920000000001e-05,0.00147497638,4.13,0,0
-0.0010864872,0.0003181274,0.0006201872,-0.0004917354,-0.0008898736200000001,4.131,0,0
-0.0019970312,9.123619999999998e-05,0.0004337,-0.00029493440000000003,-0.0015804168200000003,4.132,0,0
-0.002250792,0.0004169002,-0.000142386,-0.0005982048,-0.0017742562000000004,4.133,0,0
-0.00232021,0.0006486981999999999,-0.000800378,-0.0011925968,-0.0029379222,4.134,0,0
-0.001743428,0.0014999848,-0.0010763720000000001,-0.0009525374000000002,-0.002777338200000001,4.135,0,0
-0.0007457560000000001,0.0035571868000000006,-0.0013029458,-0.0005636864000000001,-0.0016679428000000002,4.136,0,0
-0.00041042740000000013,0.005069688,-0.001426844,-0.0010141536,-0.0023082756,4.137,0,0
0.00011836579999999997,0.005167698,-0.0008036600000000001,-0.0005796094,-0.0025661366000000003,4.138,0,0
0.0013885018000000002,0.0034852399999999997,-6.828199999999991e-05,0.00033840460000000004,-0.0005891245999999999,4.139,0,0
0.0017427838000000002,0.0008864980000000003,0.00026301140000000003,0.0006902152000000001,0.00032265940000000023,4.14,0,0
0.0015644664000000004,-0.0015018599999999998,0.0008104258,0.0011144702,0.0005832780000000002,4.141,0,0
0.0021616278000000004,-0.003441232,0.0016476958,0.0019700882,0.002731974,4.142,0,0
0.0020986212000000002,-0.004176638,0.0016352798000000002,0.002068218,0.0043146140000000005,4.143,0,0
0.0011389222000000002,-0.0031238696,0.0008459138000000001,0.0011792559999999998,0.003755436,4.144,0,0
0.0008352878,-0.0014871276,0.0003429423999999999,0.0008874865999999999,0.0036691299999999996,4.145,0,0
0.0005062471999999999,-0.0012722016,0.00010209940000000003,0.0006337025999999999,0.003581484,4.146,0,0
-0.0004337148,-0.0018756916,-0.0005553908000000001,-0.00019309340000000008,0.0009789519999999997,4.147,0,0
-0.00032266339999999997,-0.00192740864,-0.0010200216,-0.0007105954000000001,-0.0011470460000000003,4.148,0,0
-7.410840000000006e-05,-0.00197157424,-0.0005454506,-0.0003851754,-0.0014807608000000003,4.149,0,0
-0.0004138488000000001,-0.00251827424,-4.887039999999996e-05,-0.000556162,-0.0023417368000000004,4.15,0,0
-0.00029451200000000003,-0.00213881424,-0.0002219098,-0.0010501862000000001,-0.0029117368,4.151,0,0
2.2702599999999975e-05,-0.00128220604,-0.0003158818,-0.0005765732000000001,-0.0015086208,4.152,0,0
-0.00018107140000000004,-0.0014458784,-0.000149447,-0.0002569542,-0.0007915207999999999,4.153,0,0
-0.0007972054,-0.0011032326,-0.0006994060000000001,-0.00044649420000000004,-0.002050558,4.154,0,0
-0.0004388142,2.6223399999999943e-05,-0.0008084326,-0.0002708432,-0.001960218,4.155,0,0
0.00012803299999999994,0.0007848614,-0.00012767659999999995,-4.822599999999999e-05,-0.00119118,4.156,0,0
1.7128400000000017e-05,0.0015628412000000002,0.00017181119999999997,-0.0005775090000000001,-0.0016226260000000003,4.157,0,0
3.9342200000000004e-05,0.0031179466,0.00048474920000000004,-0.0007929604,-0.0012212864,4.158,0,0
0.0006806722000000001,0.0047179480000000005,0.0011523432000000002,-0.00028435040000000003,0.0009578416000000002,4.159,0,0
0.0006276570000000001,0.005484312,0.0015204416000000002,2.6756600000000055e-05,0.0019460976000000004,4.16,0,0
-4.686499999999991e-05,0.005044152,0.0011924306,0.0003632756,0.0015285276000000002,4.161,0,0
0.00037661360000000013,0.0027069900000000003,0.0009945278,0.0012808856,0.0027198876,4.162,0,0
0.00017858560000000005,7.698799999999962e-05,0.0008725758000000002,0.001689786,0.003174392,4.163,0,0
-0.0008690904,-0.0005890240000000003,0.00028872380000000006,0.001068052,0.0012293260000000002,4.164,0,0
-0.0010026177600000001,2.5119999999999787e-05,-0.00033861220000000003,0.00050695,0.00048769580000000007,4.165,0,0
-0.00068099036,0.0003961939999999999,-0.0005148648,-0.00022078400000000002,0.0006459514000000002,4.166,0,0
-0.00106722696,0.0004091899999999998,-0.0006872196000000001,-0.0015001620000000002,-0.0010085166,4.167,0,0
-0.0011023027599999999,-0.0004221400000000001,-0.0007933048000000002,-0.002561326,-0.0022115346,4.168,0,0
-0.00030017575999999996,-0.002165258,-0.00034439260000000005,-0.0027513380000000003,-0.0012845656,4.169,0,0
-0.0005162856,-0.0041727299999999995,-0.0002130066,-0.0028879640000000007,-0.0016043954,4.17,0,0
-0.0008596610000000001,-0.005251826,-0.000546119,-0.002791286,-0.003020521,4.171,0,0
-0.000310571,-0.004115662,-0.000473954,-0.0017994240000000002,-0.0023793900000000003,4.172,0,0
-9.379073999999998e-05,-0.0023618320000000003,-0.00058833636,-0.0005888220000000001,-0.0012802100000000004,4.173,0,0
-0.00016742754,-0.0019055380000000002,-0.00106242056,0.0007949899999999999,-0.0010298070000000002,4.174,0,0
0.0003626584600000001,-0.0017685556000000002,-0.0007330227600000001,0.002393236,0.00030755099999999977,4.175,0,0
0.00113059246,-0.0010990442,-0.00011123076000000003,0.0032151280000000003,0.0025166470000000003,4.176,0,0
0.00089639486,-0.0001351382,-0.00019488576000000008,0.0029174828,0.0027812068,4.177,0,0
0.0006823086000000001,0.0014881198,-0.0004891102000000001,0.0025947924,0.0018592608000000002,4.178,0,0
0.0013410484000000002,0.0027191178000000003,-0.00016580752000000003,0.0019744024,0.0016048644,4.179,0,0
0.0010791664,0.0030106216,-0.00012468412000000002,0.0006970428000000001,0.0006712584000000001,4.18,0,0
0.0001824164,0.0032175162,-0.00037740812000000004,-0.0001885092,-0.0005940936000000001,4.181,0,0
0.00046750000000000003,0.0029354784,-3.5419320000000044e-05,-0.00023190759999999996,-0.00019505240000000006,4.182,0,0
0.001024888,0.0017263528,0.00041423948,-0.00021220859999999996,0.0013191456,4.183,0,0
0.00010366600000000003,0.0007741956000000001,0.0006286108,-0.0005820432,0.0016737359999999999,4.184,0,0
-0.00031647800000000003,0.0007987862000000001,0.0006064878,-0.0004852898,0.0016216984,4.185,0,0
2.6764600000000025e-05,0.0004155182000000001,0.0009925258,-1.3305200000000037e-05,0.0021030086,4.186,0,0
-0.0007562774,-0.000271418,0.001151109,-7.512260000000005e-05,0.0009873946000000001,4.187,0,0
-0.0012839654,-0.0004308598,0.0007244721999999999,-0.0002492394000000001,-0.0009089474000000001,4.188,0,0
-0.0008916891999999999,-0.0005620798,0.0005279886000000001,-6.313680000000004e-05,-0.0013957718000000001,4.189,0,0
-0.0007364612,-0.0011126826,8.926239999999997e-05,-0.0004016166000000001,-0.0019015182000000001,4.19,0,0
-0.0010478237999999999,-0.0014273286,-0.0004919116,-0.0008776372,-0.0025581604000000004,4.191,0,0
-0.0006361531999999999,-0.0012956966,-0.0002841495999999999,-0.00039570220000000007,-0.0017008884000000001,4.192,0,0
-0.0001570571999999999,-0.0013765691999999999,0.00020526840000000001,-9.198000000000013e-05,-0.0006284564,4.193,0,0
-0.00028236679999999993,-0.0009428859999999999,-0.000120596,-0.00035598840000000004,-0.0007710340000000001,4.194,0,0
3.4143200000000016e-05,0.0003077580000000001,-0.00028476199999999993,-0.00023924240000000003,-0.00018264603999999996,4.195,0,0
0.00040734760000000006,0.0016431960000000002,-0.00012211399999999994,-0.00013525840000000008,0.00085321996,4.196,0,0
0.000108315,0.0025806,-0.0006498368,-0.0006850284000000001,0.00015576595999999994,4.197,0,0
8.8143e-05,0.0031660900000000003,-0.0009622576000000001,-0.0011340484,-0.00010431404000000008,4.198,0,0
0.0006255904,0.0027665648000000003,-0.0005244476,-0.0008103456000000002,0.00110925396,4.199,0,0
0.0006535353999999999,0.0014249328000000003,-2.7450000000000017e-06,-0.00041629600000000003,0.0012694044,4.2,0,0
0.00034022499999999994,0.00016317680000000023,0.00012519700000000001,-0.00014722180000000006,0.00074404456,4.201,0,0
0.0004580169999999999,-0.0010638452,0.0002993698,0.0004838002,0.00164547656,4.202,0,0
0.000379007,-0.0022079052,0.0006308446,0.0011392882,0.00168212056,4.203,0,0
-0.00048757900000000003,-0.002637214,0.0006795146,0.0012874738,-0.00042746944000000007,4.204,0,0
-0.000642308,-0.0021783165800000003,0.000729021,0.0013779982000000001,-0.00117935184,4.205,0,0
9.687399999999994e-05,-0.00148861658,0.000645053,0.0015994060000000003,-0.0008498840000000002,4.206,0,0
0.00019613299999999997,-0.0004564905799999999,0.00036045939999999996,0.0009194699999999999,-0.001840232,4.207,0,0
1.922279999999994e-05,0.00031164682000000003,0.0002625004,-8.3182e-05,-0.00230929,4.208,0,0
0.0007828188000000001,0.00013504481999999994,0.0005786624,-0.0002677015999999999,-0.0006140660000000002,4.209,0,0
0.0009365674,-0.0007338065999999999,0.0003617318,-0.0002365495999999999,0.000249722,4.21,0,0
0.0003242612,-0.0015262086,-0.0005362582,-0.00016102560000000007,-0.0009028840000000001,4.211,0,0
0.0005873230000000001,-0.0014510826000000002,-0.0007596326,0.0005177824000000001,-0.000636008,4.212,0,0
0.00030116920000000007,-0.0014991950000000003,-0.001053563,0.0012639202,0.00010637199999999998,4.213,0,0
-0.0006382968000000001,-0.001321279,-0.0017007863999999998,0.0009239278,-0.000532555,4.214,0,0
-0.000582514,9.239099999999994e-05,-0.0013929308,0.00017412379999999993,0.0001484390000000001,4.215,0,0
7.063019999999998e-05,0.002477793,-0.0005245646000000001,-0.0005426022,0.001967415,4.216,0,0
0.00025458939999999997,0.004386361,-4.553200000000001e-05,-0.0012294062000000002,0.0021446238000000003,4.217,0,0
0.00052796094,0.004608746000000001,0.00022256439999999997,-0.0012752288000000003,0.0017670184,4.218,0,0
0.00113458114,0.00326316,0.00027368399999999995,-0.0009108070000000002,0.0022870894,4.219,0,0
0.00064305174,0.0007770660000000005,0.00011692559999999997,-0.000636207,0.0012996692000000001,4.22,0,0
-0.00070611826,-0.002056408,-1.3760000000000031e-05,-0.00041188300000000004,-0.00037891279999999997,4.221,0,0
-0.00150019826,-0.004921092,-0.00018999020000000003,-5.635020000000004e-05,-0.0003005728,4.222,0,0
-0.0018677598,-0.0057738120000000006,-0.00026748320000000007,-0.0003684558,-0.00035292479999999996,4.223,0,0
-0.002302854,-0.0040616996,-0.00039919140000000005,-0.0007336176000000001,-0.0015905927999999999,4.224,0,0
-0.0020549546,-0.0022444430000000005,-0.0006691490000000001,-0.0007484996000000001,-0.0022144846000000003,4.225,0,0
-0.0009284346000000001,-0.0012734918,-0.0007027416,-0.0010614136,-0.0016917816,4.226,0,0
-0.00023674860000000005,-0.00033572780000000013,-0.000546025,-0.0014975484000000002,-0.0022489764000000003,4.227,0,0
0.00023288539999999998,0.0009531362000000001,-0.00041588019999999994,-0.001790364,-0.0030226790000000003,4.228,0,0
0.0007721874,0.0014684798,-9.840300000000001e-05,-0.001304178,-0.001873705,4.229,0,0
0.0007934280000000001,0.0020357432,0.000320317,-0.00036308200000000014,-0.0007872689999999998,4.23,0,0
0.0006363300000000001,0.0029286280000000004,0.000593547,0.0004933259999999999,-0.000469852,4.231,0,0
0.0008517900000000001,0.0025609496000000005,0.0007305444,0.001309428,0.001198012,4.232,0,0
0.0012822900000000002,0.0012616336,0.0008133056,0.0019273528,0.0033006760000000002,4.233,0,0
0.0014162040000000001,0.0005570936,0.0009104852,0.0016857248,0.0031144876,4.234,0,0
0.0015943572,0.00040044360000000004,0.0010544892,0.0011949968,0.0026855652600000003,4.235,0,0
0.0017287772000000002,3.234959999999997e-05,0.0008944418000000001,0.0012360128000000001,0.00308765326,4.236,0,0
0.0010961116,8.453000000000006e-05,0.0002708194,0.0011771108000000001,0.00172031726,4.237,0,0
0.00022461759999999997,0.00048318800000000017,8.880220000000002e-05,0.0012413480000000002,8.453325999999996e-05,4.238,0,0
-0.00017278800000000005,0.0006991124000000001,0.0005338514,0.0014423448000000002,0.0004897756599999999,4.239,0,0
-0.0009958292000000002,0.0003886988000000001,0.0007240494000000001,0.0010744504000000002,0.0001344199999999999,4.24,0,0
-0.0021228932,-0.00015785896000000002,0.0006919886,0.0002051844,-0.0014932160000000001,4.241,0,0
-0.0023126736,-0.00046281956,0.0006953066000000001,-0.00025733799999999997,-0.001286482,4.242,0,0
-0.0023120175999999997,-0.00034356456,0.0005101660000000003,-0.000574065,-0.0008573680000000001,4.243,0,0
-0.002606062,0.00032903304,-7.359059999999999e-05,-0.0011014038,-0.001981768,4.244,0,0
-0.00146384,0.0008614766400000002,-0.0007060744,-0.0010672256000000002,-0.0017330811999999999,4.245,0,0
0.00022305800000000015,0.0008017138000000002,-0.0005366128,-0.0008962616000000002,-0.00029760520000000006,4.246,0,0
0.000313706,0.00020839840000000007,-5.7414400000000004e-05,-0.0009891228,-0.00047104660000000007,4.247,0,0
0.0004971165999999999,-0.0005289366000000001,0.0003078314,-0.0006438938,-0.00025110660000000006,4.248,0,0
0.0015229266000000002,-0.0014166446,0.00065263,7.50620000000002e-06,0.0012414774,4.249,0,0
0.0014333526000000001,-0.0022932066,0.0006965153999999999,0.0003947364,0.0016694926,4.25,0,0
0.00040772059999999997,-0.0020219260000000003,0.00045511239999999995,0.0007769952,0.0014433682,4.251,0,0
0.0006462028000000001,7.172799999999985e-05,0.00012105800000000006,0.0010857856000000001,0.0021967196,4.252,0,0
0.0011138182,0.001928606,-0.000509732,0.0007603766,0.0024575336,4.253,0,0
0.00026294320000000003,0.0022159306,-0.00127223,-0.00017124540000000002,0.0005670956000000001,4.254,0,0
-0.00013325879999999998,0.0021906205999999997,-0.0012939822,-0.0009504054000000001,-0.0008711483999999999,4.255,0,0
0.00035874320000000003,0.0018464033999999996,-0.0010232300000000002,-0.0014389862000000002,-0.001223039,4.256,0,0
0.00033747,0.0010183374,-0.0009599720000000001,-0.002100745,-0.002721135,4.257,0,0
-0.00020002000000000005,0.0008133174,-0.0009200400000000001,-0.0020988552,-0.004086117,4.258,0,0
7.85431999999998e-06,0.0015876908,-0.0005666680000000001,-0.0011391352000000004,-0.0032027908000000003,4.259,0,0
0.00030798432,0.0013261307999999999,-0.0004079502000000001,-0.00046402360000000014,-0.0021508334000000006,4.26,0,0
-0.00028037968,-8.952000000000027e-05,-0.0005431300000000001,-1.2646400000000056e-05,-0.0024120944,4.261,0,0
-0.00033969068,-0.0013180720000000002,3.459999999999992e-05,0.0006352972000000001,-0.0013751856,4.262,0,0
0.00032505132000000005,-0.003060612,0.0005017852,0.0008409186000000001,8.381639999999993e-05,4.263,0,0
0.00038460560000000004,-0.004866144,0.0004098194,0.0007429746000000001,0.0002381196,4.264,0,0
0.0006667356,-0.004904356,0.0007131501999999999,0.0012589610000000003,0.0013850002000000002,4.265,0,0
0.0017616736,-0.0036092120000000005,0.0010123714,0.0021232878,0.0032572102,4.266,0,0
0.0021053656,-0.0024296100000000004,0.00067603988,0.0024303102,0.0035664334,4.267,0,0
0.0019465176000000002,-0.0008016379999999999,0.0008683906799999999,0.0025224839999999998,0.0033944654,4.268,0,0
0.0021769560000000003,0.000830922,0.0011729604799999998,0.0023322254,0.004154004,4.269,0,0
0.0013005380000000002,0.0016943502000000001,0.0008925980800000001,0.0012784514,0.0030339502,4.27,0,0
-0.0002714099999999999,0.0019806542,0.00084652448,4.479400000000078e-06,0.0002986782,4.271,0,0
-0.0006772131999999999,0.0017843882,0.000600438,-0.0007141086000000001,-0.00048795579999999993,4.272,0,0
-0.0011471582,0.0012196730000000001,2.544e-05,-0.0012480146,-0.0011068038,4.273,0,0
-0.0021135342000000003,0.00040719820000000007,-0.000409574,-0.001959498,-0.0031876218,4.274,0,0
-0.0021856902,-3.4094e-05,-0.0004554198000000001,-0.002331132,-0.003981628000000001,4.275,0,0
-0.0019635862000000003,-0.000533032,-0.00033480819999999993,-0.00224659,-0.0027120664000000005,4.276,0,0
-0.0025540750000000003,-0.0012752600000000003,-0.0002826968,-0.0020083825999999997,-0.0026216304000000004,4.277,0,0
-0.00269751,-0.0013114414000000001,-0.00020272820000000002,-0.001524204,-0.0030714724000000006,4.278,0,0
-0.001476594,-0.0004534566000000003,-4.095920000000001e-05,-0.000389604,-0.0011412264,4.279,0,0
-0.00035262800000000023,0.0005949893999999999,-0.00040954100000000003,0.0007290020000000001,0.0003644456000000001,4.28,0,0
0.00043981400000000007,0.0017437913999999999,-0.0012560750000000002,0.00118169,0.0003609284,4.281,0,0
0.001631842,0.0034119414,-0.0009557202,0.0015584046,0.0015828464000000003,4.282,0,0
0.0021856440000000005,0.005710514,-0.00023867280000000005,0.0016011578,0.0035000604000000003,4.283,0,0
0.0017317408000000001,0.007045104,-0.0002315678000000001,0.0010346884,0.0036672504000000005,4.284,0,0
0.0014636168,0.005023946000000001,8.721832e-05,0.0008881124,0.0034278824000000007,4.285,0,0
0.0013495432,0.0019947280000000007,0.0007862551200000001,0.0011315184,0.004047096000000001,4.286,0,0
0.00048473120000000014,-0.00019707199999999974,0.00039339691999999997,0.0005363764000000001,0.0028861660000000008,4.287,0,0
-0.00015199079999999996,-0.00356829,-0.00064348708,-0.0001356094,0.000598964,4.288,0,0
-0.0003384154,-0.006537542,-0.00071185748,-3.4371279999999965e-05,-0.0005309899999999998,4.289,0,0
-0.0013829474,-0.006396404,-0.0007718698000000001,-0.00068312128,-0.0018980319999999998,4.29,0,0
-0.0020521458000000003,-0.005340298,-0.0009241891800000001,-0.00170807128,-0.003984004,4.291,0,0
-0.001584334,-0.005078076,-0.0007124035800000001,-0.0014110962799999999,-0.00435891,4.292,0,0
-0.0013984200000000003,-0.0041501772,-0.00057732958,-0.00094522428,-0.0036149180000000004,4.293,0,0
-0.0017462722000000002,-0.0029496632000000004,-0.00051972898,-0.0010187596000000001,-0.004130386,4.294,0,0
-0.0011854282,-0.0013159592000000003,-0.00047714678000000004,-0.0004570476,-0.003690568,4.295,0,0
-0.00012427420000000013,0.0012493128,-0.00028367819999999995,0.000269114,-0.0014221260000000001,4.296,0,0
0.00012999799999999993,0.0043957708000000005,-0.0001341016,0.0002811312,-0.00021350599999999992,4.297,0,0
0.0006589959999999999,0.00723127,0.0002966034,0.0003201128,0.000705416,4.298,0,0
0.0017199519999999999,0.0071950338,0.0009344912,0.0005465882,0.003040326,4.299,0,0
0.0020565,0.0045955418,0.0012710712000000002,0.0003898322,0.0047542980000000006,4.3,0,0
0.001894806,0.0015517897999999997,0.0012412674,-7.769939999999995e-05,0.00466723,4.301,0,0
0.002035388,-0.0014128562,0.0014895732000000002,-0.00014806619999999996,0.00496183,4.302,0,0
0.001719998,-0.0039587822,0.0014506318,-3.9585199999999954e-05,0.004819826,4.303,0,0
0.0005787639999999998,-0.0040581943999999995,0.0006162418000000001,-0.000579602,0.002331652,4.304,0,0
-0.0001869100000000002,-0.0019852889800000004,0.0001347758,-0.0006501114,0.0003268619999999999,4.305,0,0
-0.0005825508000000002,-0.00045639898,-0.0004015164,-0.0002820622,-0.0005747160000000001,4.306,0,0
-0.0014591888000000002,0.00016596041999999997,-0.0011858864,-0.0006619836000000001,-0.0027291620000000003,4.307,0,0
-0.0017854328000000003,0.00048557842,-0.001392646,-0.0009184246,-0.004491644,4.308,0,0
-0.0010459768000000002,0.0012565028200000002,-0.0010121854,-0.0007090122,-0.0038528700000000004,4.309,0,0
-0.0007546146000000001,0.0017973294,-0.0005132973999999999,-0.0007623014,-0.0034808120000000002,4.31,0,0
-0.0009286698000000001,0.0018242314,0.00013847860000000008,-0.0007954511,-0.003963222,4.311,0,0
-0.0002351058,0.0013109480000000001,0.0009329766000000001,-0.0004417373,-0.0025548282,4.312,0,0
-7.679799999999997e-05,-0.0006649579999999998,0.0015375206000000003,-0.00043597829999999995,-0.0006259861999999999,4.313,0,0
-0.0009055760000000001,-0.0025847780000000002,0.0013696614000000002,-0.0003378339,-0.0002125694000000001,4.314,0,0
-0.00030804819999999996,-0.002869148,0.0007850774000000002,0.00041432670000000004,0.0009817266,4.315,0,0
0.0009043218,-0.0021847560000000004,0.0005562278000000001,0.0008810172000000001,0.0028690426000000002,4.316,0,0
0.0010138418,-0.00146239,3.0274800000000004e-05,0.0009739380000000001,0.0029627088000000004,4.317,0,0
0.0013283803999999998,-0.00015984400000000019,-0.0005993856,0.0013533594,0.0026791908000000004,4.318,0,0
0.0020283184000000004,0.0009651578000000001,-0.0005026978,0.0019965546,0.0032923780000000008,4.319,0,0
0.0012440803999999998,0.0007444632000000001,-0.0004942357999999999,0.0019621105999999998,0.0026059288000000002,4.32,0,0
-0.00030833760000000004,0.00028204630000000004,-0.0009689421999999999,0.0016967905999999999,0.0006266627999999999,4.321,0,0
-0.0007445936,0.0003143323,-0.0009934724,0.0019301759999999998,-6.281120000000009e-05,4.322,0,0
-0.001224162,0.0006623003,-0.0009811683999999998,0.001719096,-0.0006518732000000001,4.323,0,0
-0.002259638,0.0011918965000000002,-0.0011997512,0.0010176804,-0.0025787732000000004,4.324,0,0
-0.002134586,0.0020163911000000002,-0.001151582,0.0002814998,-0.0035373540000000004,4.325,0,0
-0.001349376,0.0032823440000000004,-0.0008902794,-0.00024889220000000003,-0.0029759860000000003,4.326,0,0
-0.0014440613999999999,0.004154624,-0.0007670238000000001,-0.0006258370000000001,-0.0032219040000000003,4.327,0,0
-0.0011642641999999998,0.00357324,-0.0006659690000000001,-0.0011167710000000001,-0.0035621120000000005,4.328,0,0
0.0002209958000000001,0.0021638820000000002,-0.0001574893999999999,-0.0012987074,-0.0019625840000000003,4.329,0,0
0.0005345740000000001,0.0005960680000000002,0.0002499494,-0.00114386885,-0.0006475099999999999,4.33,0,0
0.00034851300000000006,-0.0021375120000000003,0.00025486759999999997,-0.0008295806300000001,-0.0004682154000000001,4.331,0,0
0.0014759484,-0.005011528,0.0008268672,-0.00025869583,0.0012419806,4.332,0,0
0.0024563432000000002,-0.005790608000000001,0.0018344988000000002,0.0005352221700000001,0.0033033666,4.333,0,0
0.0025385112,-0.00529088,0.0019186388000000001,0.00097585637,0.0034761106,4.334,0,0
0.002947227,-0.00416227,0.0019470648000000001,0.00115131202,0.0036340486,4.335,0,0
0.0030965474,-0.0020872079999999997,0.0022536434,0.0011898219999999999,0.004476768000000001,4.336,0,0
0.0018654214000000003,0.0005490400000000001,0.0015200214,0.00028809,0.0032007600000000004,4.337,0,0
0.0003766013999999999,0.0031781680000000003,0.0003001434000000001,-0.0005630800000000001,0.0007319120000000001,4.338,0,0
-0.0005800206000000001,0.004122524000000001,-0.0002548774,-0.0007553944000000001,-7.886600000000005e-05,4.339,0,0
-0.0014551826,0.0025878100000000003,-0.000691352,-0.0010984676,-0.0017294279999999999,4.34,0,0
-0.002260372,0.00102143,-0.0012360414000000001,-0.0014646818,-0.004158322000000001,4.341,0,0
-0.0023772040000000004,0.00017262140000000022,-0.0011932894,-0.0011248318,-0.004172936,4.342,0,0
-0.0020844060000000005,-0.0016894886000000003,-0.0008605950000000001,-0.0007340642000000002,-0.0032031640000000005,4.343,0,0
-0.0019852000000000003,-0.0028020406000000006,-0.0006406768000000001,-0.001018414,-0.0032066220000000006,4.344,0,0
-0.0016070968600000002,-0.0016696514000000002,-0.000419672,-0.0008934246000000001,-0.0018474360000000003,4.345,0,0
-0.0007774668600000001,-0.0007403994,0.00020424800000000003,-0.0006848986,0.001017624,4.346,0,0
-0.00041569425999999997,-0.0010590708000000001,0.0008052980000000001,-0.0011695826,0.0020538320000000002,4.347,0,0
-0.00027206286,-0.0006574114000000001,0.0006422477999999999,-0.0014457502,0.002888476,4.348,0,0
0.0005902571399999999,0.0008165446000000001,0.00013378839999999984,-0.0007963882,0.004833416,4.349,0,0
0.001398518,0.0019541254000000003,7.362419999999997e-05,-0.000371328,0.005589414,4.35,0,0
0.001483608,0.0027821473999999997,-2.6063200000000066e-05,-0.0004099476,0.0053252,4.351,0,0
0.0016318268000000001,0.0033789514000000004,-0.0003432016000000001,0.0002926114,0.005837236,4.352,0,0
0.0017996354000000003,0.0029630819999999997,-4.835800000000019e-06,0.0006059652,0.00562467,4.353,0,0
0.0009869194000000003,0.0017333120000000003,0.00017249420000000005,-0.00024663080000000007,0.0031834979999999994,4.354,0,0
0.00030317440000000005,0.0007228508,-6.05400000000002e-06,-0.0007529628000000001,0.001063394,4.355,0,0
0.00021579040000000005,-0.00047130120000000005,-0.0002097976,-0.0006602574,-0.0005503980000000001,4.356,0,0
-0.000472993,-0.0017502472,-0.0009866992,-0.0011371564,-0.003205896,4.357,0,0
-0.001168937,-0.0021951192,-0.0017806932,-0.0013629722000000001,-0.005206998,4.358,0,0
-0.001109133,-0.0024656012,-0.0015417192,-0.0006132142,-0.00498494,4.359,0,0
-0.0014953800000000001,-0.0028047966000000002,-0.00134144926,-3.3276199999999903e-05,-0.004482997999999999,4.36,0,0
-0.002251606,-0.0020675266,-0.00160095226,0.00033168800000000007,-0.004752816,4.361,0,0
-0.0014954992,0.00010886339999999976,-0.0008571698600000001,0.0013246640000000001,-0.003744382,4.362,0,0
-0.0001813152,0.0015655074000000002,1.928139999999982e-06,0.002453858,-0.0024583412000000002,4.363,0,0
0.0004583548000000002,0.0013872874000000002,0.00031862214,0.0026540640000000002,-0.0022079432,4.364,0,0
0.0015061608000000002,0.000661538,0.0010022544,0.002674716,-0.0005949832,4.365,0,0
0.0030287128000000005,-0.0003865339999999997,0.0021241384,0.002824264,0.0017916308,4.366,0,0
0.00334694,-0.00161947958,0.0026391680000000003,0.0021311364,0.0030884648000000002,4.367,0,0
0.0027959102000000005,-0.0019468615799999999,0.0025539302000000003,0.0011922484000000003,0.004137906,4.368,0,0
0.0028848762,-0.0009917275799999998,0.0026215382000000006,0.0007455700000000001,0.004916782000000001,4.369,0,0
0.0020750682000000003,-7.356829999999998e-05,0.0022333022000000004,0.00018876820000000006,0.0037414896,4.37,0,0
6.823620000000002e-05,0.00036952970000000003,0.0010144862,-0.00037818640000000006,0.0010987216,4.371,0,0
-0.0012259318000000003,0.00011221328,0.00018040420000000007,-0.0006142268000000001,-0.0010057224,4.372,0,0
-0.00182638,-7.813431999999999e-05,-0.00026808,-0.0011173528000000001,-0.0028628864000000004,4.373,0,0
-0.002693172,0.0002430896800000001,-0.0015309020000000002,-0.0021237744000000003,-0.0048573644000000004,4.374,0,0
-0.0028786310000000004,0.00038305780000000007,-0.00246041,-0.0027781586,-0.0057304700000000005,4.375,0,0
-0.001949322,0.0007634672000000001,-0.002447434,-0.002335268,-0.004569027,4.376,0,0
-0.001790312,0.0011067668,-0.002645904,-0.0015219900000000002,-0.0036382610000000003,4.377,0,0
-0.0019763460000000004,0.0013135904,-0.002746208,-0.000376922,-0.0032869910000000004,4.378,0,0
-0.0013827420000000002,0.0021442863999999997,-0.0020345062000000002,0.001457338,-0.0014839830000000001,4.379,0,0
-0.000858659,0.003014439,-0.0014242162,0.00258997,-0.00024099500000000003,4.38,0,0
-0.0005100479999999999,0.0018724715999999999,-0.0006457481999999999,0.00250389,-9.97710000000001e-05,4.381,0,0
0.0010012180000000001,6.260200000000014e-05,0.0007491318000000002,0.0024939360000000004,0.001643815,4.382,0,0
0.0026909580000000002,-0.0004809100000000001,0.0017340818,0.002397166,0.0038571950000000003,4.383,0,0
0.00269823,-0.0014650700000000002,0.0024434480000000004,0.0014879609999999999,0.004164921,4.384,0,0
0.002441148,-0.001964156,0.0029169080000000006,0.0009421585999999999,0.004643731000000001,4.385,0,0
0.0025935820000000005,0.000309362,0.002539074,0.0005631902,0.005556994000000001,4.386,0,0
0.0016566796,0.003695858,0.0014759334000000002,-0.0008583098000000001,0.0037428180000000006,4.387,0,0
-0.00016878240000000005,0.005334504,0.00034562740000000007,-0.0020774138000000004,0.0006910440000000003,4.388,0,0
-0.0009696384000000001,0.0054873100000000005,-0.0005135266,-0.0023957048000000005,-0.0007193340000000001,4.389,0,0
-0.0016133964000000002,0.005705044000000001,-0.0013025406000000002,-0.0028762804000000003,-0.002624548,4.39,0,0
-0.0030051624000000006,0.0043876912,-0.0017442046,-0.0031295040000000004,-0.005423972,4.391,0,0
-0.003409534,-7.723480000000008e-05,-0.0016398048000000002,-0.0023555162000000003,-0.006027712,4.392,0,0
-0.0027043068000000003,-0.0053165788,-0.0013927608,-0.0012341582000000002,-0.005192736,4.393,0,0
-0.0023333534,-0.0082038508,-0.0011527004,-0.0005269262000000003,-0.005212827999999999,4.394,0,0
-0.0018813620000000001,-0.008240360799999999,-0.0006820792000000001,0.00013244519999999996,-0.004153313399999999,4.395,0,0
-0.0008292366000000002,-0.006507457999999999,1.2908000000000385e-06,0.0009559032,-0.0014417854000000003,4.396,0,0
-9.155260000000005e-05,-0.004350588,0.0005921156000000001,0.0014000713999999998,0.00016152260000000009,4.397,0,0
0.0009925602,-0.0025389139999999998,0.0015210836,0.0014158454000000001,0.0015372326000000001,4.398,0,0
0.0026600188000000004,-0.00102891,0.0022928472000000003,0.0017663674000000002,0.0041452546,4.399,0,0
0.004088173400000001,-0.0013750040000000004,0.0025752920000000003,0.002206426,0.00614634,4.4,0,0
0.0047942,-0.0026731220000000004,0.00246219,0.0018088338000000002,0.006536096000000001,4.401,0,0
0.0049448800000000005,-0.0017786560000000004,0.0019854700000000005,0.0013992284000000001,0.0068803580000000005,4.402,0,0
0.004155671800000001,-0.0001956280000000001,0.0013685432000000001,0.0009878752,0.006982370000000001,4.403,0,0
0.0016705118000000002,0.00019304599999999989,0.0001028992,-0.00021533080000000007,0.004631528000000001,4.404,0,0
-0.0010239482000000003,8.417e-05,-0.0010484688,-0.0012360688000000002,0.0016783680000000004,4.405,0,0
-0.0025043842,0.000307264,-0.0016391808,-0.0014239082,-0.00018191799999999988,4.406,0,0
-0.0037187422,0.0007757559999999998,-0.0020639568000000003,-0.0016851708,-0.003015828,4.407,0,0
-0.004800412,0.0014473519999999998,-0.0020367496000000002,-0.0019159296000000002,-0.005620780000000001,4.408,0,0
-0.004281002,0.002597656,-0.0016076026,-0.0011765294,-0.0057688520000000005,4.409,0,0
-0.003323992,0.0032283999999999998,-0.0012193566,-0.0005929520000000001,-0.005764438,4.41,0,0
-0.0032500180000000004,0.0026983658,-0.0009101056000000001,-0.0005074033999999999,-0.006409408,4.411,0,0
-0.0026146034,0.0018389164000000003,-0.00056665702,0.00030817260000000005,-0.0045814558,4.412,0,0
-0.0012119074,0.0012628224,-0.0005566300199999999,0.0010339986,-0.0019131897999999997,4.413,0,0
-0.0004704994000000001,0.0004629843999999999,-0.0005212156199999999,0.0009353548000000001,-0.0007272437999999998,4.414,0,0
0.0007420166,0.0003034524,0.00012775838,0.0012678174,0.0016248822000000003,4.415,0,0
0.0028457686,0.0008800005999999999,0.00093931338,0.0016026643999999999,0.0045630262000000005,4.416,0,0
0.0037082380000000004,0.0006708440000000001,0.0013524788000000001,0.0011033398,0.005434610000000001,4.417,0,0
0.0038706560000000005,0.0006576980000000002,0.0011924512000000003,0.0009036958,0.00535036,4.418,0,0
0.004699966000000001,0.000957418,0.0011117722,0.0013964934,0.006040140000000001,4.419,0,0
0.004307902000000001,0.00034036179999999996,0.0009210568000000002,0.0013266754,0.005151328,4.42,0,0
0.0026268200000000006,-0.000443699,0.00014250780000000005,0.0006161094,0.002356014,4.421,0,0
0.0019506482000000002,-0.000392257,-0.0001445194,0.0005852012000000001,0.0008354119999999998,4.422,0,0
0.0008687262000000001,-0.000363425,4.357560000000003e-05,9.791920000000001e-05,-0.0005189720000000004,4.423,0,0
-0.0012962218,-0.000859357,-8.385679999999999e-05,-0.0012937788,-0.0032624640000000005,4.424,0,0
-0.0026727998000000003,-0.0009734688000000001,-0.0001087508,-0.0019268328000000001,-0.004972914,4.425,0,0
-0.0030751958,-0.0008272554000000001,0.00010701260000000004,-0.0017188448,-0.004713042000000001,4.426,0,0
-0.0037183840000000004,-0.0005445647600000001,-0.00031404420000000005,-0.0018291952,-0.005041432000000001,4.427,0,0
-0.0038738220000000007,0.00010703524,-0.0006031928000000001,-0.0016904640000000002,-0.005400088000000001,4.428,0,0
-0.0026334330000000006,0.0005659592400000001,-0.00016561040000000004,-0.0005139860000000001,-0.0032504300000000003,4.429,0,0
-0.0013768350000000003,0.0006715558400000001,-0.00028799000000000007,7.749800000000001e-05,-0.001066152,4.43,0,0
-0.00032173300000000004,0.00101642924,-0.0004845036000000001,0.00029348199999999997,0.0001309839999999999,4.431,0,0
0.0011904270000000002,0.0013611286000000003,0.00014224639999999998,0.0009016552,0.002928544,4.432,0,0
0.002451437,0.0013096706,0.0005918942,0.001445904,0.005545656,4.433,0,0
0.002691228,0.0012770702,0.000309556,0.0012937722,0.006054470000000001,4.434,0,0
0.0031017960000000004,0.0012947111999999999,0.000114299,0.0006832502000000001,0.006682368,4.435,0,0
0.0033493380000000003,0.0010240919999999999,-1.3691800000000112e-05,0.0003105301999999999,0.007512956000000001,4.436,0,0
0.00244901,0.0006439334,-0.0008882918000000001,-0.0005702878000000001,0.005409568000000001,4.437,0,0
0.0014475539999999998,-7.577460000000001e-05,-0.0016410838,-0.0017720698,0.0019892760000000003,4.438,0,0
0.0006001339999999999,-0.0010621101999999999,-0.001263638,-0.0026366680000000004,-0.0002542079999999999,4.439,0,0
-0.000796578,-0.0020171398,-0.0010076272,-0.00302908,-0.0034748380000000005,4.44,0,0
-0.0024678499999999997,-0.0025130506000000004,-0.0011542711999999998,-0.003483846,-0.006950464000000001,4.441,0,0
-0.003106382,-0.00210617,-0.00044607899999999994,-0.0037673480000000002,-0.008155144,4.442,0,0
-0.0030756779999999997,-0.0017285359999999997,0.0006486790000000001,-0.0033371860000000002,-0.007498956,4.443,0,0
-0.0031815899999999998,-0.0013698360000000001,0.0008876390000000002,-0.0027506054000000003,-0.007296136,4.444,0,0
-0.0031384900000000003,-0.0009578040000000001,0.0008904588000000001,-0.0014786994000000001,-0.006152196,4.445,0,0
-0.0024378060000000003,-0.0008572040000000001,0.0009432748000000001,0.0007227325999999999,-0.0027862,4.446,0,0
-0.0018427826,-0.0011999974000000003,0.0003184866000000001,0.0026508646000000004,-0.0004290680000000001,4.447,0,0
-0.0012166725999999998,-0.0008689594000000001,-8.669399999999914e-06,0.0039179526,0.0013786080000000004,4.448,0,0
0.0011032734,0.00025452859999999995,8.496060000000012e-05,0.004974747999999999,0.004570544,4.449,0,0
0.0034519454000000002,0.0011078826000000001,0.00017829780000000011,0.005068273999999999,0.0070907999999999995,4.45,0,0
0.0042440354,0.0017495426,0.0008174498000000002,0.004070874,0.007084244000000001,4.451,0,0
0.004945652,0.0018493246,0.0015256078000000003,0.003116196,0.0072434100000000005,4.452,0,0
0.0051035920000000005,0.00157326034,0.00124686474,0.0022761106000000002,0.007454312,4.453,0,0
0.0029258520000000005,0.00083339234,0.00045660074,0.0012353488,0.004781368,4.454,0,0
0.0007669659999999999,0.00038761933999999996,0.00010527293999999993,0.00034349080000000006,0.0016647959999999999,4.455,0,0
-3.071999999999998e-05,0.0006198573400000001,-0.00040181326000000004,-5.6760200000000006e-05,8.899999999998102e-07,4.456,0,0
-0.001551054,0.0009660727400000001,-0.0009121292600000001,-0.0004751414,-0.0026009300000000004,4.457,0,0
-0.002886204,0.001667959,-0.0009441802,-0.00115236,-0.005487344,4.458,0,0
-0.002788206,0.002705985,-0.0007695152,-0.0014007942000000002,-0.005661376000000001,4.459,0,0
-0.0028500340000000004,0.0019366040000000002,-0.0007802652,-0.0012864704000000002,-0.005166728,4.46,0,0
-0.0033737199999999998,-0.0007523959999999998,-0.000785223,-0.0015125594000000003,-0.0057211200000000005,4.461,0,0
-0.0023537724,-0.002457164,-0.0002541410000000001,-0.0014464670000000001,-0.004502154,4.462,0,0
-0.0006795484000000001,-0.0035242959999999997,-3.078500000000005e-05,-0.0007818678000000002,-0.0021578920000000002,4.463,0,0
-0.00016448240000000006,-0.004269462,-0.00011774580000000005,-0.0006238262,-0.0013882122000000003,4.464,0,0
0.0008299815999999999,-0.0029751960000000003,0.00029568620000000004,-0.00054682,0.00029193579999999995,4.465,0,0
0.0023174156,-0.00023682399999999995,0.0006226678,-0.00014401739999999997,0.0032079898,4.466,0,0
0.0024575440000000003,0.001265946,0.00028879720000000005,-0.0002595526,0.0044835358,4.467,0,0
0.0019930160000000002,0.001405028,0.00017745520000000001,-0.0006845557999999999,0.0050578458,4.468,0,0
0.002084916,0.0023673080000000003,0.000522499,-0.0008541474000000001,0.005972918,4.469,0,0
0.001500564,0.0033840520000000002,0.00043222080000000003,-0.0008999754,0.004825474600000001,4.47,0,0
-1.6518000000000088e-05,0.0021436280000000003,0.000198788,-0.0009437740000000001,0.0016900105999999998,4.471,0,0
-0.0010063,0.000248044,0.00019234140000000004,-0.0005312571999999999,-0.00019605540000000002,4.472,0,0
-0.001976884,-0.0005670040000000001,-0.0001278286,9.792279999999996e-05,-0.0019131374,4.473,0,0
-0.003177088,-0.00149878,-0.0007109106,0.00037809659999999995,-0.004295615399999999,4.474,0,0
-0.0036983600000000004,-0.0009162699999999998,-0.0010994184000000001,0.00024631260000000004,-0.005141156,4.475,0,0
-0.0031350460000000007,0.0025055220000000005,-0.0014107172,-0.0003558134000000001,-0.00416803,4.476,0,0
-0.0025224892000000007,0.004560934,-0.001380406,-0.0010744542000000001,-0.0036249360000000005,4.477,0,0
-0.0022203752,0.0038080219999999994,-0.0006079860000000001,-0.0014569676000000002,-0.003676232,4.478,0,0
-0.0007575812000000001,0.0014309179999999998,0.00042101,-0.0013338012000000002,-0.002137776,4.479,0,0
0.0008083308000000002,-0.0033185819999999996,0.0009141622,-0.0007872972000000002,-0.0004173199999999999,4.48,0,0
0.0014556288,-0.007771128,0.0013324682000000001,0.00018259679999999993,0.0005023260000000002,4.481,0,0
0.0023067160000000003,-0.008206310800000002,0.0019242742000000002,0.0012488608,0.002558734,4.482,0,0
0.003227844,-0.0056867268,0.0018950342000000002,0.0017267422000000001,0.0049075460000000005,4.483,0,0
0.0031946300000000004,-0.002484304799999999,0.0013533768000000002,0.0018481259999999998,0.005577042000000001,4.484,0,0
0.002751936,0.0007731551999999999,0.0012984322000000003,0.0017267078000000001,0.005673976,4.485,0,0
0.002721688,0.002480247,0.0014742870000000003,0.001435208,0.005727768,4.486,0,0
0.0020011942,0.0020966138,0.000639895,0.0010700036000000001,0.003578736,4.487,0,0
0.0005707921999999999,0.0006308498000000002,-0.000356755,0.00051044,0.0004630519999999998,4.488,0,0
-0.00012422680000000012,-0.0008806342,-0.0006562696,0.00014504639999999997,-0.0011200180000000002,4.489,0,0
-0.0008075648000000001,-0.0019032882,-0.0011031272,-7.684840000000005e-05,-0.0029805900000000004,4.49,0,0
-0.0022088448,-0.0021457060000000003,-0.001941056,-0.00017503720000000005,-0.0053328640000000005,4.491,0,0
-0.0026596050000000006,-0.001459928,-0.002012322,-0.0002584890000000001,-0.005879316000000001,4.492,0,0
-0.0019162530000000001,-0.00037844999999999996,-0.001458232,-0.00024541160000000005,-0.004955966000000001,4.493,0,0
-0.0019362976000000002,0.001709726,-0.0015659120000000002,-0.00021837320000000002,-0.004782548000000001,4.494,0,0
-0.0017003870000000003,0.00416604,-0.001684298,-9.924040000000002e-05,-0.004171562,4.495,0,0
2.768699999999998e-05,0.005510152,-0.0009943002000000001,0.0002753382,-0.00183284,4.496,0,0
0.000988631,0.005154166399999999,-0.0004616296,0.0002477248,-0.00013389400000000018,4.497,0,0
0.0011521644000000001,0.0031753243999999995,-0.0004115366,0.0003532386,0.00096481,4.498,0,0
0.0020574760000000004,0.0005723563999999999,0.0003700334,0.0009882018,0.00308455,4.499,0,0
0.0028630094,-0.0013889800000000002,0.0015727234000000002,0.001127128,0.0048181940000000005,4.5,0,0
0.0025840754,-0.0023007260000000003,0.0020749876,0.0006221964,0.0047250320000000005,4.501,0,0
0.0024451974000000002,-0.0019941764,0.002671135,0.0006597652,0.0046511320000000005,4.502,0,0
0.002784014,-0.0002979455999999999,0.0034617880000000004,0.0006422978000000001,0.004560562000000001,4.503,0,0
0.0014968440000000002,0.00042330040000000007,0.0029859080000000002,-0.00038959620000000004,0.002490072,4.504,0,0
-0.00040624399999999994,-9.235120000000008e-05,0.0017740400000000002,-0.0010602542000000001,0.00029462399999999995,4.505,0,0
-0.001192776,-0.0003772948000000001,0.0007449480000000002,-0.0009714692,-0.0007603599999999999,4.506,0,0
-0.0026019520000000003,-0.0007300568000000001,-0.0006795779999999999,-0.0011610548,-0.0026693100000000003,4.507,0,0
-0.0040399,-0.0009358492000000001,-0.00207252,-0.0011896282000000002,-0.004532104,4.508,0,0
-0.0036525836000000002,-0.0009253152,-0.002503014,-0.0004228522,-0.004579438000000001,4.509,0,0
-0.0028203516000000002,-0.0007828612,-0.002368592,1.9286600000000006e-05,-0.004271912000000001,4.51,0,0
-0.0025817382,-0.0006910600000000001,-0.0021555000000000003,-9.83236e-05,-0.0043707500000000005,4.511,0,0
-0.00158038614,-0.00042563819999999995,-0.0017022574000000001,0.0003879808,-0.0031922892,4.512,0,0
-0.00034702814000000013,-6.200260000000001e-05,-0.0011342538,0.000750372,-0.0011714852,4.513,0,0
4.382346000000002e-05,0.0004944594000000001,-0.0006498096000000001,0.00035103559999999996,-1.5843199999999828e-05,4.514,0,0
0.00109487946,0.0012694314,-0.00011093159999999997,0.0003494684,0.0015176548,4.515,0,0
0.00246958406,0.0013673084,0.0006462864,0.00017872119999999997,0.0035774008,4.516,0,0
0.003193786,0.0011582384,0.0012997558000000002,-0.0008811008000000001,0.004868102,4.517,0,0
0.0033928100000000004,0.0012790304000000001,0.0014881162000000001,-0.0014341528000000002,0.005275338,4.518,0,0
0.00337974,0.0014691684,0.001667206,-0.0010527224000000002,0.0056377400000000005,4.519,0,0
0.0026849904000000005,0.0008925814000000001,0.0014863328000000002,-0.0007950460000000002,0.0048369824,4.52,0,0
0.0007484444000000002,7.737680000000004e-05,0.0006431428,-0.0007294500000000001,0.001994494400000001,4.521,0,0
-0.0008569576000000001,-9.039499999999998e-05,0.00013765239999999996,-9.972599999999997e-05,-0.0002218195999999994,4.522,0,0
-0.0017260356,6.53100000000005e-06,-0.00018539300000000003,0.0005021400000000001,-0.0016680635999999998,4.523,0,0
-0.0030234956,0.00018709900000000003,-0.000947675,0.00034290780000000004,-0.0040922115999999994,4.524,0,0
-0.004129172,0.00017975500000000014,-0.0013138237999999998,6.720320000000004e-05,-0.005811496,4.525,0,0
-0.0035106893999999997,-0.0007914669999999999,-0.0010939468,6.808480000000005e-05,-0.005080186,4.526,0,0
-0.0028621014,-0.0024426730000000002,-0.0013251044,-0.00012250719999999998,-0.004618456,4.527,0,0
-0.0027471334,-0.003213161,-0.0013698072,-0.0006579032000000001,-0.004955200000000001,4.528,0,0
-0.0011653013999999998,-0.0034046529999999997,-0.0005684251999999999,-0.0004764830000000001,-0.0029748940000000005,4.529,0,0
0.0006313146,-0.002695316,9.149280000000004e-05,0.0005553196000000001,-0.00018781400000000034,4.53,0,0
0.0014041360000000003,0.0006688880000000003,0.00046966780000000006,0.001458202,0.0010332899999999999,4.531,0,0
0.0023703500000000002,0.00463502,0.0010345278,0.002095032,0.002837482,4.532,0,0
0.0033269900000000006,0.006477382,0.0012327094000000002,0.0024546812000000003,0.005201252,4.533,0,0
0.0033314860000000003,0.006752302000000002,0.0009029982000000001,0.0019280252000000004,0.005304152,4.534,0,0
0.0030991660000000004,0.005177342000000001,0.0006649632,0.0008992879999999999,0.004782209999999999,4.535,0,0
0.0030173940000000005,0.001630168000000001,0.0006856392000000001,0.00037078459999999997,0.005198736,4.536,0,0
0.0026118860000000003,-0.001304146,0.0005093198,-0.0003942034,0.0038655084,4.537,0,0
0.001446994,-0.003330456,0.00025006979999999995,-0.0011194406,0.0011763824,4.538,0,0
-1.3841999999999913e-05,-0.005104978,0.00033037915999999996,-0.0009731222,-0.0001092116,4.539,0,0
-0.0014962460000000001,-0.0047813740000000006,-0.00024912784000000003,-0.0012183390000000001,-0.0018902436000000004,4.54,0,0
-0.0028604940000000003,-0.003591022,-0.00109214384,-0.0019752876000000003,-0.0047140556,4.541,0,0
-0.0036395940000000003,-0.0038906239999999996,-0.0012065239800000001,-0.0019235656000000001,-0.005316564000000001,4.542,0,0
-0.003832798,-0.004060584,-0.0014799473800000001,-0.0013436096000000002,-0.004527784,4.543,0,0
-0.003595362,-0.0033850539999999998,-0.0021011035400000004,-0.0011728657600000001,-0.004601508000000001,4.544,0,0
-0.0025880092,-0.0021631919999999995,-0.00213290954,-0.0007705425600000001,-0.0037295116000000002,4.545,0,0
-0.0011590531999999998,-0.0003470719999999999,-0.0015627373400000002,-1.7031360000000005e-05,-0.0009699455999999999,4.546,0,0
-0.00030455319999999996,0.00251467,-0.0011537278000000003,0.00032029464000000004,0.0008105764,4.547,0,0
0.0010129028,0.00563717,-0.0002625498000000002,0.00064395264,0.0018709624,4.548,0,0
0.0025312008,0.00679566,0.0011670922000000003,0.0009794124000000002,0.0043214284000000006,4.549,0,0
0.003087242,0.005743488000000001,0.0023580262,0.0007885016,0.00639065,4.55,0,0
0.0028959700000000003,0.004035638,0.0030716040000000003,0.0003569384,0.006276610000000001,4.551,0,0
0.0028028700000000003,0.0021622994,0.0030147340000000003,4.608439999999987e-05,0.005575228000000001,4.552,0,0
0.002695466,-0.0006363346000000001,0.0025389840000000006,-0.0005725436,0.0049286846,4.553,0,0
0.0018004050000000001,-0.0015601226,0.0013176020000000002,-0.0013496916,0.0020743166,4.554,0,0
0.0008089729999999999,-0.0008760726000000001,-0.00031778200000000007,-0.001525616,-0.0012405714000000001,4.555,0,0
9.620100000000008e-05,-0.0015375846,-0.0014070620000000002,-0.0011153666,-0.0028908234000000004,4.556,0,0
-0.000969743,-0.002994776,-0.0021218300000000003,-0.0009502078000000002,-0.0052153154,4.557,0,0
-0.002456565,-0.0037560040000000003,-0.002325246,-0.0006011088000000001,-0.0072749519999999995,4.558,0,0
-0.0028952300000000004,-0.0038879584,-0.0015425680000000002,0.0008179152000000001,-0.006590338,4.559,0,0
-0.0026679003999999997,-0.0040095576,-0.00047509520000000005,0.0017383612000000002,-0.0052279146,4.56,0,0
-0.0027263224000000003,-0.0027674416,-0.00016956800000000004,0.0016425086000000002,-0.0046301466,4.561,0,0
-0.002045382,-0.0007603296,0.00026020739999999996,0.0020951778,-0.0023908186,4.562,0,0
-0.0007988660000000002,0.0007539424000000002,0.0006494216,0.0026689508,0.0003822154,4.563,0,0
-0.00029773180000000003,0.0010291744000000002,0.0003330496,0.0018611914000000002,0.0010174074000000003,4.564,0,0
-3.5641400000000075e-05,0.0007675212000000001,0.00037909620000000006,0.0010228792,0.0019463700000000002,4.565,0,0
0.0009450586000000001,0.0007102072000000001,0.000928113,0.0011676424000000001,0.004034542,4.566,0,0
0.0016459422000000001,0.00027828980000000003,0.0012568155999999999,0.0008694754000000001,0.004889952,4.567,0,0
0.0019594242,-3.8935799999999994e-05,0.0013342654,0.00017194440000000002,0.004726594000000001,4.568,0,0
0.0025773519999999998,-2.1380999999999977e-05,0.0015758314000000001,8.894120000000002e-05,0.005208114,4.569,0,0
0.0026010960000000007,0.00019142360000000004,0.0014647044,3.139540000000001e-05,0.004649268000000001,4.57,0,0
0.0016394880000000001,0.0005880596,0.0004269403999999999,-0.0006599906,0.00214167,4.571,0,0
0.0007002639999999999,0.001518945,-0.0006642236000000001,-0.0010747416000000001,0.0003563459999999998,4.572,0,0
-6.33516e-05,0.0026844366,-0.0011655196,-0.0013675746,-0.0007845220000000002,4.573,0,0
-0.0012940796,0.0032823282000000002,-0.0019277596000000002,-0.002175872,-0.002923106,4.574,0,0
-0.0021213256,0.002687832,-0.0023395700000000005,-0.00249913,-0.004731984000000001,4.575,0,0
-0.0020304976000000002,0.0013195239999999999,-0.0015536314,-0.0020562518,-0.004884618,4.576,0,0
-0.0023820796,-0.000316394,-0.0009046411999999998,-0.0016444308000000002,-0.004827346,4.577,0,0
-0.002765074,-0.0017506405999999997,-0.00065951844,-0.0015156608000000001,-0.004849966000000001,4.578,0,0
-0.0019091674,-0.0020386285999999996,0.00024528756,-0.0009498794000000002,-0.0032757384000000004,4.579,0,0
-0.0009315913999999998,-0.0012098006000000002,0.00105935956,-9.737940000000006e-05,-0.0011529504,4.58,0,0
-0.0005207974000000001,-0.00033984820000000003,0.0011600329600000001,0.0002712384,-0.0001323085999999999,4.581,0,0
0.0011010986,0.00042636080000000003,0.0016390147600000003,0.0009103854,0.0015606834000000001,4.582,0,0
0.0029044546,0.0014069074000000001,0.0017764084,0.0018894374,0.0039320774,4.583,0,0
0.0030831480000000004,0.0015060534000000002,0.0012494136,0.0024925560000000004,0.0049835638,4.584,0,0
0.0033536020000000002,0.0010808306000000003,0.0008784672000000001,0.002551602,0.0055632218,4.585,0,0
0.003977352000000001,0.0009735882000000002,0.0006587014000000001,0.0022819450000000005,0.006639280000000001,4.586,0,0
0.0030379804,0.00036238120000000023,-2.533659999999995e-05,0.001407969,0.005733442000000001,4.587,0,0
0.0010886064,-0.0009978628,-0.000793607,0.00018252299999999997,0.0027532060000000002,4.588,0,0
-7.074360000000005e-05,-0.0015495672,-0.0010378282,-0.000796811,0.0007458699999999999,4.589,0,0
-0.0014198856000000003,-0.0016910704000000002,-0.0017320958000000002,-0.0019159490000000001,-0.0017973860000000002,4.59,0,0
-0.0033042496,-0.0017489764,-0.0025449139999999997,-0.002586882,-0.005328094,4.591,0,0
-0.004060878,-0.00025413239999999993,-0.002603478,-0.0025820586,-0.006799546,4.592,0,0
-0.0034274996000000003,0.0012277516,-0.0018870612000000003,-0.0024095926,-0.006129052,4.593,0,0
-0.0030562116000000003,0.0016096660000000003,-0.0012745852,-0.0021273406,-0.0059001620000000005,4.594,0,0
-0.0025392756000000003,0.001500136,-0.0005475414,-0.0015119098000000001,-0.005203204,4.595,0,0
-0.0007370976,0.0010892739999999999,0.0006060846,-0.0006764038,-0.0025079560000000004,4.596,0,0
0.0006233964000000003,-8.581399999999997e-05,0.0012824606,-0.00019295920000000005,-0.0005406060000000001,4.597,0,0
0.0015238300000000003,-0.0018189400000000002,0.0017489558,0.0001585066,0.00044607,4.598,0,0
0.0032900140000000004,-0.003257744,0.0024514458000000003,0.0009833386,0.0027556160000000002,4.599,0,0
0.004551014000000001,-0.0033922560000000006,0.0029325960000000004,0.0018056138,0.00552754,4.6,0,0
0.004096586,-0.0022263100000000004,0.0026671232000000005,0.0019476998,0.006347446,4.601,0,0
0.0032958624000000007,-0.0007116280000000002,0.0023137913600000002,0.0019872658,0.006389898000000001,4.602,0,0
0.0024686044000000002,0.0019687159999999997,0.0017222327600000002,0.0020044954,0.006309210000000001,4.603,0,0
0.00041797639999999994,0.0038035,0.00048992076,0.0012054034,0.003794084,4.604,0,0
-0.0017668276,0.0030463979999999996,-0.00066378324,0.00018616339999999996,7.940399999999993e-05,4.605,0,0
-0.0025291616,0.001355138,-0.0013980524399999999,-0.0004590006000000001,-0.002054308,4.606,0,0
-0.003242258,-0.0004971180000000004,-0.0018938726000000002,-0.0010051446000000001,-0.004140192,4.607,0,0
-0.004322206,-0.0025746320000000003,-0.002194014,-0.0008240320000000001,-0.006160726,4.608,0,0
-0.0040795399999999996,-0.0034567986000000003,-0.002153658,-0.000132224,-0.0054717362000000005,4.609,0,0
-0.003138222,-0.0023336704,-0.0017291338000000002,0.00030383960000000007,-0.0038043797999999995,4.61,0,0
-0.003007486,-0.0009728412000000001,-0.0010415582000000002,0.000629666,-0.0032320998,4.611,0,0
-0.0022863469999999998,-0.0001258112,-0.0002727962000000001,0.001148832,-0.0018445370999999999,4.612,0,0
-0.0006058389999999998,0.0002564488,0.0004188878,0.0013486540000000001,0.00032987490000000006,4.613,0,0
0.0006893210000000001,0.00040562742,0.0006906374,0.0008904398000000001,0.0009198731000000001,4.614,0,0
0.0019413630000000002,0.0006831840200000001,0.0009128226000000001,0.0010841602,0.0020373987,4.615,0,0
0.0032390310000000003,0.0014020388200000002,0.0009634848000000001,0.0018299958000000001,0.0043454627,4.616,0,0
0.003978608,0.00255625682,0.0007015612,0.0019945978,0.005326042,4.617,0,0
0.0035305876,0.00344912682,0.0008102592000000001,0.0018020318,0.00513968,4.618,0,0
0.0028009800000000002,0.0033610928,0.0012439136,0.0019652504,0.005074288000000001,4.619,0,0
0.002197256,0.0022695140000000003,0.0012128698000000002,0.0016412688,0.004199370000000001,4.62,0,0
0.001027854,0.00138767,0.0005178000000000001,0.00035563080000000006,0.001290056,4.621,0,0
0.00022664400000000005,0.00200358,-0.0004269984000000002,-0.0006189832000000001,-0.00106572,4.622,0,0
1.4825400000000009e-05,0.00304243,-0.0016537044000000003,-0.0013896732000000002,-0.002321038,4.623,0,0
-0.0009219530000000002,0.00221264,-0.0027990244,-0.0024129516,-0.004381646,4.624,0,0
-0.002246023,0.000298712,-0.0031194960000000002,-0.003051266,-0.006484512,4.625,0,0
-0.002422281,-0.0018105280000000005,-0.0024695352,-0.0030112380000000003,-0.006368882,4.626,0,0
-0.002421115,-0.005146884000000001,-0.001732295,-0.00275724,-0.005328599999999999,4.627,0,0
-0.002575476,-0.007905574,-0.001232599,-0.0023000966000000004,-0.005033789999999999,4.628,0,0
-0.0015602976,-0.007244202,-0.000374415,-0.0014731146000000004,-0.0031608620000000004,4.629,0,0
-0.0004759407999999999,-0.0045635020000000005,0.0005260410000000001,-0.000684053,-0.0007653060000000001,4.63,0,0
-0.00033943680000000004,-0.0023005009999999995,0.0008775642,-0.00022233949999999995,0.00041472000000000004,4.631,0,0
0.00021219919999999998,-0.0005851509999999999,0.001546508,0.0004662985,0.00225999,4.632,0,0
0.0011053112,0.00030902900000000005,0.0024300500000000004,0.0010901931000000002,0.004552158000000001,4.633,0,0
0.0012845248,0.00046624020000000005,0.0023334270000000003,0.0009274469,0.0053787,4.634,0,0
0.001762342,0.0006415316000000002,0.0019635570000000003,0.0008805529,0.005916992000000001,4.635,0,0
0.003109486,0.0007396206,0.002077675,0.0013895254,0.007096078,4.636,0,0
0.0037027680000000004,0.0009203325999999999,0.0018539070000000001,0.0012663854000000002,0.006210928000000001,4.637,0,0
0.0029079477999999995,0.0013107166000000002,0.0012983836,0.0005158234,0.0034349819999999996,4.638,0,0
0.0019761238,0.0016443354,0.0012776298,0.00014574960000000002,0.0015253299999999999,4.639,0,0
0.0007391558,0.0016401582000000001,0.0009295458000000001,-0.0005781840000000001,-0.0006252100000000002,4.64,0,0
-0.0015348462,0.0011111962000000001,-0.00023127620000000005,-0.001672166,-0.004173426000000001,4.641,0,0
-0.0034368202000000002,0.0006019316000000001,-0.0015732042000000002,-0.0022405840000000003,-0.006291232000000001,4.642,0,0
-0.003589032,0.00046852960000000007,-0.0023621228000000006,-0.0022170148,-0.006155462,4.643,0,0
-0.003469156,0.0005633656000000001,-0.002726926,-0.0017436088,-0.006614686000000001,4.644,0,0
-0.00332283,0.0013196014,-0.0030872720000000003,-0.0010551044,-0.006652918,4.645,0,0
-0.0018771220000000002,0.0026716214,-0.0026157848,-9.08164e-05,-0.004269614,4.646,0,0
-0.000666486,0.003937232000000001,-0.0013203248000000002,0.0007357356,-0.002189572,4.647,0,0
-0.0002620833999999999,0.004994986000000001,-3.837680000000007e-05,0.0013265544,-0.0005984939999999999,4.648,0,0
0.0009901546,0.004908158,0.0008860432000000001,0.0020944044,0.002778078,4.649,0,0
0.0023782226,0.0029602680000000003,0.0017064152,0.002620626,0.005777346,4.65,0,0
0.0026453826,0.0006524120000000002,0.002191974,0.0023893646000000004,0.00639678,4.651,0,0
0.0029443366,-0.001035942,0.0019289038,0.0018850014,0.006686536,4.652,0,0
0.0032476220000000004,-0.003383962,0.0011773824,0.0016572246,0.006735706,4.653,0,0
0.00224152,-0.005514804,0.0002662044,0.0006269486,0.004123826000000001,4.654,0,0
0.0007261059999999999,-0.005340678,-0.0002892524,-0.0004849634,0.0009546119999999999,4.655,0,0
0.00015949799999999997,-0.004491982,-0.0005569164,-0.0006180785800000001,-0.00040084999999999996,4.656,0,0
-0.000715856,-0.0042373688,-0.0008267902,-0.00108374938,-0.0024989640000000002,4.657,0,0
-0.002227656,-0.0028522848000000003,-0.0008070820000000001,-0.00182636858,-0.004935872000000001,4.658,0,0
-0.002427406,-0.0002814048,-0.0003706138,-0.00190255458,-0.004997280000000001,4.659,0,0
-0.001873457,0.0012814792,-0.00013023119999999998,-0.00180633458,-0.004407386,4.66,0,0
-0.002118477,0.0020294312,-0.0005100672,-0.0020875100000000003,-0.004911082,4.661,0,0
-0.00175372668,0.002394288,-0.0005195172,-0.0018572124000000004,-0.0037479894,4.662,0,0
-0.00036487668,0.0012743620000000002,-0.00030407380000000003,-0.0013246242,-0.0010333054000000006,4.663,0,0
9.792072000000001e-05,-0.0003266199999999999,-0.0005346966000000001,-0.0006307442,-5.5274000000002615e-06,4.664,0,0
0.0006050057200000001,-0.00129817,-0.0005431521999999999,0.0006243017999999999,0.0010593466,4.665,0,0
0.0018641437200000001,-0.001839665,0.0001227877999999999,0.0015692718,0.0031390406000000003,4.666,0,0
0.0024189374,-0.002399357,0.0009108978,0.0018886727999999997,0.003881522,4.667,0,0
0.0022585812,-0.0019071640000000003,0.0009806134,0.0018978226,0.0034784620000000003,4.668,0,0
0.0025433898000000003,0.00014089799999999998,0.000779666,0.0015932286,0.004007292000000001,4.669,0,0
0.0021033744,0.001485006,0.00073883846,0.000757306,0.004198832,4.67,0,0
0.0003009324000000001,0.001944221,0.00025654365999999994,-0.000254532,0.0024224800000000003,4.671,0,0
-0.0009594855999999999,0.0023652298,-0.00043623834000000003,-0.0005119022,0.0011800040000000001,4.672,0,0
-0.0015163954,0.0021411908,-0.00044793194000000003,-0.00020496620000000002,0.00051150096,4.673,0,0
-0.0023418474,0.0008809504000000001,-0.00032681154000000005,-0.00016115280000000002,-0.00174046504,4.674,0,0
-0.003301978,0.00022715639999999998,-0.00033026962,1.5962600000000022e-05,-0.00402003504,4.675,0,0
-0.0031856620000000006,0.0006311624,2.976717999999992e-05,0.0004692956,-0.00434388704,4.676,0,0
-0.0026729976,0.0006152610000000001,0.00035573258,0.0004883164,-0.00476297704,4.677,0,0
-0.0027083416000000006,0.0007051052,0.00023412718,0.0002709256,-0.005851016,4.678,0,0
-0.0018231376000000003,0.0003764216,0.00054468498,0.0004780422,-0.004438206,4.679,0,0
-0.00012742560000000012,-0.0010458184,0.0008145464000000001,0.0005431774000000001,-0.0017104659999999997,4.68,0,0
0.0006488396,-0.0016612446,0.0003060124000000001,0.00033768199999999996,-0.00016473599999999975,4.681,0,0
0.0015700492,6.910599999999977e-05,0.000603815,0.0005360512,0.00226456,4.682,0,0
0.0029978571999999997,0.0021578958000000002,0.0010598162,0.00029959159999999997,0.004943302,4.683,0,0
0.0028660812000000004,0.0034266758,0.00059665,-0.0004891323999999999,0.005521712000000001,4.684,0,0
0.0025607252000000003,0.004263959800000001,0.00033888960000000003,-0.0007685058,0.005639404000000001,4.685,0,0
0.00335113,0.0027941380000000007,0.0007775155999999999,-0.0008346286,0.006249842,4.686,0,0
0.0025872748,-0.00047387600000000003,0.00047566420000000006,-0.0007906749999999999,0.005089648,4.687,0,0
0.0006737868000000001,-0.00317138,-0.00016896779999999999,-2.5018599999999903e-05,0.00266962,4.688,0,0
0.00011641679999999994,-0.0045373160000000004,-0.00016287579999999994,0.0009636394000000001,0.001355906,4.689,0,0
-0.0007234892,-0.004284643,-0.0005833393999999999,0.0012599028,-0.0009042839999999999,4.69,0,0
-0.0024925612,-0.002771218,-0.0012369414,0.0012360344000000001,-0.00420756,4.691,0,0
-0.0026647372,-0.0008328719999999999,-0.0014984797999999999,0.0010306356,-0.005654982000000001,4.692,0,0
-0.0016785424000000002,0.000811532,-0.0012608938,0.0006006994,-0.005576448,4.693,0,0
-0.0016834744000000003,0.0007561580000000002,-0.0009678583599999999,0.0002743468,-0.005838036000000001,4.694,0,0
-0.0015212824000000002,-0.00016676499999999982,-0.00072959376,0.0002525276,-0.005275096,4.695,0,0
-1.010639999999988e-05,0.000473522,-7.169776000000001e-05,0.0008844552,-0.002828888,4.696,0,0
0.0009572408000000001,0.0015493640000000001,0.00043444404,0.0009565349000000001,-0.001090992,4.697,0,0
0.0009471610000000001,0.0012514540000000004,0.0007629040400000001,0.00042999309999999997,0.00018057200000000005,4.698,0,0
0.0012863298000000002,0.0014387980000000002,0.0014223946000000002,0.00043051889999999994,0.0028413279999999997,4.699,0,0
0.0015454210000000002,0.001944186,0.0015863571200000002,0.0005113041,0.0050923900000000005,4.7,0,0
0.0008218462000000001,0.00014286399999999993,0.0011934247200000002,2.6464899999999988e-05,0.0054660360000000005,4.701,0,0
0.00025270619999999996,-0.002353706,0.0007866121200000001,-0.000324958,0.005790036,4.702,0,0
0.0006354772,-0.0024486840000000005,7.781811999999996e-05,-9.026739999999997e-05,0.005932408,4.703,0,0
0.0005343444,-0.0001537540000000003,-0.00130414988,-0.0004612626,0.003490392,4.704,0,0
0.00021992519999999998,0.00166288,-0.002075309,-0.0012636506,0.0002123559999999997,4.705,0,0
0.0004582252000000001,0.0017453,-0.001812631,-0.0018420733999999998,-0.001782222,4.706,0,0
-0.0002455427999999999,0.001074288,-0.0020209704,-0.0024033894000000003,-0.004495416,4.707,0,0
-0.0015118128,0.0005873402000000003,-0.0018492914,-0.003063492,-0.007403588000000001,4.708,0,0
-0.0016236932,-0.0005431637999999998,-0.0008441714,-0.0035425599999999997,-0.007804006,4.709,0,0
-0.0014618934000000003,-0.0025430418,-0.00024487440000000004,-0.00351485,-0.006792948,4.71,0,0
-0.0022292226,-0.0027065277999999996,-0.0003360760000000001,-0.003303456,-0.006182981999999999,4.711,0,0
-0.0024228226,-0.0015779978,9.322919999999996e-05,-0.002727292,-0.0042099778,4.712,0,0
-0.0013957198,-0.002076562,0.0005785622,-0.001256496,-0.0005197378,4.713,0,0
-0.0010777853999999999,-0.003297486,0.0005216562,0.0005358020000000002,0.0017893362000000002,4.714,0,0
-0.0005924831999999998,-0.002855438,0.0010162692,0.0021747100000000003,0.0034079942,4.715,0,0
0.0012772968,-0.001589165,0.0014746052,0.0036804780000000005,0.005947272200000001,4.716,0,0
0.0026878308000000003,-0.0005553929999999999,0.001663152,0.0044456800000000005,0.007466618,4.717,0,0
0.002985342,0.0004839130000000002,0.001494093,0.0038690248000000007,0.006932614,4.718,0,0
0.003235,0.0012732590000000001,0.0011301082,0.0027266890000000005,0.0065438200000000005,4.719,0,0
0.0028940608000000002,0.002017459,0.0007467134,0.0014834994,0.00598973,4.72,0,0
0.0012499948,0.0024802500000000002,-1.593260000000001e-05,-0.0002163006,0.002852324,4.721,0,0
-7.17812e-05,0.002362144,-0.0007498986000000001,-0.0012311686000000001,-0.0007017280000000002,4.722,0,0
-0.0007638492,0.0017497992,-0.0009947146,-0.0013544613999999999,-0.0028644080000000006,4.723,0,0
-0.0017627212000000001,0.0005270752000000001,-0.0008760638,-0.0015757116,-0.005393630000000001,4.724,0,0
-0.0027846200000000002,-0.0005560068,-0.0009004814,-0.0017618619999999999,-0.007504192,4.725,0,0
-0.002802094,-0.0008897648,-0.0007753053999999999,-0.0011012408,-0.006852560000000001,4.726,0,0
-0.0024599500000000002,-0.0005826368,-0.0007530914,-0.000429825,-0.005689584000000001,4.727,0,0
-0.00251575,0.000603816,-0.0006898684000000001,-0.0005593088000000001,-0.005191282,4.728,0,0
-0.0015031800000000002,0.002569184,-0.00022684240000000013,-0.0003676202,-0.002948542,4.729,0,0
2.1378000000000065e-05,0.0033921460000000004,0.00013868799999999993,2.2955800000000015e-05,-0.00039700200000000003,4.73,0,0
0.0005158182000000001,0.002234538,0.00043992679999999994,0.00012083380000000004,0.000467376,4.731,0,0
0.0014651502000000002,0.0014324254000000001,0.0010059426,0.00038877200000000007,0.00217919,4.732,0,0
0.0030619702000000003,0.0015276273999999999,0.0014766166,0.0009852518,0.0050470919999999996,4.733,0,0
0.0031671742000000005,0.0009976354,0.001184415,0.0013611952,0.0063042739999999995,4.734,0,0
0.0023368142000000005,-7.895659999999991e-05,0.0009351448,0.0013031841999999998,0.0066176279999999995,4.735,0,0
0.0020779460000000007,-0.00044270859999999987,0.0008796230000000001,0.001349005,0.007850262,4.736,0,0
0.0017655400000000001,-0.0008625360000000001,0.0002570691999999999,0.0011036688,0.007567502,4.737,0,0
0.0006580160000000001,-0.002404434,-0.0005847128,0.0001872968,0.0043133979999999995,4.738,0,0
3.1929800000000014e-05,-0.00290830748,-0.0010292552000000003,-0.0005099812,0.0015204179999999997,4.739,0,0
-8.998220000000002e-05,-0.00121853948,-0.001482347,-0.0009600582,-0.0006051720000000002,4.74,0,0
-0.0010328962000000002,0.0006952125199999999,-0.001852832,-0.0017629082000000002,-0.0037966180000000007,4.741,0,0
-0.0020076482,0.00148121452,-0.00151303,-0.002304482,-0.005660212,4.742,0,0
-0.0021072054,0.00163274452,-0.00129439,-0.002185546,-0.00503915,4.743,0,0
-0.0022386032,0.0006557039999999998,-0.0012411079999999999,-0.0018479836,-0.0051362000000000005,4.744,0,0
-0.0021089912000000002,-0.0009746920000000001,-0.0010035908,-0.0010180356,-0.0058104160000000005,4.745,0,0
-0.0008433742000000001,-0.001808719,-0.0005452922,0.0003549484,-0.004465162,4.746,0,0
-0.00017562919999999997,-0.0022632692,0.00014831579999999994,0.0016284544000000002,-0.0027925880000000004,4.747,0,0
-0.00023375479999999997,-0.0023166772000000006,0.0007239918000000001,0.0026821124,-0.0017658320000000002,4.748,0,0
0.0007224752,-0.001461646,0.0017035518,0.0033206240000000003,0.000963182,4.749,0,0
0.0017712652000000002,-0.0004192680000000001,0.0027930906,0.0033885840000000005,0.00429252,4.75,0,0
0.0019646642,7.135500000000005e-05,0.002934298,0.0032462620000000006,0.005478038000000001,4.751,0,0
0.0027530752,0.0006657612,0.002560794,0.0028922960000000004,0.0062155660000000005,4.752,0,0
0.003705748,0.0013689712000000001,0.0022781850000000003,0.0022831912000000005,0.006911426,4.753,0,0
0.0029432050000000004,0.0017245440000000002,0.0014610684,0.0015938576,0.004839470000000001,4.754,0,0
0.0012581470000000003,0.00169683,0.00046613700000000004,0.0006805176,0.0018120020000000005,4.755,0,0
0.00020147699999999993,0.0014653088,4.2934999999999995e-05,-0.0004076284,0.0005096900000000001,4.756,0,0
-0.0011878290000000003,0.0008379599999999999,-0.000417577,-0.0011985124,-0.001693256,4.757,0,0
-0.0032995870000000005,0.00012353399999999996,-0.0010255339999999998,-0.0015636636,-0.00475463,4.758,0,0
-0.0038503599999999997,0.000220416,-0.0015608034,-0.001477163,-0.005724788000000001,4.759,0,0
-0.0029933995999999997,9.002160000000001e-05,-0.0019393600000000002,-0.0010843298,-0.0054216740000000005,4.76,0,0
-0.0025646875999999997,-0.0007291872000000001,-0.002168286,-0.0009151897999999999,-0.005936076,4.761,0,0
-0.0016965636,-0.0012202984,-0.0018429344000000002,-0.0006820088000000001,-0.005605456,4.762,0,0
-0.00016597360000000002,-0.0014595924000000001,-0.0010190764,-0.0007683028000000001,-0.0036031434,4.763,0,0
0.00021202239999999997,-0.0022096424,-0.0005882293999999999,-0.0017203918000000002,-0.0024074062,4.764,0,0
0.00033797539999999994,-0.0026132060000000003,-0.00016918739999999992,-0.002343589,-0.0010131542000000001,4.765,0,0
0.0017504414,-0.0020004628,0.0004856506000000001,-0.0019769988,0.0017211618,4.766,0,0
0.0025628774,-0.0010960508,0.0006883810000000001,-0.0017792906000000002,0.0037410958,4.767,0,0
0.0025695334,-0.00010580479999999998,0.0006622910000000001,-0.001600378,0.0046128312000000005,4.768,0,0
0.0032800734000000002,0.0010186692000000001,0.001172978,-0.00040607800000000015,0.005921334,4.769,0,0
0.00318644198,0.0024947892,0.00154042,0.000518862,0.006146034,4.77,0,0
0.00115205598,0.0031162180000000005,0.0013395496000000002,0.00041287980000000006,0.0038566660000000003,4.771,0,0
-0.00066164402,0.002236738,0.0008925158000000001,0.0002562526,0.0014411439999999999,4.772,0,0
-0.00112205422,0.0012097619999999996,0.0003032498000000001,0.0004373261,-0.0002289779999999999,4.773,0,0
-0.0026657122199999998,0.0005651962000000001,-0.0004667062,0.00012579290000000004,-0.002669318,4.774,0,0
-0.0041552562000000005,0.00013888820000000017,-0.0012911782,-0.0004186071,-0.004836798,4.775,0,0
-0.0036454802000000005,-0.0005262896000000001,-0.0016287638000000001,-0.0003742561,-0.004924808,4.776,0,0
-0.0037007962000000006,-0.0006888896,-0.0018951080000000004,-0.0003018453,-0.0042575140000000004,4.777,0,0
-0.004226790000000001,4.51644000000001e-05,-0.0020494840000000003,-0.00046907540000000003,-0.0037986720000000003,4.778,0,0
-0.002965514,0.0006194662,-0.0016720136000000002,-7.10102e-05,-0.0020956560000000004,4.779,0,0
-0.0008806540000000002,-0.00012942840000000012,-0.0010948368000000003,0.0006575578000000001,0.0003778979999999999,4.78,0,0
0.0002828059999999999,-0.0009253586000000002,-0.0006112168000000001,0.0006367238400000001,0.001326552,4.781,0,0
0.001986784,0.0001948493999999999,0.00033485920000000003,0.0007645310400000001,0.002710494,4.782,0,0
0.003884778,0.0014180553999999998,0.0013787472000000001,0.0011581890400000003,0.0049980860000000005,4.783,0,0
0.004728082,0.0014111774,0.0013000116,0.0008149702400000001,0.0060120880000000005,4.784,0,0
0.005113626,0.000660128,0.0015185848000000002,7.613224000000004e-05,0.0060523600000000006,4.785,0,0
0.0054338680000000006,0.000585244,0.0026249348,-0.0003312727999999999,0.006965724,4.786,0,0
0.00512149,1.2354000000000092e-05,0.0025588328,-0.0011647368,0.006778228,4.787,0,0
0.0038621816000000003,-0.0023602540000000004,0.0015970568000000002,-0.0022890308,0.004226722,4.788,0,0
0.0029010328000000003,-0.003759838,0.0018855832000000002,-0.0024268320000000003,0.002517092,4.789,0,0
0.0017117388,-0.0029254926000000002,0.0016712564000000002,-0.001661572,0.0007596879999999996,4.79,0,0
-8.07952e-05,-0.001998178,-0.00011926359999999992,-0.00046555999999999995,-0.001636588,4.791,0,0
-0.0011886632,-0.0021520180000000003,-0.0007968315999999999,0.0008885660000000002,-0.0030567000000000003,4.792,0,0
-0.0016353788,-0.0011731826000000002,-0.0006073424,0.0030419520000000005,-0.002188596,4.793,0,0
-0.0028467480000000005,0.0002471674,-0.0007101952,0.004165294,-0.002214496,4.794,0,0
-0.0032559700000000004,0.001076806,-0.0008823568,0.0044025159999999995,-0.0017113927999999998,4.795,0,0
-0.0028122240000000003,0.0020351774,-0.0002857888,0.0042578519999999995,0.0003660012,4.796,0,0
-0.0017986420000000003,0.0025198106000000006,1.7235800000000022e-05,0.001547072,-0.0029459788,4.797,0,0
-0.001708512,0.0017128632000000003,-0.0017556233999999997,-0.0019689020000000002,-0.010051156799999999,4.798,0,0
-0.00593761,-0.0009959668000000003,-0.0043436118,-0.004760220000000001,-0.017405808800000002,4.799,0,0
-0.01127984,-0.0040580448000000005,-0.0064351994,-0.007480704,-0.026084016,4.8,0,0
-0.015195918000000001,-0.0055420448,-0.0083547554,-0.00884979,-0.03374282,4.801,0,0
-0.018768780000000002,-0.005172396,-0.009298898,-0.006776954,-0.033278880000000004,4.802,0,0
-0.019592340000000003,-0.003757758,-0.0074308224,-0.003451326,-0.026382866,4.803,0,0
-0.012968946,-0.001127632,-0.0036866664,9.948800000000001e-05,-0.015260546,4.804,0,0
-0.0026157060000000006,0.002293514,0.0010161736000000004,0.00420056,0.0018642139999999977,4.805,0,0
0.007449034,0.004376858000000001,0.005528773600000001,0.0072138459999999995,0.019875074,4.806,0,0
0.017461714000000003,0.005409832000000001,0.009224179600000002,0.00956529,0.035535394,4.807,0,0
0.025911294,0.007028202000000001,0.012579076000000002,0.010665201999999999,0.04810806000000001,4.808,0,0
0.030743640000000003,0.008097524,0.013994840000000001,0.010171557999999999,0.055881700000000006,4.809,0,0
0.029931160000000002,0.007575560000000001,0.012791974000000001,0.0082193228,0.05502332000000001,4.81,0,0
0.025663594,0.006599516,0.0102416854,0.0046411408000000005,0.046412400000000006,4.811,0,0
0.0185237398,0.004326239999999999,0.006775651400000001,0.00044418679999999947,0.03293789000000001,4.812,0,0
0.008249659800000001,0.0004830779999999994,0.0017642774000000009,-0.004279593200000001,0.014124649999999999,4.813,0,0
-0.0024044801999999997,-0.0024444280000000002,-0.0034768826,-0.0085219512,-0.006671570000000001,4.814,0,0
-0.0111201402,-0.004127506,-0.0075817566,-0.010931396000000001,-0.024685770000000003,4.815,0,0
-0.0182783942,-0.0053332300000000004,-0.010582048,-0.011689654,-0.03852569,4.816,0,0
-0.023950179999999998,-0.0056297280000000005,-0.012386834,-0.01130714,-0.0477582,4.817,0,0
-0.025414919999999997,-0.004978418000000001,-0.012555164,-0.009398479999999999,-0.0496101,4.818,0,0
-0.023193500000000002,-0.0037776040000000004,-0.011020055999999999,-0.005748706000000001,-0.044671960000000004,4.819,0,0
-0.018759394,-0.002407136,-0.008091232600000001,-0.0020516480000000005,-0.035840702,4.82,0,0
-0.011534296,-0.0020901120000000003,-0.0037557325999999997,0.0018448700000000004,-0.022237882,4.821,0,0
-0.0022118560000000003,-0.002485292,0.0010840274,0.006137770000000001,-0.004635582000000001,4.822,0,0
0.006637444000000001,-0.0016617913999999998,0.005517011400000001,0.00921971,0.012092298000000001,4.823,0,0
0.013614704000000002,-0.0004126313999999996,0.0093411034,0.010890196000000001,0.026115798000000003,4.824,0,0
0.018827618,0.0003282986000000003,0.01169356,0.011628318,0.03801398,4.825,0,0
0.02070942,0.0021878886000000005,0.011864652,0.010829046,0.04406224,4.826,0,0
0.018518408,0.005089684600000001,0.010202125999999999,0.0080943192,0.04186718,4.827,0,0
0.014065791120000002,0.006149044000000001,0.0075801952,0.0053225291999999995,0.03526420000000001,4.828,0,0
0.008107453120000002,0.004520136000000001,0.004193041200000001,0.0020260192000000005,0.025099782,4.829,0,0
0.0003316931200000005,0.0013205340000000004,5.879919999999964e-05,-0.0022755607999999997,0.009350862000000003,4.83,0,0
-0.006959166880000001,-0.0018019300000000002,-0.0036971528000000003,-0.0055940468,-0.0073592580000000005,4.831,0,0
-0.01190541488,-0.003788712,-0.0063808268,-0.00810614,-0.021242538000000002,4.832,0,0
-0.015605918,-0.005034888,-0.008173658,-0.009964170000000001,-0.033444678000000005,4.833,0,0
-0.01769122,-0.0043871932,-0.009260202,-0.010240308,-0.04147274000000001,4.834,0,0
-0.01669184,-0.0015422852,-0.008782064000000001,-0.00844669,-0.041343300000000006,4.835,0,0
-0.013750112,0.0007940788000000002,-0.0068530812000000005,-0.005795114000000001,-0.03543304,4.836,0,0
-0.009864112,0.0017945808000000003,-0.004442661200000001,-0.002753476,-0.026196418000000003,4.837,0,0
-0.004056332000000001,0.0020922088000000006,-0.0012118311999999999,0.0010228720000000002,-0.012260618000000001,4.838,0,0
0.003046628,0.0015733000000000001,0.0020290648,0.004217132000000001,0.0031468220000000005,4.839,0,0
0.009391208,0.0009288251999999999,0.0044653888,0.0059981340000000005,0.015960282,4.84,0,0
0.01423432,0.0008364992000000001,0.006545228,0.007122970000000001,0.026385522,4.841,0,0
0.01767834,0.0015162352000000002,0.007861504,0.007500462000000001,0.033988040000000004,4.842,0,0
0.01856624,0.0032919692000000006,0.00759045,0.00569282,0.03543604,4.843,0,0
0.016530858000000002,0.005124663200000001,0.006568536,0.0028068640000000005,0.03099588,4.844,0,0
0.0125649008,0.004593098,0.00493445,0.0002387340000000002,0.0237469572,4.845,0,0
0.006791446800000001,0.002243854,0.0017900760000000005,-0.002719002,0.012640937200000002,4.846,0,0
-0.0003060732000000001,-0.0005305139999999999,-0.0018997779999999998,-0.005554848000000001,-0.0012490428000000008,4.847,0,0
-0.0072649532,-0.0037759080000000006,-0.005064212,-0.006854856000000001,-0.0131660028,4.848,0,0
-0.012984851200000001,-0.006393916,-0.0073649119999999995,-0.007079086000000001,-0.0222897028,4.849,0,0
-0.016986154,-0.006870864000000001,-0.00856588,-0.00679016,-0.02959258,4.85,0,0
-0.018161899999999998,-0.00548722,-0.008626126,-0.0056931379999999995,-0.03235788,4.851,0,0
-0.016425204000000002,-0.0036533016,-0.007292856,-0.0036846739999999998,-0.02949508,4.852,0,0
-0.013363126000000003,-0.0019007616000000004,-0.0049863519999999995,-0.001215,-0.024250226000000003,4.853,0,0
-0.008647910000000002,-0.0007233243999999999,-0.0026259860000000003,0.0010976,-0.016398086000000003,4.854,0,0
-0.00209707,0.0004102816,0.00017672800000000013,0.003405282,-0.004678626000000001,4.855,0,0
0.0038146500000000006,0.0015108156,0.0032261620000000003,0.005374404000000001,0.006864054000000001,4.856,0,0
0.008721174,0.0020574152,0.005556588,0.006693178000000001,0.016142374,4.857,0,0
0.013426656,0.0025045872,0.007236308,0.007272044,0.02467886,4.858,0,0
0.016017280000000002,0.0027154960000000004,0.008260950000000001,0.006942594,0.0300734,4.859,0,0
0.015421579999999999,0.0025511478000000004,0.007880092,0.005431762,0.029492580000000004,4.86,0,0
0.0133204,0.0022961618000000004,0.0063031580000000005,0.003707086,0.0255677,4.861,0,0
0.009905666,0.0020363098000000003,0.0044661194,0.002370914,0.019688766,4.862,0,0
0.004176834000000001,0.0012474906,0.0016667734000000004,0.0005744700000000001,0.009736366,4.863,0,0
-0.0017909060000000005,0.00036447460000000014,-0.0017950746000000004,-0.0012571160000000002,-0.0016941740000000001,4.864,0,0
-0.006310386000000001,-0.00032794119999999996,-0.0043413186000000005,-0.0023530780000000006,-0.010884594000000001,4.865,0,0
-0.009969086,-0.0014247212,-0.0062275306,-0.0033900960000000004,-0.018942934,4.866,0,0
-0.012307392000000002,-0.0025011492,-0.007779398,-0.005022338,-0.025645340000000003,4.867,0,0
-0.012249958,-0.002786948,-0.0075910660000000005,-0.005583884,-0.02762096,4.868,0,0
-0.010595932,-0.0029143400000000005,-0.005783078200000001,-0.0046013024,-0.02504338,4.869,0,0
-0.008732886,-0.0030181620000000004,-0.0041661748,-0.0031759264000000005,-0.020674452000000003,4.87,0,0
-0.00574046,-0.0021716114,-0.0021149548000000003,-0.0010909564000000003,-0.013036751999999999,4.871,0,0
-0.0014504779999999996,-0.0012511074,0.0007492092,0.0016461456,-0.0022216319999999986,4.872,0,0
0.00295738,-0.0004607673999999999,0.0027299832,0.0036830715999999998,0.007393108000000001,4.873,0,0
0.0069388340000000005,0.0008843046,0.0040221854,0.004813882,0.015120108,4.874,0,0
0.010439428,0.0022335566,0.005566434,0.005475466000000001,0.02187628,4.875,0,0
0.012750482,0.0027353600000000005,0.006377046000000001,0.004834527999999999,0.024967800000000002,4.876,0,0
0.012251682000000002,0.0026410300000000004,0.005708874,0.0030503960000000004,0.022820280000000002,4.877,0,0
0.009942330000000001,0.0027108060000000005,0.004615033,0.0011477260000000002,0.018857484,4.878,0,0
0.006513624,0.0025815020000000003,0.003377919000000001,-0.0008044840000000003,0.013303378,4.879,0,0
0.0014022840000000002,0.0019353848800000002,0.0012203790000000002,-0.0031013320000000005,0.004432478,4.88,0,0
-0.003622216,0.00130757488,-0.001173629,-0.004883436,-0.004339022,4.881,0,0
-0.006953838,0.0007651608800000001,-0.003090357,-0.005685652,-0.010965742,4.882,0,0
-0.009614686,-0.0004230031200000001,-0.004784802,-0.006104216000000001,-0.016575626,4.883,0,0
-0.01158008,-0.00141427112,-0.005984150000000001,-0.006051910000000001,-0.020495700000000002,4.884,0,0
-0.01071107,-0.001757578,-0.005708062,-0.005186030000000001,-0.020370160000000002,4.885,0,0
-0.008675704000000001,-0.002112544,-0.0044492346,-0.0036845398000000004,-0.017362906,4.886,0,0
-0.006754157400000001,-0.0020622,-0.0031208306000000004,-0.002252089,-0.013509290000000002,4.887,0,0
-0.0029960594000000016,-0.0013366106,-0.0011697466000000001,-0.0006270530000000002,-0.00718384,4.888,0,0
0.0016828806000000003,-0.0006044986,0.0009952493999999998,0.0017689110000000002,0.0011743400000000003,4.889,0,0
0.0051615906,-0.00026941021999999997,0.0025856994,0.004070491,0.00819918,4.89,0,0
0.0081426846,0.0009251337800000001,0.0039038780000000004,0.0060781868000000005,0.013899626000000002,4.891,0,0
0.010947038000000001,0.00256885578,0.005032278,0.00789743,0.01913373,4.892,0,0
0.011384120000000001,0.00317159238,0.005313750000000001,0.008457104,0.020605520000000002,4.893,0,0
0.009724204,0.0028161121800000005,0.004821388000000001,0.007265874,0.018102948000000004,4.894,0,0
0.0076621974,0.0014530158,0.0038213124000000005,0.005424618,0.014674666000000005,4.895,0,0
0.0042875594,-0.0009967881999999998,0.0020504684,0.002774998,0.009090096000000002,4.896,0,0
-0.0005853006000000002,-0.0033616882000000008,-0.0003478775999999998,-0.0006886840000000002,0.0010508160000000004,4.897,0,0
-0.0047898406,-0.0043115142,-0.0026803056000000002,-0.0030152340000000003,-0.005566824,4.898,0,0
-0.0075001246,-0.0040135542,-0.0041799696,-0.0045640540000000005,-0.010309272000000001,4.899,0,0
-0.009584904000000002,-0.0024611890000000008,-0.005016432,-0.0060283540000000005,-0.015010470000000001,4.9,0,0
-0.010391740000000002,-0.00041854300000000006,-0.005045934,-0.006463552000000001,-0.017521500000000002,4.901,0,0
-0.009411492,0.0006831617999999999,-0.0039217346,-0.005599070000000001,-0.015723816,4.902,0,0
-0.007759127999999999,0.0009748358,-0.0026187045999999997,-0.004595344000000001,-0.012626462000000001,4.903,0,0
-0.0056325904,0.00164278,-0.0013784246000000003,-0.0033909658000000004,-0.009382747200000001,4.904,0,0
-0.0025725744000000004,0.0030949008,0.00017788340000000002,-0.0014288358,-0.0032963272000000004,4.905,0,0
0.0009922596,0.0041851668,0.0012783494000000002,5.0110199999999926e-05,0.0035800328,4.906,0,0
0.0044431716,0.004207175,0.00203569,0.0010459542,0.0080452888,4.907,0,0
0.0073515076,0.0029535889999999995,0.0031297480000000003,0.0021385402,0.0116393348,4.908,0,0
0.009158054,0.0006996790000000004,0.003605458,0.0032486380000000007,0.014981000000000001,4.909,0,0
0.009268332,-0.0012175970000000002,0.0032311840000000002,0.00341722,0.014992100000000001,4.91,0,0
0.007975298,-0.0017800010000000002,0.002881776,0.0034818260000000004,0.012630869999999999,4.911,0,0
0.006015620000000001,-0.0020345352,0.002078876,0.004287058,0.009752026799999999,4.912,0,0
0.003038516,-0.0022167172,0.0005497699999999999,0.004127072000000001,0.0044360668,4.913,0,0
-0.0003377240000000002,-0.0011242352000000002,-0.0008963180000000001,0.0032557020000000005,-0.0020146732000000003,4.914,0,0
-0.003216852,-0.0008913448000000001,-0.00196862,0.00236299,-0.007051793200000001,4.915,0,0
-0.005751514000000001,-0.0024374408,-0.003243034,0.0010778719999999997,-0.0111620632,4.916,0,0
-0.007514876,-0.0022606378,-0.0041884240000000005,-0.0006703260000000002,-0.014409040000000001,4.917,0,0
-0.007573804,-0.0006276676,-0.0041538040000000005,-0.0019367160000000002,-0.014538820000000001,4.918,0,0
