bandpass 1,bandpass 2,bandpass 3,bandpass 4,bandpass 5,time,onset,mark
0.00030676520000000004,0.0011157340000000002,-0.000703424,0.0008625576000000001,-0.00047504800000000005,2.866,0,0
0.0008337412000000001,0.00071865,-0.0006670118000000001,0.0010642876000000001,-0.00022842600000000005,2.867,0,0
0.0016728592000000001,0.0007058300000000002,-0.0010884718,0.0008867952000000001,0.0011338840000000002,2.868,0,0
0.0021582084,0.0016894240000000001,-0.0021194698,-1.1702799999999992e-05,0.00308311,2.869,0,0
0.002283428,0.001414522,-0.0022077778,-0.0005577568,0.0038749852,2.87,0,0
0.00252025,0.00167937,-0.0023570498000000002,-0.0011646404000000001,0.004680210000000001,2.871,0,0
0.0023377500000000004,0.003709134,-0.003169666,-0.0018221404,0.005354472000000001,2.872,0,0
0.0015362574,0.0057021780000000005,-0.0026345884,-0.001992688,0.0039604641999999995,2.873,0,0
0.0008770936,0.00629532,-0.0013501124,-0.0016076107999999998,0.0015949481999999997,2.874,0,0
0.000485504,0.005123343999999999,-0.0006527403999999999,-0.001155759,0.0003321481999999998,2.875,0,0
-0.000493084,0.0028361519999999998,0.0007783736,-0.0005960662,-0.0011457218,2.876,0,0
-0.001468456,9.82779999999996e-05,0.0024937756000000004,0.0003743098,-0.0032705158,2.877,0,0
-0.0014215853999999999,-0.002103834,0.0028945340000000003,0.0011327058,-0.003849616,2.878,0,0
-0.001254604,-0.0031594342000000005,0.002684236,0.0013665274000000001,-0.0033637280000000003,2.879,0,0
-0.0015029464,-0.0028149782,0.0028098080000000004,0.0019386456000000003,-0.0038258080000000004,2.88,0,0
-0.0012346444000000002,-0.0020707822000000002,0.0023170568000000003,0.0027662688000000004,-0.003385692,2.881,0,0
-0.0006193284,-0.0023776022,0.0011833984000000001,0.0026772888,-0.0015486340000000001,2.882,0,0
-0.0008230142,-0.0033122522,0.0005388274000000001,0.0022419270000000003,-0.0007654252000000002,2.883,0,0
-0.0007800176,-0.0035803782000000004,-0.0002822806,0.0021748706000000004,0.0001742587999999999,2.884,0,0
0.0003808304,-0.0029954282,-0.0017729766,0.0015978658000000002,0.0020143508,2.885,0,0
0.0010789704,-0.0021741434,-0.0029576674,0.0006099794000000002,0.0029990588,2.886,0,0
0.0012642642,-0.0006785178000000001,-0.003505279,7.298520000000003e-05,0.0032923308,2.887,0,0
0.001981968,0.0008847282000000001,-0.004002366,-0.00033111899999999994,0.004032532,2.888,0,0
0.0022642858000000003,0.0014868184000000001,-0.003975088,-0.0011448814,0.00428343,2.889,0,0
0.0011834678,0.0013271466000000002,-0.002474344,-0.0020333386,0.0029754580000000003,2.89,0,0
0.00033348580000000007,0.0011160872,-0.0009010220000000001,-0.0024558062,0.0013973880000000003,2.891,0,0
-3.1734799999999925e-05,0.0013965136,0.00016845199999999987,-0.002635586,-4.109999999999878e-06,2.892,0,0
-0.0011434748,0.0020378236000000004,0.001909144,-0.0023066448000000003,-0.00177838,2.893,0,0
-0.0020811548,0.0029465796000000006,0.0033678940000000006,-0.0012488487999999997,-0.003273766,2.894,0,0
-0.0021754868,0.0039737494000000005,0.003302478,-0.0001033748000000001,-0.003614672,2.895,0,0
-0.0021662108,0.0044574079999999995,0.003229384,0.0007824152000000001,-0.0035088560000000003,2.896,0,0
-0.002439394,0.0029855999999999997,0.0035048,0.0013245992000000002,-0.003830226,2.897,0,0
-0.0018966897999999999,-4.776200000000002e-05,0.002192447,0.0016079296000000001,-0.003164194,2.898,0,0
-0.0009831657999999999,-0.00296625,0.00048207100000000004,0.0014404146000000003,-0.001839434,2.899,0,0
-0.0006466566,-0.004853597999999999,0.00011885600000000011,0.0010016322000000002,-0.0013069009999999999,2.9,0,0
0.00031302940000000007,-0.005598252000000001,-0.000748878,0.0007703742000000001,-5.611299999999978e-05,2.901,0,0
0.0016280294000000002,-0.005067206,-0.00249064,0.0004860198,0.0020183170000000004,2.902,0,0
0.0022146792000000003,-0.0030640137400000005,-0.0031558330000000002,-0.00044122979999999996,0.0031933430000000004,2.903,0,0
0.0025708492,-0.0005947477399999999,-0.003308095,-0.0012857828000000001,0.0040000090000000006,2.904,0,0
0.003373948,0.00086687226,-0.003941822,-0.0014680844000000003,0.005192174000000001,2.905,0,0
0.0030094218,0.00013362025999999992,-0.00348608092,-0.0017553018000000002,0.004803030000000001,2.906,0,0
0.0015746618000000005,-0.0004456257399999997,-0.0015870849200000001,-0.0016558396000000003,0.00267169,2.907,0,0
0.0009336850000000001,-0.00014255399999999992,-0.00014334691999999983,-0.0006829236,0.0009626899999999999,2.908,0,0
0.00041309619999999996,-0.0004447259999999999,0.00122621508,0.00017552640000000004,-0.0007727960000000003,2.909,0,0
-0.00032686780000000006,8.084800000000055e-05,0.00310545108,0.0003678438,-0.002880034,2.91,0,0
-0.0007559676000000001,0.0010516790000000002,0.00396675,0.00033888860000000007,-0.003947536,2.911,0,0
-0.0007458156,0.0021855914000000003,0.003786676,0.0003463350000000001,-0.0036234220000000003,2.912,0,0
-0.0014608028,0.0039522914,0.003832058,0.00017614319999999998,-0.003659084,2.913,0,0
-0.0026921160000000005,0.0048164034000000005,0.0036225240000000002,8.170839999999998e-05,-0.0038151400000000003,2.914,0,0
-0.0027960610000000003,0.0029216914000000003,0.0021963980000000004,0.00010606899999999999,-0.0025222900000000004,2.915,0,0
-0.0024518532,-0.00010194560000000019,0.0011458172,-9.81604e-05,-0.001460298,2.916,0,0
-0.0019973036000000004,-0.0018199300000000002,0.0006795836000000001,-0.00015975146000000003,-0.0008699568000000001,2.917,0,0
-0.00039107360000000034,-0.002997576,-0.0006450264000000001,-0.00014121906000000002,0.0008779732000000002,2.918,0,0
0.0017062524,-0.0035857040000000003,-0.0020795724,-0.0005237222600000001,0.0027781252000000003,2.919,0,0
0.0026051714,-0.002807655,-0.0026108184,-0.00066481086,0.0033820092000000006,2.92,0,0
0.0032139576,0.000746315,-0.0031144476,-0.0003618508600000001,0.0038286092000000002,2.921,0,0
0.00379991,0.0036659610000000006,-0.00404338,-0.0005181196,0.004611226,2.922,0,0
0.002719968,0.0027183536,-0.0035053668,-0.0007657744000000001,0.0036971491999999995,2.923,0,0
0.0009996839999999998,0.0016985060000000002,-0.0017851288,-0.00038754660000000005,0.0019210852,2.924,0,0
0.00025640799999999985,0.0022355490000000003,-0.0006685028,8.929000000000001e-05,0.0009293346000000002,2.925,0,0
-0.000652594,0.002318089,0.0006657291999999998,0.00039827400000000006,-0.0007457734000000001,2.926,0,0
-0.00237986,0.00011721499999999994,0.0022522532,0.0007029720000000002,-0.0029131293999999997,2.927,0,0
-0.002963042,-0.0014400516000000003,0.0024931932000000004,0.0009636754000000001,-0.0037407726000000005,2.928,0,0
-0.0026381359999999997,-0.0018238420000000002,0.0021086772,0.0009587096000000001,-0.0037462766,2.929,0,0
-0.00331525,-0.0035157780000000007,0.0024300852,0.0006801616000000001,-0.004089354,2.93,0,0
-0.0032475599999999996,-0.00457963,0.0020781552,0.0004926162,-0.0032241568000000004,2.931,0,0
-0.0014081760000000001,-0.0038115980000000007,0.0008718952,0.0002623926,-0.0013341308,2.932,0,0
-0.00016019399999999995,-0.0035207420000000003,0.0004171140000000002,3.809940000000002e-05,-0.00016807080000000004,2.933,0,0
0.000585796,-0.00370366,-0.00034287999999999994,0.00016269140000000005,0.0011847472,2.934,0,0
0.0021339560000000002,-0.001451176,-0.001964726,5.345960000000002e-05,0.0032022611999999997,2.935,0,0
0.003177792,0.001282346,-0.0028203580000000002,-0.00041739100000000003,0.004502572,2.936,0,0
0.003025554,0.003137976,-0.0025096516,-0.0005846277999999999,0.004614572,2.937,0,0
0.003048784,0.0049020819999999994,-0.0024297096,-0.0007221318,0.0050997659999999995,2.938,0,0
0.0028037714,0.004401499999999999,-0.0025675596,-0.0011764118,0.004926053999999999,2.939,0,0
0.0013260794000000001,0.001570438,-0.0013096196000000001,-0.001113612,0.002885954,2.94,0,0
-8.600859999999993e-05,-0.0013744740000000003,-2.123359999999994e-05,-0.0005472999999999999,0.0011898439999999998,2.941,0,0
-0.0010661006000000002,-0.0029271196,0.0004919520000000001,-8.428999999999994e-05,-0.00014742200000000024,2.942,0,0
-0.0026382906,-0.0022228076000000005,0.0020192660000000005,0.00025646,-0.002884648,2.943,0,0
-0.003795494,0.0003275903999999999,0.0036020900000000005,0.0003373314,-0.00516842,2.944,0,0
-0.003517992,0.0021907923999999997,0.0030552420000000005,0.00042620399999999996,-0.005440204000000001,2.945,0,0
-0.003284548,0.0020690604,0.0020055340000000002,0.000591046,-0.005836612000000001,2.946,0,0
-0.0028811488,0.0018610658,0.0016709504000000002,0.0006307180000000001,-0.006005122,2.947,0,0
-0.0011814247999999998,0.0009956958,0.00018960240000000006,0.0005942642,-0.003844290000000001,2.948,0,0
0.00030423919999999994,-0.0009317162,-0.0011630536,0.0005266388,-0.0011859760000000003,2.949,0,0
0.0009952172000000001,-0.0004106022,-0.00102785,0.00038293379999999996,0.00017159400000000017,2.95,0,0
0.0026022892,0.0019227958,-0.0015295920000000002,0.0001647424,0.0020655,2.951,0,0
0.004002286,0.0018491919999999997,-0.0027712244000000002,-0.00016722320000000005,0.004408540000000001,2.952,0,0
0.003853144,0.001011962,-0.0030376364000000004,-0.0004971894,0.005109842,2.953,0,0
0.0036581219999999998,0.0020920360000000002,-0.0025155782,-0.0006579794000000001,0.004848628,2.954,0,0
0.0031474539999999996,0.002693854,-0.0025878878,-0.0010016930000000001,0.004817206,2.955,0,0
0.0015975399999999997,0.00187799,-0.0022872018000000003,-0.0013067194,0.0036961784,2.956,0,0
-6.745599999999986e-05,0.001153518,-0.0005471458000000001,-0.0011464332,0.0011478424,2.957,0,0
-0.0009818259999999999,0.0006564639999999996,0.0010163162000000002,-0.0005238211999999999,-0.0009858256,2.958,0,0
-0.002092306,-0.001113682,0.0019023500000000001,0.00033016280000000006,-0.0028133656,2.959,0,0
-0.003525096,-0.0043603900000000004,0.003080044,0.0011893948000000001,-0.0050352236,2.96,0,0
-0.004056508,-0.006394838000000001,0.00427914,0.0016835246000000002,-0.00598312,2.961,0,0
-0.0037853886,-0.0062034260000000015,0.004112124000000001,0.0016422792000000002,-0.005160642000000001,2.962,0,0
-0.0033283326000000005,-0.0053427812000000005,0.0033654520000000005,0.0014090388000000003,-0.004432012000000001,2.963,0,0
-0.0023542244,-0.0037433192000000007,0.0027896220000000003,0.0010034172,-0.0035608586000000003,2.964,0,0
-0.00048354040000000005,-0.0014596131999999996,0.0015375220000000002,0.0005435312000000002,-0.0013655386000000001,2.965,0,0
0.0005645236,0.0005587708000000002,0.0002897360000000002,0.000266819,0.0005689894,2.966,0,0
0.0010222942,0.0023604548,-0.00027009379999999984,0.0004244298,0.0014751414,2.967,0,0
0.0019805662,0.004228592,-0.0012593438,0.0004316806,0.0032108794000000004,2.968,0,0
0.002977922,0.005286292,-0.0029401858000000004,8.292199999999927e-06,0.005049316,2.969,0,0
0.0032987740000000004,0.005295928,-0.0036189678000000006,-0.0003227058000000001,0.005294709999999999,2.97,0,0
0.0032443914000000003,0.00492185,-0.0036708398000000007,-0.0006119736000000001,0.0051748440000000005,2.971,0,0
0.0034899574000000003,0.0031795759999999995,-0.003891648,-0.0011576136000000002,0.005625606,2.972,0,0
0.0022483134,5.707599999999987e-05,-0.0029060040000000002,-0.0015955820000000003,0.00464147,2.973,0,0
0.00012343940000000006,-0.0018051460000000003,-0.0009125439999999999,-0.001176608,0.001924398,2.974,0,0
-0.0008848426,-0.0003252940000000003,0.000370656,-0.0005498740000000001,-0.00017507600000000014,2.975,0,0
-0.00135664,0.0015708379999999997,0.0012978260000000002,-0.00014147580000000004,-0.0025594140000000003,2.976,0,0
-0.002259398,0.0016009779999999999,0.0026388040000000002,0.0005409542,-0.005468514000000001,2.977,0,0
-0.002831948,0.0010571879999999997,0.0032984140000000004,0.0011756282,-0.006818932000000001,2.978,0,0
-0.00281211,-0.0004120720000000005,0.002754209,0.001166968,-0.006770562000000001,2.979,0,0
-0.002541945,-0.004109922,0.002655963,0.0007256626,-0.006406706000000001,2.98,0,0
-0.0014456349999999998,-0.007726814,0.002754635,0.0003306784000000001,-0.004983944000000001,2.981,0,0
-0.00031252899999999987,-0.00725757,0.001463565,1.7420200000000013e-05,-0.0028082460000000004,2.982,0,0
0.0009245710000000001,-0.0049274160000000004,0.0001771749999999999,-0.0002514608,-0.001245116,2.983,0,0
0.002251763,-0.0030760452000000004,-0.00042213600000000015,-0.0001592048,0.0008596100000000002,2.984,0,0
0.002672624,-0.0008128671999999998,-0.00165123,3.95946e-05,0.0035725600000000007,2.985,0,0
0.0021577640000000004,0.0013334808,-0.0029131860000000003,-0.00017187140000000006,0.0054878320000000015,2.986,0,0
0.0014185622,0.0022960968,-0.0028832100000000006,-0.0005984812000000001,0.006294664000000001,2.987,0,0
0.0014561702000000002,0.0025216268,-0.0030848440000000006,-0.0010654002,0.006767702000000001,2.988,0,0
0.0015223481999999998,0.00315562,-0.0032656160000000003,-0.001771086,0.00640451,2.989,0,0
0.0009216582,0.0032150320000000005,-0.001927298,-0.0021980940000000003,0.0040485339999999995,2.99,0,0
0.00030419819999999995,0.002909478,-0.0007994819999999998,-0.0019195324000000002,0.001408794,2.991,0,0
-0.0003390680000000001,0.0023137678000000003,-0.00013828,-0.00152378016,-0.00027713400000000006,2.992,0,0
-0.001719712,0.0008377138,0.0015496220000000003,-0.0009172279599999999,-0.0026157180000000004,2.993,0,0
-0.0031993480000000003,-0.00045689820000000003,0.0031926180000000004,-0.00010980595999999994,-0.00485437,2.994,0,0
-0.003512896,-0.0012995822000000001,0.0033953640000000005,0.00053391604,-0.004810272000000001,2.995,0,0
-0.003382846,-0.0019279322,0.003331684,0.0008148234400000001,-0.004505208000000001,2.996,0,0
-0.0030597640000000004,-0.0020981200000000006,0.0032206279999999997,0.0009496674000000001,-0.00480206,2.997,0,0
-0.0020491040000000004,-0.001167748,0.0019752492,0.0010747092000000001,-0.0035172200000000006,2.998,0,0
-0.0007454479999999999,-2.7586000000000125e-05,0.0002636111999999999,0.0010460612,-0.001521288,2.999,0,0
0.00031996800000000006,0.000713834,-0.0006643348,0.0010192332,-0.00040052800000000015,3.0,0,0
0.001349986,0.00141742,-0.0014241408000000002,0.0010986042,0.001287232,3.001,0,0
0.002647442,0.002124026,-0.0025845028,0.001045876,0.003654162,3.002,0,0
0.0030672959999999997,0.0026685540000000005,-0.0031743,0.0005309840000000001,0.004992052,3.003,0,0
0.0029726234,0.0022077140000000004,-0.0030326299999999997,5.2110000000000014e-05,0.005181656,3.004,0,0
0.0034832713999999997,0.0013324580000000003,-0.003276838,-0.00031382480000000004,0.005272286,3.005,0,0
0.0034426494000000005,-6.746799999999967e-05,-0.0030034540000000005,-0.0007040372000000001,0.004684932,3.006,0,0
0.0022567764000000004,-0.0017674919999999998,-0.0014283640000000005,-0.000835053,0.00239237,3.007,0,0
0.0012483543999999998,-0.002259868,-0.00018315600000000007,-0.0006565692,0.0004650240000000001,3.008,0,0
0.0005770310000000002,-0.0021575668,0.0008418899999999999,-0.00040041014,-0.0008669140000000001,3.009,0,0
-0.0011957390000000001,-0.0019667008,0.0027790239999999997,-7.312733999999995e-05,-0.0028665340000000004,3.01,0,0
-0.002860615,-0.0009731383999999999,0.004137228,0.0003202010600000001,-0.00411918,3.011,0,0
-0.00304961,4.055662000000004e-05,0.0036203572,0.00051216566,-0.004137174,3.012,0,0
-0.003063122,-0.0004286113800000001,0.0034461152,0.0007186216600000001,-0.004298098,3.013,0,0
-0.0029288079999999998,-0.0008540085800000001,0.0034799332000000002,0.0009521266,-0.003972366,3.014,0,0
-0.0020311802,-0.0005141891800000001,0.0019317692000000003,0.0008433244,-0.0024506568000000005,3.015,0,0
-0.0012687406,-0.0004302075800000002,0.0003180551999999999,0.0005848174,-0.00150946,3.016,0,0
-0.0006889366,-0.00012628460000000015,-0.00039221199999999996,0.000518635,-0.0009376198,3.017,0,0
0.0005426094,0.0011747374,-0.0016863720000000002,8.107120000000001e-05,0.0006860242,3.018,0,0
0.0014866134,0.0028215914,-0.003256384,-0.0008377008000000001,0.0025049162000000003,3.019,0,0
0.0016993875999999999,0.003124144,-0.003675186,-0.0013975426,0.003311659,3.02,0,0
0.002148002,0.0030664954,-0.0037886359999999997,-0.0014932270000000002,0.0040513162,3.021,0,0
0.0025824940000000003,0.0026801732,-0.003923882,-0.0014645062,0.00520118,3.022,0,0
0.0022444060000000004,0.0007345072,-0.0028717112,-0.001094206,0.0044324709999999995,3.023,0,0
0.001384422,-0.0016498608000000002,-0.0011525092,-0.0003259614000000001,0.002074859,3.024,0,0
0.000820372,-0.0029617648000000002,-0.0004047513999999998,0.00037285460000000003,0.0006827009999999999,3.025,0,0
0.00010541399999999991,-0.0035303222,0.0008559346,0.000767296,-0.0009876710000000003,3.026,0,0
-0.00134289,-0.003192398000000001,0.0030401606000000003,0.0009489807999999999,-0.0035045650000000003,3.027,0,0
-0.0021838400000000003,-0.0012712400000000007,0.0039182058,0.0010671586000000001,-0.004669806,3.028,0,0
-0.002264744,0.0005855179999999999,0.0035813978000000008,0.0013927459999999998,-0.0048032660000000005,3.029,0,0
-0.0025300660000000005,0.001928142,0.0035989844,0.001877504,-0.005549708,3.03,0,0
-0.0022977276,0.002635414,0.0032741704,0.002162418,-0.005375742000000001,3.031,0,0
-0.0015089042600000004,0.001982714,0.0015747844000000002,0.0023348460000000002,-0.003490134,3.032,0,0
-0.000998004,-0.00020318199999999989,0.00019001239999999996,0.00214128894,-0.0018329379999999999,3.033,0,0
-0.0004328820000000001,-0.002234156,-0.00046090160000000004,0.00139490294,0.00013681399999999997,3.034,0,0
0.000635062,-0.003048042,-0.001913806,0.0004548729400000001,0.0027397980000000003,3.035,0,0
0.0015516556,-0.0032047698,-0.0034543740000000005,-0.0006696850599999999,0.0047068380000000005,3.036,0,0
0.0021746822600000005,-0.0020363198000000002,-0.0036313200000000004,-0.00168646906,0.005507260000000001,3.037,0,0
0.002639666,-0.00029298979999999985,-0.0038363040000000004,-0.0023923340000000003,0.005868344000000001,3.038,0,0
0.0023968378,0.0013054522,-0.003961628,-0.002867174,0.005870188,3.039,0,0
0.0016528336000000002,0.0029614122,-0.0022491460000000005,-0.002917254,0.0043369182000000004,3.04,0,0
0.0010667542000000001,0.004343698,-0.000383016,-0.002503685600000001,0.0023039102000000002,3.041,0,0
0.00028451339999999994,0.004582468000000001,0.0004477340000000001,-0.0019387313000000003,0.0007446022000000002,3.042,0,0
-0.0010682186,0.0029529960000000003,0.0021238060000000002,-0.0012537733000000002,-0.0012935778,3.043,0,0
-0.0017889604000000002,0.00030146000000000036,0.003972266,-0.00011737130000000011,-0.0036822298000000002,3.044,0,0
-0.0016835072000000002,-0.0012928479999999999,0.004122242,0.0009999367,-0.004475634,3.045,0,0
-0.0017976352,-0.000911834,0.0038112140000000003,0.0019315763,-0.0045177540000000006,3.046,0,0
-0.001569709,3.824200000000018e-05,0.003915708,0.002688634,-0.005116594,3.047,0,0
-0.000950083,0.0007617520000000001,0.0027749824,0.00315508,-0.004296864,3.048,0,0
-0.000845537,0.001206912,0.0008645904,0.003040828,-0.0025723380000000004,3.049,0,0
-0.0009231376000000001,0.0006728539999999997,0.00038029860000000004,0.0022281362200000003,-0.0016590758000000001,3.05,0,0
-0.0005739702000000001,-0.0011624105800000003,-0.00036195339999999996,0.00137487862,-0.00030669379999999976,3.051,0,0
-0.0001893196,-0.00368805458,-0.0022142614,0.0001009806200000001,0.0020281022000000004,3.052,0,0
0.00048246239999999994,-0.00352960658,-0.0031274578000000004,-0.00101420538,0.0035243262000000004,3.053,0,0
0.0020260884,0.00026903742,-0.0033636018,-0.00151632138,0.004195442200000001,3.054,0,0
0.0031843140000000006,0.00189316342,-0.004253682000000001,-0.0020829636,0.005070518,3.055,0,0
0.0029001378,-0.000313666,-0.004157934,-0.002571036,0.00479831,3.056,0,0
0.0018748278000000002,-0.0018524000000000001,-0.002151754,-0.002696646,0.0030794280000000004,3.057,0,0
0.0010124598000000001,-0.0026226440000000004,-0.0006551499999999999,-0.002420226,0.0015098440000000002,3.058,0,0
4.003980000000022e-05,-0.0045040494000000006,0.00027285399999999995,-0.0019522484000000003,8.137200000000029e-05,3.059,0,0
-0.0014990282,-0.0047935514,0.0018706620000000001,-0.0012290414000000003,-0.00204528,3.06,0,0
-0.0026127700000000004,-0.0016311373999999997,0.002870712,-0.00025557939999999984,-0.003558008,3.061,0,0
-0.002540974,0.0014074366000000002,0.0022999222,0.0008300786,-0.00350487,3.062,0,0
-0.0026237160000000003,0.0019173406000000002,0.0018694606,0.0014247966,-0.003686018,3.063,0,0
-0.0028569800000000003,0.0015522860000000002,0.0024564106000000002,0.0014637630000000003,-0.004123862000000001,3.064,0,0
-0.0021527242000000005,0.001046524,0.0022527666,0.0016248740000000001,-0.0030019418,3.065,0,0
-0.0011053864000000002,-5.432399999999991e-05,0.0013830306000000001,0.001545792,-0.0014302698000000003,3.066,0,0
0.0001899915999999999,-0.00045318600000000006,0.0011124914,0.001358784,-0.0010470454000000003,3.067,0,0
0.0017592236,0.000548962,0.000187965,0.0013709980000000002,0.00019724860000000012,3.068,0,0
0.0031478156,0.0006638474,-0.0017688930000000001,0.0009103380000000001,0.0024560086,3.069,0,0
0.0039395078,0.0007940896,-0.003177465,8.469200000000004e-05,0.0033741964000000004,3.07,0,0
0.004660336000000001,0.0026736176000000003,-0.003921099,-0.000717816,0.003968266400000001,3.071,0,0
0.005305796000000001,0.0039280776000000005,-0.004499448,-0.001580526,0.00512835,3.072,0,0
0.004648002000000001,0.0051625056,-0.0035675736,-0.0021606660000000003,0.004535465600000001,3.073,0,0
0.002596726,0.0062071102,-0.0013540475999999997,-0.0019514267999999999,0.0024048256,3.074,0,0
0.0004041639999999998,0.003194468,1.0708400000000143e-05,-0.0015529654,0.0011581796000000003,3.075,0,0
-0.0015583940000000003,-0.001433186,0.0012105264,-0.0015402714,-0.0007466824000000001,3.076,0,0
-0.0038808380000000006,-0.0034243856,0.0026709624,-0.0010725788,-0.0034205924000000006,3.077,0,0
-0.005143686,-0.005178613200000001,0.003467642000000001,-0.0002095488000000001,-0.004469054,3.078,0,0
-0.005079210000000001,-0.006236272,0.00371161,0.00023389399999999995,-0.004516854000000001,3.079,0,0
-0.0045963620000000005,-0.0032445224000000003,0.004042032,0.0007582326,-0.004888686000000001,3.08,0,0
-0.003684496,-0.0005694763999999999,0.004126,0.0018067126,-0.004521884,3.081,0,0
-0.0024569600000000002,-0.0007206728,0.0030318940000000003,0.0022416840000000003,-0.0031654882,3.082,0,0
-0.0009785740000000003,-0.0007273195999999999,0.0015072520000000002,0.0016011602000000002,-0.002301698,3.083,0,0
0.0003638659999999999,-0.0008397468,-0.0003376840000000001,0.0011573360000000001,-0.0009324219999999999,3.084,0,0
0.0017588600000000001,-0.0012827884000000001,-0.002555542,0.0007444466,0.001606542,3.085,0,0
0.0029340119999999997,-0.0008173103999999998,-0.0042353140000000004,-0.0001420034,0.0037755980000000007,3.086,0,0
0.0032733740000000003,0.00037070960000000003,-0.004705916,-0.0006172812,0.0050672822,3.087,0,0
0.003340776,0.000848278,-0.004647116000000001,-0.0007239754,0.006299036,3.088,0,0
0.0030857374,0.0008672980000000001,-0.004621654000000001,-0.0012074732,0.006670406,3.089,0,0
0.0018219453999999999,0.001704836,-0.0030577006,-0.0013995672,0.004965719,3.09,0,0
0.00016991740000000003,0.00208479,-0.0008541525999999998,-0.001123821,0.002864331,3.091,0,0
-0.0010804706,0.0008660219999999999,0.0005536274,-0.0011629252,0.001415935,3.092,0,0
-0.0021524286,7.892599999999989e-05,0.0021425474,-0.0007927781999999999,-0.0007399889999999998,3.093,0,0
-0.00270204,0.000710586,0.0034542634000000005,-0.00012573839999999997,-0.003350623,3.094,0,0
-0.0021594492,0.00038960499999999995,0.0035417359999999998,0.0001993008,-0.004498176,3.095,0,0
-0.0016724892,-0.0008799810000000002,0.003166024,0.0007025706,-0.004904428,3.096,0,0
-0.0017277372,-0.0007840630000000002,0.003126956,0.0014304786,-0.005796885999999999,3.097,0,0
-0.0013987508,0.00039853699999999997,0.0023222560000000004,0.0017384715999999999,-0.0051204300000000005,3.098,0,0
-0.0006720567999999999,0.0010462450000000001,0.0010628480000000001,0.0017103004,-0.00296829,3.099,0,0
-0.0002696136,0.0009612712000000002,0.000540982,0.0017251282000000003,-0.001533048,3.1,0,0
0.0006776884,0.0010504432,-0.0003373279999999999,0.0015166962000000002,7.176799999999983e-05,3.101,0,0
0.0026056804,0.0012795544000000002,-0.0016572879999999998,0.0012014082000000002,0.0023573279999999997,3.102,0,0
0.003346126,0.0008234924,-0.002572454,0.0006519608,0.004124292,3.103,0,0
0.0031106218,-0.00013254160000000006,-0.002840018,1.678620000000004e-05,0.00496027,3.104,0,0
0.0033243178,-0.0001894194,-0.0034496120000000003,-0.0002830938,0.0056939140000000004,3.105,0,0
0.0027700948,0.0016709026,-0.003850122,-0.0008210578000000001,0.005711272,3.106,0,0
0.0009865628000000001,0.0048010854,-0.002751418,-0.0014641498,0.003916236,3.107,0,0
0.00012395079999999995,0.0073229014,-0.0014839599999999999,-0.0010599944,0.00179264,3.108,0,0
-2.596439999999999e-05,0.007007863400000001,-0.00010289000000000001,-0.00014008039999999992,3.5414000000000214e-05,3.109,0,0
-0.0013169184,0.00399735,0.0021429580000000004,0.00014178880000000006,-0.002314612,3.11,0,0
-0.0022618414000000002,0.00016728399999999975,0.004041772000000001,0.0006853528,-0.004645284,3.111,0,0
-0.0019620066,-0.00404882,0.004169708,0.0013341828,-0.0052746780000000005,3.112,0,0
-0.0021320405999999997,-0.008287146,0.003972626,0.0012346328,-0.005616122,3.113,0,0
-0.0029369472,-0.009937842000000002,0.0035651000000000007,0.0011367008,-0.006136010000000001,3.114,0,0
-0.0026262932,-0.007982956,0.001760516,0.0009751580000000001,-0.004809044,3.115,0,0
-0.0017441158,-0.0053144234,6.936400000000004e-05,0.000490672,-0.0027418100000000003,3.116,0,0
-0.0016507142,-0.0033336494000000003,-0.00081305,7.076000000000001e-05,-0.0011162080000000003,3.117,0,0
-0.0008399721999999999,-0.0010288414,-0.0020438039999999998,-0.000552314,0.0010491759999999998,3.118,0,0
0.0010534638,0.0012193766,-0.003356062,-0.001377602,0.0036973820000000004,3.119,0,0
0.0019067418,0.0014720685999999998,-0.0034880980000000002,-0.001668704,0.005288688,3.12,0,0
0.0021760264,0.0005378400000000003,-0.003454044,-0.0017575440000000002,0.006180954000000001,3.121,0,0
0.0030574700000000005,-7.615599999999994e-05,-0.003580758,-0.001894744,0.007020392,3.122,0,0
0.0027694088000000004,-0.000632086,-0.0025895478,-0.0018523480000000002,0.0059778704,3.123,0,0
0.0014351688000000002,-0.00037894999999999986,-0.0009536538,-0.001675138,0.0034031084,3.124,0,0
0.0011142128000000001,0.001399068,-0.0001485638,-0.0012601432,0.0013911964000000003,3.125,0,0
0.000786157,0.0022513050000000003,0.0013163942,-0.0006619932000000001,-0.0007953076000000004,3.126,0,0
-0.000525987,0.00043157099999999995,0.0033651602000000004,0.00012018479999999996,-0.0036045976000000004,3.127,0,0
-0.0013588678,-0.0010424710000000003,0.0038375760000000005,0.0007686928000000001,-0.004870712,3.128,0,0
-0.0017752777999999999,-0.0015287758000000003,0.0037558560000000006,0.0012286826,-0.004554020000000001,3.129,0,0
-0.0025123758,-0.0015994638000000005,0.003972028000000001,0.0013987138000000003,-0.0048190540000000006,3.13,0,0
-0.0027631739999999998,-0.00021943280000000058,0.0034916280000000005,0.0012562682000000001,-0.004525026000000001,3.131,0,0
-0.0022015553999999997,0.0023384732000000003,0.0018441758000000003,0.0008057162,-0.0028064684,3.132,0,0
-0.0015173814,0.0043779712,0.0007204418000000001,0.00011027619999999999,-0.0013981564000000001,3.133,0,0
-0.0007643952,0.0049186939999999995,-0.0001059902,-0.0002605176,-0.0002442084000000001,3.134,0,0
0.0004813508,0.004690462000000001,-0.0016213042000000001,-0.0006115522,0.0016883256,3.135,0,0
0.0015781028000000001,0.0034684580000000002,-0.0030193982,-0.0008868564,0.0035173116000000006,3.136,0,0
0.0019376262,0.0011833500000000001,-0.003585104,-0.0008909364000000001,0.004106800000000001,3.137,0,0
0.0022964382,-0.0009156719999999998,-0.003821812,-0.0008580224000000001,0.004655234000000001,3.138,0,0
0.002612484,-0.0017506919999999999,-0.004139474000000001,-0.0008141384,0.004813306000000001,3.139,0,0
0.0016821020000000002,-0.0024337654,-0.0028573540000000003,-0.0006309798,0.0032462380000000002,3.14,0,0
0.00025607599999999994,-0.0030108874000000004,-0.0010752200000000002,-0.00022689599999999992,0.00128672,3.141,0,0
-0.00016060000000000008,-0.0025739534000000005,-0.00010214200000000016,0.00011703200000000004,-6.467000000000018e-05,3.142,0,0
-0.0006588842000000001,-0.0016110744,0.0015325119999999998,0.0008086440000000001,-0.002276546,3.143,0,0
-0.0019454942000000002,-0.0009453883999999999,0.003097938,0.0012087786000000002,-0.004556524,3.144,0,0
-0.0020771942,-0.0010762192,0.003042893,0.0009968684000000003,-0.004866686,3.145,0,0
-0.0013968178000000001,-0.00046097320000000006,0.002633035,0.0008438772000000001,-0.0047920440000000005,3.146,0,0
-0.0013058102000000002,0.0014181108,0.0030639050000000004,0.0007195492000000001,-0.00512872,3.147,0,0
-0.0008838160000000002,0.0022553558,0.002586787,0.0008499072,-0.003950118,3.148,0,0
-4.8384000000000017e-05,0.0013911438,0.0015656247999999999,0.0009789386000000001,-0.001633578,3.149,0,0
0.0004304522,0.0009840819999999998,0.0011058758,0.0009072522,-0.0005283459999999999,3.15,0,0
0.0010824338,0.001185198,-9.24382000000001e-05,0.0006384522,0.0008906380000000001,3.151,0,0
0.0019306582,-2.5702000000000006e-05,-0.0016039282000000002,0.00030061339999999995,0.003226468,3.152,0,0
0.0020981362,-0.001779508,-0.0025293602,-0.0003004212,0.004242874000000001,3.153,0,0
0.0022575921999999997,-0.0015098732,-0.003236936,-0.0010007152000000002,0.004597456,3.154,0,0
0.002564046,-0.0007517471999999999,-0.004003974,-0.0012980326,0.0053671479999999995,3.155,0,0
0.002077848,-0.0014374052,-0.0037375919999999997,-0.0014974114,0.005300616,3.156,0,0
0.000715002,-0.0020198912000000003,-0.002335164,-0.0015909526,0.0037323820000000002,3.157,0,0
-0.000289848,-0.0016383072000000002,-0.0011212399999999997,-0.001560706,0.0020938600000000003,3.158,0,0
-0.000703362,-0.0009585320000000002,0.00028693800000000004,-0.001058873,0.00020091599999999977,3.159,0,0
-0.001770996,4.766799999999984e-05,0.0025756340000000003,-0.00018492100000000005,-0.002524264,3.16,0,0
-0.00288338,0.00121746,0.004427314,0.00037084899999999997,-0.004664252000000001,3.161,0,0
-0.0030713760000000002,0.0022027718000000003,0.004389631999999999,0.0007083366,-0.0049802,3.162,0,0
-0.002844056,0.0029154262000000005,0.0037866772,0.0007663980000000001,-0.0048525999999999994,3.163,0,0
-0.0022467000000000003,0.003406770200000001,0.0032207697,0.0006221330000000001,-0.005170900000000001,3.164,0,0
-0.0006121799999999999,0.0029091062,0.0013960797,0.000650023,-0.003674347000000001,3.165,0,0
0.001068678,8.737620000000019e-05,-0.0003863823,0.000748225,-0.0017702870000000004,3.166,0,0
0.0016553292,-0.0021225456,-0.00088772024,0.0005505492000000001,-0.0011662688,3.167,0,0
0.0017651132000000003,-0.0024247400000000003,-0.0016878874399999999,0.00026755580000000005,0.0008468692,3.168,0,0
0.0017603491999999999,-0.003039394,-0.0029145499400000004,-2.2456200000000085e-05,0.0037857792000000005,3.169,0,0
0.0009590616000000001,-0.002463036,-0.00340781594,-0.0006162986,0.0048671062000000005,3.17,0,0
0.0002207536,0.0008542080000000002,-0.00393169194,-0.0010421878,0.0051804342,3.171,0,0
0.0006869224,0.0031655100000000003,-0.004478813999999999,-0.0012720576,0.005937494000000001,3.172,0,0
0.0008469816000000001,0.002237536000000001,-0.0033056740000000006,-0.0013004376,0.0047530468,3.173,0,0
0.0001999956,0.0008199740000000002,-0.0011610800000000003,-0.0010486248,0.0020686908,3.174,0,0
-0.00018938080000000006,-4.849999999999993e-05,0.00040543399999999976,-0.0008413416,0.00044178679999999995,3.175,0,0
-0.0006664348000000001,0.00027353000000000034,0.001828956,-0.0006643106,-0.0012323392000000001,3.176,0,0
-0.0017406848000000004,0.0022598880000000007,0.0030451820000000004,-0.000288538,-0.0035284212000000004,3.177,0,0
-0.0022016720000000004,0.0033337872000000005,0.0030254,0.000396564,-0.004744652,3.178,0,0
-0.0021513240000000005,0.002029095200000001,0.00270408,0.0008276832000000001,-0.004603034000000001,3.179,0,0
-0.0025188680000000005,-0.0004824407999999992,0.003285278,0.0009575458000000001,-0.0047229080000000005,3.18,0,0
-0.002424176,-0.0037983787999999997,0.003470254,0.001314188,-0.004516292000000001,3.181,0,0
-0.001507868,-0.0067845968,0.002575662,0.0013721156000000001,-0.0028784816,3.182,0,0
-0.0005856260000000001,-0.006368324000000001,0.001514712,0.0010871829000000002,-0.0013053876000000003,3.183,0,0
0.00041130999999999996,-0.003136892,0.00039984000000000005,0.0010540689000000001,8.501839999999999e-05,3.184,0,0
0.0023874480000000003,5.0916000000000025e-05,-0.001489546,0.0008281215,0.0021881024,3.185,0,0
0.0039041400000000004,0.003095988,-0.003060498,3.736350000000006e-05,0.0041022564000000004,3.186,0,0
0.003931008000000001,0.005528852000000001,-0.003275472,-0.0004140787,0.00459661,3.187,0,0
0.00385869,0.006305496000000001,-0.003353552,-0.0005549302,0.0046663880000000005,3.188,0,0
0.003799404,0.004659354,-0.00367306,-0.0011760762,0.0046954300000000004,3.189,0,0
0.0025790402,0.0017220940000000002,-0.0028083270000000002,-0.0015073902,0.0032224627,3.19,0,0
0.0013125122000000001,0.00023768477999999997,-0.001361989,-0.0012908372,0.0013573767000000002,3.191,0,0
0.0009774276,-0.0008812552200000003,-0.000651175,-0.0008716934000000001,0.0006423329,3.192,0,0
-0.00032254439999999983,-0.00261987522,0.000890901,-0.00047764120000000007,-0.0007063551000000001,3.193,0,0
-0.0021198544,-0.0030299952199999997,0.002834977,0.00020719679999999988,-0.0028410551,3.194,0,0
-0.0029942566,-0.00216780522,0.0033462680000000003,0.0011364188,-0.0033928918,3.195,0,0
-0.003953504599999999,-0.002771728,0.003317334,0.0019570898,-0.0032621858000000006,3.196,0,0
-0.004805566,-0.004567016,0.00349334,0.002653586,-0.003943702,3.197,0,0
-0.0040312628,-0.00477375,0.0028370879999999998,0.0028471119999999997,-0.003449802,3.198,0,0
-0.0025284068000000007,-0.003429454,0.001374098,0.0028405679999999995,-0.0019187324000000004,3.199,0,0
-0.0013539708000000004,-0.00205627,0.000304784,0.0024949140000000004,-0.0016805504000000002,3.2,0,0
0.0004836472,-0.00104575,-0.0007276819999999999,0.0017241946,-0.0009533543999999999,3.201,0,0
0.0024431652,0.0002401772,-0.0022110639999999996,0.0005289166,0.0011863576,3.202,0,0
0.0030469040000000005,0.0011449780000000003,-0.0033653479999999998,-0.0007469134000000001,0.0026335396,3.203,0,0
0.0027746665999999996,0.001566942,-0.0036288080000000003,-0.0016130294000000001,0.003308708,3.204,0,0
0.0026277926,0.0018031420000000002,-0.00357949,-0.0020404134,0.004337850000000001,3.205,0,0
0.0021748206,0.001134586,-0.003229994,-0.002207848,0.004389398,3.206,0,0
0.0010875125999999999,0.0011175643999999998,-0.001946306,-0.002040282,0.0024758700000000002,3.207,0,0
0.0006569104,0.0026180516,-0.0005515099999999998,-0.0011652146,0.0008060360000000001,3.208,0,0
0.0009268858,0.0045347016,6.04780000000002e-05,-0.0005758323999999999,-5.607239999999984e-05,3.209,0,0
0.0006074702000000001,0.0064262196,0.0007170260000000002,-0.000232314,-0.0013455124,3.21,0,0
8.683319999999999e-05,0.0081036256,0.0016161820000000003,0.000472834,-0.0027031184,3.211,0,0
-4.685019999999999e-05,0.007767812,0.0020912500000000002,0.001079958,-0.0030201764000000004,3.212,0,0
-0.001151958,0.0037683879999999997,0.0027539140000000005,0.0015372146,-0.0033477264000000002,3.213,1,1
-0.0032246460000000003,-0.002007932000000001,0.0036738820000000003,0.0018088423999999999,-0.004317288000000001,3.214,0,0
-0.0038988884000000002,-0.005899906000000001,0.0036540026000000006,0.0017276088,-0.0039416398000000005,3.215,0,0
-0.0034929574000000002,-0.007294835600000001,0.0029175264000000003,0.0013752571999999998,-0.0025315878,3.216,0,0
-0.003069282,-0.007280199600000001,0.0021713084000000004,0.0009216103999999999,-0.0015556657999999998,3.217,0,0
-0.0014784120000000001,-0.0050487556000000005,0.00030473239999999997,5.566039999999999e-05,0.0005433202000000002,3.218,0,0
0.0011948379999999997,-0.0022927256,-0.0019540836,-0.0008692936,0.0034329582,3.219,0,0
0.002605476,-0.0012328216,-0.0030347462,-0.0015196024000000002,0.004768858000000001,3.22,0,0
0.0028484680000000003,-0.0011148094000000002,-0.003659986,-0.0022527588,0.005359966000000001,3.221,0,0
0.00333949,-0.0009794182000000002,-0.00424133,-0.0025002180000000002,0.0060315440000000015,3.222,0,0
0.00286477,-0.0007934052,-0.0036698404,-0.00237018,0.00525299,3.223,0,0
0.0015974500000000003,-0.0006896692,-0.0017814984,-0.002162746,0.0030254780000000003,3.224,0,0
0.0005723160000000001,-0.0007524812,-0.00033507839999999997,-0.0017318822,0.00132929,3.225,0,0
-0.000842808,-0.0004900878,0.0006793296000000001,-0.0013379422,-0.00013741000000000014,3.226,0,0
-0.002310304,0.001278943,0.0021152396,-0.0010175251999999999,-0.002402852,3.227,0,0
-0.0025828519999999996,0.002744438,0.00307153,-0.0004019392,-0.004389182,3.228,0,0
-0.0023109854000000003,0.00284361,0.0027670779999999996,0.00033338880000000006,-0.004802462,3.229,0,0
-0.0020716384,0.003421658,0.0024476439999999997,0.000857511,-0.005151508,3.23,0,0
-0.00117774606,0.004088666,0.002409936,0.0015598390000000001,-0.00576243,3.231,0,0
-0.00017773406000000006,0.002969938,0.0013605600000000002,0.0019999700000000002,-0.0043430683999999995,3.232,0,0
0.00028192013999999994,0.0017344768,0.00014471599999999997,0.0017659034,-0.0023554424,3.233,0,0
0.00062081354,0.0024834828,-0.00039522200000000003,0.0012749222,-0.0010538604000000003,3.234,0,0
0.00107906254,0.0019327728,-0.001525674,0.0008232184,0.0011509836,3.235,0,0
0.0016205721999999999,-0.0006749692000000002,-0.002842404,0.00013402839999999999,0.0038340676000000002,3.236,0,0
0.0021278682,-0.0017389112000000002,-0.002969284,-0.0006620015999999999,0.005219752000000001,3.237,0,0
0.0025565999999999996,-0.0006026140000000002,-0.0030052140000000004,-0.001077117,0.0057738020000000015,3.238,0,0
0.002639754,0.00046791,-0.0031530920000000006,-0.0012723878,0.006164196000000001,3.239,0,0
0.002037816,-0.00015228200000000033,-0.002052176,-0.0012873350000000001,0.004790763000000001,3.24,0,0
0.0009343039999999997,-0.0016638220000000001,-0.00032236000000000005,-0.001271371,0.0028140210000000008,3.241,0,0
-0.00044684399999999995,-0.0031610400000000004,0.000548194,-0.001135493,0.0015201498,3.242,0,0
-0.002073066,-0.004720524000000001,0.001944132,-0.001038513,-0.0003699701999999999,3.243,0,0
-0.0034560880000000004,-0.005308596000000001,0.00337791,-0.0009526274000000002,-0.0028052802000000003,3.244,0,0
-0.003748102,-0.0033708600000000007,0.0033723714,-0.0007153996000000001,-0.0035499472000000004,3.245,0,0
-0.003688416,-0.0007842420000000001,0.0032661974,-0.0005527406,-0.0040586472,3.246,0,0
-0.0037620460000000002,0.00046182000000000005,0.0036413174000000004,-0.00033112599999999995,-0.005329258,3.247,0,0
-0.0029265252,0.0007060787999999999,0.0031604094000000004,0.00039178400000000006,-0.004658204,3.248,0,0
-0.0017045432000000003,-0.00016330840000000006,0.002008085,0.0012331564000000001,-0.0033651840000000002,3.249,0,0
-0.0010782194000000002,-0.0005068804,0.0020695896000000004,0.0011472454000000002,-0.001540942,3.25,0,0
-0.0005733444,0.0009899256000000002,0.0010570196,0.0013973362000000004,-0.0006565440000000002,3.251,0,0
0.00030243760000000006,0.0021020116,-0.00046607840000000006,0.0010496716000000003,0.00250752,3.252,0,0
0.0010520108,0.0016178268,-0.0018622564000000002,0.0004471104000000001,0.0033475660000000006,3.253,0,0
0.0008362616,0.001291796,-0.0013272919999999999,0.0022791484,-0.005589797999999999,3.254,0,0
0.0013147777999999999,0.0007099162000000002,0.0030536839999999997,0.0046906186,-0.013596376,3.255,0,0
0.0017163028000000001,0.0002998362,0.006045448,0.0062378728000000005,-0.016305936,3.256,0,0
0.0010656668,0.0032883882000000007,0.0055635979999999995,0.007780006800000001,-0.018096520999999997,3.257,0,0
0.0027274967999999997,0.0089266702,0.0033507599999999986,0.0078548802,-0.013905748999999998,3.258,0,0
0.0061583259999999996,0.0124201122,-0.002055124000000001,0.004278110200000001,0.0018038309999999988,3.259,0,0
0.00924601,0.009353884000000002,-0.012398244000000001,-0.00016558980000000033,0.017917090999999996,3.26,0,0
0.012817614000000001,0.0014636200000000014,-0.020818404000000002,-0.0042245538,0.030263451,3.261,0,0
0.0156618,-0.00561118,-0.02385412,-0.008382919800000001,0.03811894,3.262,0,0
0.014485796,-0.010228924,-0.0227324,-0.011070970000000001,0.03790598,3.263,0,0
0.010622922000000002,-0.012831132,-0.017837289,-0.011796300000000003,0.03324452,3.264,0,0
0.004902861999999999,-0.009856552,-0.010132108999999999,-0.011133308000000001,0.022834335999999997,3.265,0,0
-0.0028202580000000004,-0.002273918,0.00034231099999999966,-0.009451698000000001,0.008076256,3.266,0,0
-0.009863538000000002,0.0016527105999999997,0.010292171000000001,-0.005915366,-0.007188544,3.267,0,0
-0.015757274,0.0004297845999999998,0.018417291000000002,-0.0016673340000000004,-0.020864844,3.268,0,0
-0.020437140000000003,-0.0021355094,0.024993160000000004,0.002383386,-0.032455664,3.269,0,0
-0.023021060000000003,-0.0039587954,0.02870466,0.006301974,-0.03981812,3.27,0,0
-0.022441500000000003,-0.004977025400000001,0.0280196,0.009046584,-0.0408055,3.271,0,0
-0.019452686000000004,-0.005388628,0.023652908000000004,0.010359492000000001,-0.0368566,3.272,0,0
-0.014736609000000003,-0.004241298,0.017129398,0.010627788000000003,-0.028359358,3.273,0,0
-0.007342709,-0.0012816919999999999,0.008015937999999998,0.009385534000000001,-0.015546278,3.274,0,0
0.0011127909999999988,0.0018528020000000002,-0.002458162000000001,0.0068425132,-0.0008912779999999997,3.275,0,0
0.008494611,0.00323967,-0.011755022,0.0040360132,0.012548242000000001,3.276,0,0
0.014781697,0.0037476820000000004,-0.01913089,0.0005600492000000002,0.024120862000000003,3.277,0,0
0.0195985,0.004442182,-0.024734680000000002,-0.0034044988000000004,0.0332307,3.278,0,0
0.02110706,0.004990208,-0.026576460000000003,-0.006852444800000001,0.03668338,3.279,0,0
0.0196114,0.005166064,-0.023762314,-0.009153984,0.034194,3.28,0,0
0.016270634000000003,0.005365158000000001,-0.018398376600000002,-0.009885578,0.028434302,3.281,0,0
0.010550118000000002,0.006015512000000001,-0.010713854600000001,-0.009215476000000002,0.01884776,3.282,0,0
0.003325338,0.0064953219999999996,-0.0012143146000000004,-0.007591482000000001,0.005829479999999999,3.283,0,0
-0.003707922,0.005457040000000001,0.007955345400000001,-0.004777392,-0.006870920000000001,3.284,0,0
-0.010114962000000002,0.002604564,0.0152370394,-0.001318036,-0.01785986,3.285,0,0
-0.015453596,-0.00018817999999999981,0.020108382,0.001900346,-0.027252082000000004,3.286,0,0
-0.01789698,-0.002652626,0.022552199999999998,0.005238828,-0.032311660000000006,3.287,0,0
-0.0174592,-0.0056384980000000005,0.02190702,0.007662265999999999,-0.03177128,3.288,0,0
-0.015460816000000002,-0.007531118,0.018259872,0.00850998,-0.027869360000000003,3.289,0,0
-0.011292883600000001,-0.0074516040000000006,0.012275388,0.008671866,-0.020611159999999996,3.29,0,0
-0.004580183599999999,-0.006787822000000001,0.004457988,0.007691356,-0.0097164,3.291,0,0
0.0024852364,-0.00577943,-0.004064552,0.005025078,0.0017626,3.292,0,0
0.0082074564,-0.003912286,-0.011732912000000002,0.0021735120000000003,0.012260680000000001,3.293,0,0
0.0135970724,-0.0012001000000000004,-0.018107584000000003,-0.0005202179999999997,0.022083020000000002,3.294,0,0
0.01722318,0.002391458,-0.022262300000000002,-0.003870062,0.02906262,3.295,0,0
0.01725994,0.005877174000000001,-0.022483440000000004,-0.006702840000000001,0.030472040000000002,3.296,0,0
0.015189017999999999,0.007746556,-0.019624950000000002,-0.008165522000000001,0.02789232,3.297,0,0
0.011823117999999999,0.008429756,-0.014524852000000003,-0.008419762,0.02232193,3.298,0,0
0.006038974,0.007625562000000001,-0.006583132000000002,-0.007479810000000002,0.01264873,3.299,0,0
-0.0007918060000000004,0.004353288,0.002109188,-0.0053636378,0.0014950099999999997,3.3,0,0
-0.006289786,0.0014546780000000005,0.009151188000000001,-0.0025674758000000003,-0.00839229,3.301,0,0
-0.010889464,0.0005182560000000001,0.014854318000000002,0.0003409101999999999,-0.017220730000000004,3.302,0,0
-0.014287364,-0.0004827335999999998,0.01885306,0.0030314262000000003,-0.024054520000000003,3.303,0,0
-0.015204760000000001,-0.0025558976,0.01962158,0.0050223262,-0.02630294,3.304,0,0
-0.013657846000000001,-0.0042744236000000005,0.01757398,0.006310236,-0.0247728,3.305,0,0
-0.010905531999999999,-0.005566559600000001,0.014181580000000003,0.0071638,-0.021152746000000004,3.306,0,0
-0.007146934000000001,-0.0071303316,0.009022086000000002,0.007286502,-0.014495314,3.307,0,0
-0.0019254940000000011,-0.007593708000000001,0.0018265260000000002,0.006233692000000001,-0.005720233999999999,3.308,0,0
0.0036691659999999993,-0.005457168000000001,-0.005484494,0.004456136,0.002743646,3.309,0,0
0.008643192,-0.000275548,-0.011681094,0.002250688,0.011070526,3.31,0,0
0.012786998,0.004909298,-0.016791194000000002,-0.0008217720000000001,0.018968152000000002,3.311,0,0
0.015199500000000001,0.006828164,-0.019327220000000003,-0.004077492,0.023640580000000005,3.312,0,0
0.014888150000000001,0.0062259740000000004,-0.01793184,-0.006157674,0.024045460000000005,3.313,0,0
0.012316180000000001,0.0044333459999999995,-0.014438662,-0.007053310000000001,0.021693244,3.314,0,0
0.008008890000000001,0.00084282,-0.009604678,-0.007362392000000001,0.016353552200000003,3.315,0,0
0.0024440380000000004,-0.002713884,-0.002729797999999999,-0.006289968000000001,0.007668292200000001,3.316,0,0
-0.002980742,-0.0035543114000000002,0.003852002000000001,-0.003910006,-0.0012920078000000002,3.317,0,0
-0.007378432,-0.0033121994,0.008749322000000002,-0.001678958,-0.0092420878,3.318,0,0
-0.010624602,-0.0034332834000000002,0.013039744,0.0005770260000000001,-0.016312951800000003,3.319,0,0
-0.012251712000000001,-0.0033441054,0.01583864,0.0029614460000000004,-0.02093676,3.32,0,0
-0.012067444,-0.0033202554,0.015447126000000002,0.0046263580000000006,-0.02162328,3.321,0,0
-0.010905556,-0.0032564000000000004,0.013228554000000002,0.005490568,-0.019568542,3.322,0,0
-0.008939162,-0.0020056080000000003,0.010130098,0.0058765860000000005,-0.015687108,3.323,0,0
-0.00531445,0.00021188000000000023,0.004963648000000001,0.005725978,-0.008891230000000002,3.324,0,0
-0.0008358719999999997,0.001851472,-0.0012108320000000007,0.004807800000000001,-0.0009058499999999997,3.325,0,0
0.0032376320000000007,0.003082706,-0.006249238000000001,0.0031458880000000003,0.006489829999999999,3.326,0,0
0.007376624,0.004422202,-0.010283906000000002,0.0012186039999999999,0.013095152000000002,3.327,0,0
0.010724290000000001,0.004955536000000001,-0.01363749,-0.0008125340000000002,0.018502898,3.328,0,0
0.011986758,0.006389504000000001,-0.0145994,-0.00298129,0.02059014,3.329,0,0
0.011439176,0.00927848,-0.012765126,-0.0044824800000000005,0.019043958,3.33,0,0
0.009278218,0.01082114,-0.009682315,-0.005240544000000001,0.015845156000000003,3.331,0,0
0.005749132,0.009657296400000001,-0.005536699,-0.005332446000000001,0.010253554,3.332,0,0
0.0014711239999999999,0.0063450324000000015,-0.0003939589999999997,-0.0043016880200000005,0.002921674000000001,3.333,0,0
-0.002480828,0.0012791523999999997,0.003991341,-0.0027801360200000002,-0.003831926,3.334,0,0
-0.00582244,-0.0054868676000000005,0.007774487,-0.0009272360200000003,-0.009838504,3.335,0,0
-0.008575242,-0.011980347600000002,0.011451156,0.00121278598,-0.015308722,3.336,0,0
-0.009935236,-0.014989820000000001,0.013120720000000002,0.0028710179800000004,-0.01816518,3.337,0,0
-0.009665532000000001,-0.013997408000000001,0.012260306,0.003963952,-0.01758416,3.338,0,0
-0.008761166,-0.011814328,0.01063354,0.00456348,-0.015356512,3.339,0,0
-0.0069426312,-0.008902512,0.007920550240000001,0.00434336,-0.011524706,3.34,0,0
-0.0033401152000000003,-0.005266926,0.0028973322400000006,0.0033726778,-0.005351518,3.341,0,0
0.0003952227999999996,-0.0025136152,-0.0019522077600000003,0.0020842978,0.0012153020000000001,3.342,0,0
0.0037802868,-0.0003866672000000001,-0.00539781376,0.00045685380000000007,0.006426622,3.343,0,0
0.007185372800000001,0.0017396868000000001,-0.00858834776,-0.0015361962,0.011571854,3.344,0,0
0.009509254000000002,0.0036412648000000007,-0.011285178,-0.0033846702000000003,0.015800748,3.345,0,0
0.009860838,0.005052334800000001,-0.011623138,-0.004454388,0.01663444,3.346,0,0
0.008715070000000002,0.005595722000000001,-0.009964924,-0.005069814000000001,0.015122730000000001,3.347,0,0
0.006516501000000001,0.0050731940000000005,-0.007660073,-0.005363682,0.012208640000000002,3.348,0,0
0.0032194450000000005,0.0038847700000000005,-0.0036149710000000002,-0.0045854419999999995,0.006697504000000001,3.349,0,0
0.00025788099999999995,0.0025028086,0.0010996690000000002,-0.0030444390000000003,0.0002038039999999997,3.35,0,0
-0.0022472029999999997,0.0014871396000000002,0.004748275000000001,-0.0014499910000000005,-0.005053036,3.351,0,0
-0.004982353,0.0009028028000000001,0.007637001000000001,0.00026991899999999976,-0.009711346,3.352,0,0
-0.007015824,0.0005958789999999999,0.009725770000000002,0.002076311,-0.013419916,3.353,0,0
-0.007613981999999999,0.000483099,0.009648320000000002,0.0032917650000000003,-0.014584979999999999,3.354,0,0
-0.007543446,0.0010309424,0.008220248000000001,0.0038098159999999997,-0.01342453,3.355,0,0
-0.0070254359999999995,0.0023916914,0.0064972408,0.003955216,-0.011624187999999999,3.356,0,0
-0.0049228587,0.0028059502000000003,0.0036118208000000002,0.0037276200000000005,-0.008483613800000001,3.357,0,0
-0.0014013266999999999,0.0009115260000000002,0.0002731128000000001,0.0028516220000000003,-0.0028502537999999995,3.358,0,0
0.0014619952999999999,-0.0014286439999999997,-0.0027522972,0.0016575280000000003,0.0023528862,3.359,0,0
0.0033879693000000003,-0.0025746899999999997,-0.0054633052,0.0007850888,0.006343256200000001,3.36,0,0
0.005784637300000001,-0.0029466799999999993,-0.008004546,-0.00019628120000000004,0.011134054200000002,3.361,0,0
0.007204250000000001,-0.0017662519999999996,-0.009440872,-0.0015375112000000002,0.014388360000000001,3.362,0,0
0.006776676000000001,0.0006014700000000002,-0.008978704000000002,-0.0026375772000000004,0.013779574000000001,3.363,0,0
0.005765980000000001,0.0022538799999999998,-0.007520066000000001,-0.0028050532,0.011911340000000003,3.364,0,0
0.004226631999999999,0.0016546299999999998,-0.005191242,-0.0028168342,0.009262081240000003,3.365,0,0
0.0014784239999999999,-0.0007244320000000003,-0.0015230979999999999,-0.0025801396,0.0037778452400000005,3.366,0,0
-0.0014034280000000002,-0.0021481688,0.002031892,-0.0012654615999999998,-0.0016791947599999997,3.367,0,0
-0.0032502540000000006,-0.0015111728000000004,0.004285082,6.450640000000001e-05,-0.00571846876,3.368,0,0
-0.00465754,0.0012580572000000002,0.00631267,0.0007659408,-0.00980001476,3.369,0,0
-0.005415548000000001,0.0059147772000000005,0.007811182,0.001346577,-0.012282796,3.37,0,0
-0.004909016,0.0104938532,0.007431828,0.0021036364,-0.011922440000000001,3.371,0,0
-0.0036417579999999997,0.011995522000000002,0.006344924,0.0023488804000000004,-0.010283974000000001,3.372,0,0
-0.0028894936,0.009087944,0.005799520000000001,0.0024802764,-0.008240476000000002,3.373,0,0
-0.0021377136,0.0029049640000000003,0.004007398600000001,0.0028345260000000004,-0.004310980000000001,3.374,0,0
-0.0008486257999999998,-0.0032284160000000004,0.0009480586000000001,0.002714006,0.0002757199999999997,3.375,0,0
0.0003200862000000001,-0.007548514000000001,-0.0014659954,0.0018219564000000001,0.00392716,3.376,0,0
0.0017953142000000002,-0.011269134,-0.0039355034,0.0005315684000000002,0.007371514000000001,3.377,0,0
0.0031325038000000003,-0.011742578000000002,-0.0067920134000000005,-0.0004883756,0.010341836,3.378,0,0
0.0040964438,-0.008388988000000002,-0.00806623,-0.0014619656000000002,0.011188188,3.379,0,0
0.004853142,-0.005421845999999999,-0.00728066,-0.0019609336,0.009640188000000001,3.38,0,0
0.004670924,-0.003374388,-0.006050808,-0.0015777,0.007467814200000001,3.381,0,0
0.0033548232,-0.0005150819999999999,-0.0041475554,-0.0009694981999999999,0.0042137421999999996,3.382,0,0
0.0018386091999999998,0.001470896,-0.0009514093999999998,-0.0004830354,-0.0002772358000000001,3.383,0,0
0.00044282719999999976,0.0013387459999999998,0.0019568186,0.00020589059999999998,-0.0036325618000000006,3.384,0,0
-0.0013329907999999999,0.0016545759999999998,0.0036502026,0.0007984045999999999,-0.005941271800000001,3.385,0,0
-0.0027642968,0.0028504760000000002,0.005412212600000001,0.0008555826,-0.008566618000000002,3.386,0,0
-0.003674958,0.003979776000000001,0.006768378,0.0009393254000000001,-0.009805340000000001,3.387,0,0
-0.004041056,0.0051250620000000005,0.005907934,0.0012274026,-0.008797944,3.388,0,0
-0.003863572,0.0055651692,0.004681976000000001,0.0010207934000000002,-0.007722084000000001,3.389,0,0
-0.0034399680000000007,0.0029226872,0.0036591624000000002,0.0005262682,-0.0060558774000000004,3.39,0,0
-0.0021707280000000002,-0.0019026528000000002,0.0008976264,0.0001260456,-0.0024272934,3.391,0,0
-0.00034925000000000017,-0.0055878968000000005,-0.0020353816,-0.000690651,0.0008981945999999997,3.392,0,0
0.001052144,-0.0082291568,-0.0032262376,-0.001301431,0.0035150986,3.393,0,0
0.0023303200000000003,-0.008542862,-0.0041312676,-0.0014548910000000003,0.0066497966000000006,3.394,0,0
0.0037710339999999995,-0.004911666,-0.005510018,-0.0017105458000000002,0.00902796,3.395,0,0
0.004249934,-0.000955292,-0.005218788000000001,-0.0019353132000000002,0.009355702,3.396,0,0
0.0037631160000000004,0.0007746205999999998,-0.0035891732000000003,-0.0018844432,0.008640504,3.397,0,0
0.0029973304000000004,0.0020214886,-0.0028120488200000003,-0.0021443572,0.00729637,3.398,0,0
0.0016011224,0.0023185876,-0.0017937348200000001,-0.002463704,0.00414344,3.399,0,0
-6.735560000000016e-05,0.0002953855999999999,0.0002446971799999999,-0.0021403446000000004,0.00048810400000000006,3.4,0,0
-0.0013995896000000003,-0.0016872444000000002,0.00177349518,-0.001931158,-0.001900306,3.401,0,0
-0.0026393936000000005,-0.0014730657999999998,0.00271202438,-0.001561038,-0.003828036,3.402,0,0
-0.0035339,0.0002371722000000002,0.004115342,-0.0005578699999999999,-0.00592307,3.403,0,0
-0.0036991340000000006,0.0012945472000000001,0.00500698,0.000372528,-0.0065457,3.404,0,0
-0.0036386920000000002,0.0014465364000000001,0.004716252000000001,0.0006236156,-0.005546788,3.405,0,0
-0.0036053580000000003,0.0025348904,0.004376984,0.0009234912000000001,-0.005204814,3.406,0,0
-0.0024357560000000003,0.0047411772,0.0031975,0.0014087692,-0.004374168,3.407,0,0
-0.00032101000000000026,0.0065255072,0.000716476,0.0010009609999999999,-0.0012741380000000002,3.408,0,0
0.0010649119999999999,0.0050019491999999995,-0.0013002320000000001,0.00033129860000000004,0.001309548,3.409,0,0
0.002211972,0.0026196359999999994,-0.0027583140000000004,0.00028952040000000006,0.003024188,3.41,0,0
0.003756364,0.0026103459999999995,-0.004565273999999999,0.00032301080000000004,0.005718838,3.411,0,0
0.004457318,0.0030415259999999997,-0.0056049540000000005,-4.9458e-05,0.007467298000000001,3.412,0,0
0.003958878,0.003685306,-0.004798328,-0.00021391580000000002,0.007113060000000002,3.413,0,0
0.0035170500000000003,0.0043530444000000005,-0.0042163162,-2.2273959999999988e-05,0.006766780000000001,3.414,0,0
0.0028579405999999996,0.004530864400000001,-0.0036351362000000003,-0.00034729976,0.005945290000000001,3.415,0,0
0.0012655226000000002,0.0043701264,-0.0009732242000000002,-0.00092181436,0.002937884,3.416,0,0
-0.0002878334,0.0024454904000000004,0.0013368637999999998,-0.00088711276,0.00023787400000000011,3.417,0,0
-0.0012920494000000001,-0.0029547556,0.0019964358,-0.00062639716,-0.001527246,3.418,0,0
-0.0025045514,-0.008494792000000001,0.0031890519999999995,-0.00029549659999999995,-0.004048634000000001,3.419,0,0
-0.0035272999999999997,-0.011300992000000001,0.004631534,0.0003447244,-0.006337674,3.42,0,0
-0.0034222820000000004,-0.012508286,0.0040612,0.0010797644,-0.006548524,3.421,0,0
-0.0031712819999999997,-0.012116230000000002,0.003265472,0.0018751656,-0.00616677,3.422,0,0
-0.0029896882,-0.009288718000000001,0.003450262,0.002417344,-0.006147062,3.423,0,0
-0.0018369674000000003,-0.0035237259999999996,0.0023203054,0.002580006,-0.004418429000000001,3.424,0,0
-0.0005968606,0.001640892,0.00042302340000000016,0.0028430580000000003,-0.0020815450000000006,3.425,0,0
-2.476599999999996e-06,0.003370544,-0.0006031386000000001,0.002762074,-0.0006985750000000001,3.426,0,0
0.0009558514000000001,0.003328544,-0.0013131586000000002,0.0020701060000000004,0.0007280849999999998,3.427,0,0
0.0020474316,0.0033658500000000005,-0.0028525546,0.0014350184,0.002557007,3.428,0,0
0.0026276428,0.003924260000000001,-0.003508772,0.0006263023999999999,0.0030345380000000003,3.429,0,0
0.0026897048000000005,0.0039468846000000005,-0.0027324245999999996,-0.0003463756,0.0023303434,3.43,0,0
0.0023585646000000007,0.0033090452,-0.0025391725999999995,-0.0008744236,0.0022496714,3.431,0,0
0.0014733246,0.0022271036000000004,-0.0021212572,-0.0011235436,0.0016486408000000003,3.432,0,0
7.908600000000035e-06,0.0009279646000000001,-0.0006506552,-0.0010428632000000003,-0.0003627392,3.433,0,0
-0.0009402134,0.00029559260000000005,0.0005106128,-0.0005147112,-0.0014244772,3.434,0,0
-0.0012528615999999998,0.00055185,0.0009900374,-0.0001304736,-0.001471749,3.435,0,0
-0.0015429574,0.0015346534000000001,0.0015438414000000001,0.00012142500000000001,-0.002797867,3.436,0,0
-0.0016678874,0.002760549,0.0017961420000000001,0.00033189780000000005,-0.0035163603999999998,3.437,0,0
-0.0014724974,0.0029860629999999997,0.0015601340000000001,0.00027192100000000006,-0.0026863534,3.438,0,0
-0.0015582534,0.0018217949999999998,0.001419946,6.84754e-05,-0.0026770974,3.439,0,0
-0.001748984,-8.26970000000005e-05,0.0011011480000000001,5.2812599999999996e-05,-0.002785465,3.44,0,0
-0.001293827,-0.002407975,0.00032006000000000005,0.0002535176,-0.001092121,3.441,0,0
-0.000579243,-0.004011515,-0.000275486,0.0004900414,0.00018082099999999995,3.442,0,0
0.00025522300000000006,-0.0039477272,-0.0006952142,0.0006666730000000001,0.00047679799999999996,3.443,0,0
0.001520559,-0.0018631111999999998,-0.0017549482000000002,0.00030080260000000007,0.00214496,3.444,0,0
0.002875417,0.0015974028,-0.0031102882,-0.0002997962,0.003820806,3.445,0,0
0.00356564,0.0050894488,-0.0030352182,-0.0008708597999999999,0.0037681660000000003,3.446,0,0
0.0033096014000000003,0.0070481508,-0.0021512102,-0.0015051883999999999,0.0033057962000000002,3.447,0,0
0.0027035404,0.006106843999999999,-0.0019777989999999997,-0.0018255472,0.0034387562000000003,3.448,0,0
0.0015404804,0.0039639060000000005,-0.0007384770000000002,-0.0016375016,0.0024750558,3.449,0,0
-0.0001868716,0.001921811,0.001563091,-0.0009675761999999999,0.0007216118000000001,3.45,0,0
-0.0010499982,-0.0007663409999999999,0.0022066181999999997,-0.0001067141999999999,-0.00021741219999999996,3.451,0,0
-0.0010609242000000003,-0.002658993,0.001813997,0.0004285532,-0.0009358564,3.452,0,0
-0.0010958880000000002,-0.003315941,0.002075038,0.00036779440000000004,-0.0017726824,3.453,0,0
-0.0010890060000000002,-0.005511061,0.0017896814,0.00022837079999999993,-0.0019065494000000001,3.454,0,0
-0.001130464,-0.007777208000000001,0.0010877314000000001,-0.0001417678,-0.0013049093999999998,3.455,0,0
-0.0020546314,-0.008061116,0.0013936622,-0.0006444032,-0.0012913354,3.456,0,0
-0.0027388148000000003,-0.007864594200000002,0.0017613734,-0.0007500386,-0.0010042914,3.457,0,0
-0.0023347000000000003,-0.0059393622,0.0011990574,-0.0005771112,-0.00010638940000000006,3.458,0,0
-0.001830358,-0.0020341702,0.0007197220000000001,-0.000340502,-0.00030470560000000005,3.459,0,0
-0.0006829119999999999,0.0008682758000000002,0.00046296760000000004,-0.00042144480000000004,-0.00053870024,3.46,0,0
0.0011553400000000001,0.0021621698,-0.0004280844,-0.0005672986,0.0007075417600000001,3.461,0,0
0.002080148,0.0023463746000000002,-0.0011321364,-0.0006870880000000001,0.0016577837600000001,3.462,0,0
0.0017014788,0.0016438126,-0.0005977344000000001,-0.0007028046,0.00124902396,3.463,0,0
0.0018401048,0.0012985686,-0.000328521,-0.0004749494,0.00142060036,3.464,0,0
0.0019394068000000001,0.0013424466000000002,-0.0007386246,-0.00038523560000000004,0.0017239030000000002,3.465,0,0
0.0006697288000000001,0.0011586706,-0.00016031059999999995,-0.0004569464,0.000589905,3.466,0,0
4.558479999999994e-05,0.001268788,0.00032752940000000004,-0.0003680966,-0.00026103500000000006,3.467,0,0
0.0005369499999999999,0.001498598,-8.234960000000005e-05,-0.00011450599999999998,-6.059620000000004e-05,3.468,0,0
0.0001922171999999999,0.0009021980000000001,-0.00013789800000000007,-2.0092399999999957e-05,-0.00011395100000000006,3.469,0,0
-0.00047501620000000005,0.00034797399999999997,0.00033514219999999993,0.00025623780000000004,-0.0004811602,3.47,0,0
-0.00011661020000000005,0.0006473240000000001,0.00010350739999999994,0.0009573877999999999,6.106579999999999e-05,3.471,0,0
5.4336999999999964e-05,0.0015415080000000002,-0.00026996660000000005,0.0014671094,0.0006775858,3.472,0,0
-0.000566113,0.002321698,0.0002515864,0.00150443,3.724879999999998e-05,3.473,0,0
-0.0008428342000000001,0.0024061242000000004,0.00032461740000000005,0.0014313076000000001,-0.00026844719999999996,3.474,0,0
-0.0006746674,0.0026479242000000004,-0.00038043279999999994,0.001249223,-8.220000000000053e-06,3.475,0,0
-0.0006279216,0.0030955522,-0.00037636639999999997,0.0008659988,-0.0004292754,3.476,0,0
-0.00017835080000000008,0.0027876342,-0.00022933419999999997,0.0005532318000000001,-0.0005082954,3.477,0,0
0.0006949812,0.0018071982,-0.0015196381999999999,-5.236199999999948e-06,0.0008496566,3.478,0,0
0.0009748134,0.0019608389,-0.0024030082,-0.0005808478000000001,0.0015391266000000002,3.479,0,0
0.0009126280000000001,0.0020057909,-0.0017155858,-0.0005327908000000001,0.0009396666000000001,3.48,0,0
0.0009715684000000002,-0.0002886611000000001,-0.0013922054000000002,-0.0005104996,0.0010956740000000003,3.481,0,0
0.00030387040000000006,-0.0026406151000000003,-0.0013134198,-0.0005095109999999999,0.001143042,3.482,0,0
-0.0007193496,-0.0033409311,-5.190780000000002e-05,6.436699999999996e-05,0.00019250940000000002,3.483,0,0
-0.0011464458000000001,-0.004027984,0.0011175922,0.0006023292,-0.0003386268,3.484,0,0
-0.0012664286,-0.00517766,0.0010453418,0.0004238128,-0.00026100280000000003,3.485,0,0
-0.0012453832,-0.004657608,0.0006825386,6.879180000000001e-05,-0.0006135368000000001,3.486,0,0
-0.0008644642,-0.0019031439999999998,0.0005814133999999999,-1.916360000000002e-05,-0.0009574536000000001,3.487,0,0
-0.00017840219999999994,0.0016590379999999998,0.0003209248,-0.0002932984000000001,-0.0006788840000000001,3.488,0,0
0.00010205360000000005,0.003278736,0.00023512820000000004,-0.0005269748000000001,-0.0007991178000000002,3.489,0,0
-0.00020330960000000003,0.0024774940000000002,0.0008007062000000001,-0.0003828758,-0.0011792058,3.49,0,0
-0.00034513320000000003,0.0014083499999999998,0.0011800154,-0.0003034238,-0.0006125418,3.491,0,0
-0.00018320419999999995,0.00015596179999999987,0.0011674802599999999,-0.00029660120000000003,-0.000382141,3.492,0,0
-0.00025410540000000005,-0.0016048422000000003,0.00120666086,-0.0001329824,-0.000983164,3.493,0,0
0.0004305468,-0.0010633402000000001,0.0011323470599999999,-9.385959999999997e-05,-0.0005927292,3.494,0,0
0.0017226348,0.0017748358,0.00051732506,-0.0001796948,0.00036656080000000004,3.495,0,0
0.0014583347999999998,0.0017233258000000004,0.00017044146000000002,-0.0002143248,0.00015663080000000003,3.496,0,0
0.0004696767999999999,-0.00036768999999999973,0.000253278,-0.000237202,-8.72612e-05,3.497,0,0
0.00031603640000000004,-0.0008164499999999996,-0.000345226,-0.0002721102,0.0006876528,3.498,0,0
0.00018095439999999996,-0.0009563659999999999,-0.0007872296000000001,-0.00012551179999999997,0.00059359278,3.499,0,0
-0.0003130976000000002,-0.0016780459999999999,-0.0004651036000000001,0.0004085604,-6.317322000000007e-05,3.5,0,0
-3.7379999999999835e-06,-0.0007177039999999997,-0.0005605484,0.0010515944,0.00037374477999999994,3.501,0,0
0.0005821660000000002,0.0015578008000000005,-0.0009402404000000001,0.0011788928,0.0008823187799999999,3.502,0,0
0.00033442560000000005,0.0026018628000000006,-0.0003542268000000001,0.0010105168000000002,0.0005102407799999999,3.503,0,0
-7.855901999999997e-05,0.0016062048000000002,-0.00027010080000000006,0.0008464922000000002,0.0006406558,3.504,0,0
-0.00013545702,0.0009879024000000003,-0.0009299268,0.00029532260000000014,0.0011798656000000002,3.505,0,0
0.00016660137999999994,0.0016515230000000002,-0.00036611040000000003,-0.00013268940000000002,0.00026976560000000003,3.506,0,0
0.00045314258,-0.0005014018000000001,0.00046689960000000005,-0.00017512180000000003,-0.0009465664,3.507,0,0
0.00027050058,-0.0038565698,0.00044533379999999996,-0.00014659700000000002,-0.0010444897999999998,3.508,0,0
-0.0005542408000000001,-0.0047708198,0.0007806648000000001,-0.00018682520000000002,-0.0015557735999999999,3.509,0,0
-0.0015460288000000001,-0.0043544774,0.0015735768000000002,-0.00013499859999999999,-0.0021839474,3.51,0,0
-0.0019577308000000002,-0.0033565840000000006,0.0010472718,5.275380000000003e-05,-0.0013666014,3.511,0,0
-0.0020984650000000003,-0.001877908,4.3869799999999984e-05,1.5394000000000022e-05,-0.0003777274,3.512,0,0
-0.0019603430000000002,-0.0005192800000000001,-0.00018157039999999999,-1.0909400000000001e-05,-0.00039419400000000005,3.513,0,0
-0.0007520189999999999,0.0011848219999999999,-0.0007750934000000001,3.111240000000001e-05,0.00012773960000000005,3.514,0,0
0.000495213,0.003157592,-0.0017844134,-2.99826e-05,0.0012171396000000003,3.515,0,0
0.0005704232000000001,0.0036275880000000006,-0.0014425826,-0.0002703766,0.001017452,3.516,0,0
0.0006704688000000001,0.0033308580000000008,-0.0006642346,-0.0004781354000000001,0.00102954,3.517,0,0
0.0012920328,0.002360264000000001,-0.0011076302,-0.0007301226000000001,0.00180126,3.518,0,0
0.0011424748000000001,0.00024222400000000009,-0.0009673081999999999,-0.0010450386,0.0017953524000000002,3.519,0,0
0.00032160680000000005,-0.0012780640000000002,-0.0003221951999999999,-0.0007776684000000002,0.0013890104000000001,3.52,0,0
0.0004220792000000001,-0.0002826380000000004,-0.000852935,-0.00039919880000000013,0.001443826,3.521,0,0
0.0010090546,0.0027807759999999996,-0.0013744130000000001,-0.0003736320000000001,0.0009116300000000001,3.522,0,0
0.0006917286,0.004849979999999999,-0.000614136,-0.00018511700000000005,-0.0008053159999999999,3.523,0,0
0.0004263866,0.0060046212,0.00014253000000000003,0.0002600202,-0.001636482,3.524,0,0
0.0007090586000000001,0.005760935199999999,0.000636251,0.0003274072,-0.001906806,3.525,0,0
0.0003816440000000001,0.0030529752,0.001648437,-2.6416000000000006e-05,-0.0028950100000000004,3.526,0,0
-0.000539882,2.308119999999995e-05,0.002063235,2.294520000000002e-05,-0.00296917,3.527,0,0
-0.0008166600000000001,-0.0020625568000000004,0.0014750700000000002,0.0002835682,-0.00134923,3.528,0,0
-0.0008986518000000001,-0.003442316000000001,0.0010216354,0.00027467,-0.0006276792000000002,3.529,0,0
-0.0009599348000000001,-0.004542732000000001,0.0007765754000000001,0.0002196626,-0.0009181652,3.53,0,0
-0.00014727080000000007,-0.005133558000000001,7.663500000000003e-05,0.00018395060000000004,0.0004822768,3.531,0,0
0.0008694332,-0.005044074,-0.000423757,-2.419439999999998e-05,0.0016908088,3.532,0,0
0.0011868082000000002,-0.0041860280000000005,-9.317199999999997e-05,-0.0003694524,0.0012995322,3.533,0,0
0.0013220672,-0.0035112620000000007,-0.00030240540000000003,-0.0005891984,0.0017142694000000002,3.534,0,0
0.0017998501999999998,-0.003301056,-0.0012930614,-0.0008325358000000001,0.0027597974,3.535,0,0
0.0013305416,-0.00315811,-0.0015396070000000001,-0.0008828804000000001,0.0024411574,3.536,0,0
0.0006684146,-0.0031296160000000004,-0.0012125808,-0.0007218532,0.0016756812000000001,3.537,0,0
0.0006467955999999999,-0.0024609492,-0.0008817718,-0.0007078752,0.0017174072000000003,3.538,0,0
-7.725760000000005e-05,-0.0016115252000000002,9.491620000000008e-05,-0.00047768420000000004,0.0005643092,3.539,0,0
-0.0013060156,-0.0004850772000000004,0.0019727282,0.0001272814,-0.0020559768,3.54,0,0
-0.0018632630000000002,0.0013550008000000001,0.0032650561999999998,0.0008022092,-0.0038731888,3.541,0,0
-0.00251441,0.0024063068,0.0038084980000000004,0.001425394,-0.0052750706,3.542,0,0
-0.0034045700000000004,0.0022241954,0.004142622,0.002160866,-0.006948320000000001,3.543,0,0
-0.003064486,0.0020829678,0.0031585500000000004,0.0025107740000000003,-0.006602182,3.544,0,0
-0.001907966,0.0018236798,0.0011821599999999998,0.0021228616000000004,-0.004154726000000001,3.545,0,0
-0.000979718,0.0012489938000000002,-0.0004616520000000002,0.0013997990000000002,-0.002000622,3.546,0,0
0.00011539399999999995,0.0014638818,-0.0018031020000000002,0.0005174070000000001,0.0004928640000000002,3.547,0,0
0.002074058,0.0023705104000000003,-0.0036043900000000003,-0.000353357,0.00426506,3.548,0,0
0.0034551720000000003,0.00359325,-0.004553458,-0.0012129110000000001,0.006995402000000001,3.549,0,0
0.00391779,0.00443329,-0.004425482,-0.0020561806,0.008054756,3.55,0,0
0.0045174920000000006,0.004253778000000001,-0.004998228,-0.0026210320000000006,0.009285886,3.551,0,0
0.004490976,0.004107998,-0.0053128920000000005,-0.0029114360000000003,0.009587828,3.552,0,0
0.003204621,0.003765386,-0.004077678,-0.003093134,0.007385717,3.553,0,0
0.001847629,0.0017407379999999997,-0.0022565299999999996,-0.002957534,0.004287339,3.554,0,0
0.00033642099999999983,-0.0009115880000000001,-0.0004464,-0.0023403494,0.001563927,3.555,0,0
-0.002284253,-0.0022509780000000003,0.0024722880000000004,-0.0013562994000000002,-0.002492865,3.556,0,0
-0.004395013,-0.0029621120000000003,0.005345722000000001,-0.0001594894000000001,-0.006664841,3.557,0,0
-0.004966862000000001,-0.0035611012000000006,0.0063848460000000004,0.0008949186000000001,-0.00858277,3.558,0,0
-0.0054973719999999995,-0.0032829412000000002,0.006583930000000001,0.0016762626000000002,-0.009716836,3.559,0,0
-0.005606632,-0.0027207952000000003,0.0059470320000000005,0.002417434,-0.00993992,3.56,0,0
-0.0038587298000000003,-0.0025589772,0.003890986,0.002789082,-0.0077952590000000006,3.561,0,0
-0.0017791938000000004,-0.0018388512000000001,0.0011603899999999999,0.0024888260000000004,-0.004428807,3.562,0,0
-0.00041130780000000035,0.00048380999999999967,-0.0007685799999999999,0.0020402676,-0.0015404210000000002,3.563,0,0
0.0013366721999999998,0.0029541940000000003,-0.002338712,0.0014223330000000002,0.0020180330000000002,3.564,0,0
0.0032543601999999996,0.0033413440000000004,-0.004461474,0.000330545,0.0059296290000000005,3.565,0,0
0.003994772,0.002480814,-0.005483516000000001,-0.000839259,0.008149408,3.566,0,0
0.004521804,0.0016029040000000007,-0.005220832000000001,-0.0016106789999999998,0.009365740000000001,3.567,0,0
0.004911422,-0.0004964106000000001,-0.0049726300000000005,-0.0020579586,0.010066692000000002,3.568,0,0
0.0042116172,-0.0037242066000000005,-0.0041480651999999995,-0.00222576,0.008618318000000002,3.569,0,0
0.0029639632,-0.005699872600000001,-0.0016702752000000002,-0.0019062668,0.004753532,3.57,0,0
0.0012962531999999999,-0.005631530599999999,0.0010103148000000003,-0.001180492,0.0010354019999999995,3.571,0,0
-0.0009762668000000001,-0.004597472599999999,0.0032543648000000003,-0.00025284600000000015,-0.00285821,3.572,0,0
-0.0037633068000000004,-0.003249156,0.005777846800000001,0.000720014,-0.007707368000000001,3.573,0,0
-0.005848636000000001,-0.0015876819999999993,0.0072949,0.00189697,-0.010650124,3.574,0,0
-0.006670580000000001,0.0008961934000000001,0.007231544000000001,0.0029854968,-0.011106056,3.575,0,0
-0.00659353,0.002918413400000001,0.00639286,0.003360748,-0.01134394,3.576,0,0
-0.00547221,0.0025167914,0.0046985468,0.003372402,-0.010228933999999999,3.577,0,0
-0.0028146900000000003,0.0012734376,0.0018036308000000001,0.003120768,-0.005849702,3.578,0,0
1.0545999999999841e-05,0.0011984736,-0.0012800012,0.002353319,-0.0013007579999999995,3.579,0,0
0.001855736,0.0020186802,-0.0035993812000000005,0.0014932532,0.002120564,3.58,0,0
0.004086006,0.0025775522,-0.005898329200000001,0.0005835072,0.006469258,3.581,0,0
0.005995832,0.0032944602,-0.007721034000000001,-0.0005215888000000001,0.010131300000000001,3.582,0,0
0.006367380000000001,0.004631412,-0.0076832720000000005,-0.0014685288,0.010568042000000001,3.583,0,0
0.006358744,0.004758206,-0.007074560000000001,-0.0021575818,0.010202816,3.584,0,0
0.006188744000000001,0.004048615,-0.0057803832,-0.002654968,0.009792892000000001,3.585,0,0
0.004409942,0.0034168630000000005,-0.0026414672,-0.0022494688,0.0070755608,3.586,0,0
0.0014856759999999998,0.001643967,0.0006285848000000004,-0.0013617687999999996,0.0032723988000000004,3.587,0,0
-0.001047504,-0.00013324900000000005,0.0027813648,-0.0007702367999999998,5.4926799999999686e-05,3.588,0,0
-0.0034111259999999996,-0.00043502299999999993,0.0052100108000000004,1.0441400000000032e-05,-0.0035214112,3.589,0,0
-0.00583601,-0.00029282999999999995,0.007232430000000001,0.0009349734,-0.0075901912000000005,3.59,0,0
-0.006666046,-0.00023477999999999997,0.006726316,0.0017018082,-0.0096107,3.591,0,0
-0.0058926560000000005,-0.00118518,0.005800006,0.0022171002,-0.009947778000000001,3.592,0,0
-0.005340264000000001,-0.003112184,0.0054871600000000005,0.0027113082,-0.009817866000000001,3.593,0,0
-0.0038830583200000005,-0.0042095380000000005,0.003978224360000001,0.003092634,-0.008014316,3.594,0,0
-0.00125720832,-0.005869198000000001,0.0011403023599999998,0.0025502908,-0.004159734,3.595,0,0
0.00078370168,-0.007325148000000002,-0.00110551564,0.0009282447999999999,-0.0003855299999999998,3.596,0,0
0.0025587396800000003,-0.005722107400000001,-0.00281319964,-0.0004480532000000002,0.002730868,3.597,0,0
0.00451449568,-0.0035445034,-0.00507604164,-0.0014507992,0.006531714,3.598,0,0
0.005201890000000001,-0.0024189553999999997,-0.006371522,-0.0026335992,0.008939244,3.599,0,0
0.004766092,-0.0008649494000000004,-0.005878572,-0.0032876980000000004,0.009096960000000001,3.6,0,0
0.004460604000000001,0.0006290766,-0.004755348,-0.003293644,0.008725524,3.601,0,0
0.003291144,0.001585756,-0.0036486406000000005,-0.0031106799999999998,0.007561661999999999,3.602,0,0
0.001618014,0.0032725880000000003,-0.0017038666000000003,-0.0030429359999999996,0.004494096,3.603,0,0
0.0005616840000000001,0.00566858,0.0003742694000000001,-0.0026075396,0.0013520000000000003,3.604,0,0
-0.000594092,0.00832973,0.0015614034,-0.0017454477999999999,-0.0010035299999999999,3.605,0,0
-0.002351158,0.00981985,0.0032803594,-0.0008230517999999999,-0.004326798,3.606,0,0
-0.003828308,0.008391448000000001,0.004990026000000001,9.980819999999996e-05,-0.007425994,3.607,0,0
-0.00455893,0.004787006,0.004933102,0.0009258102000000001,-0.008383587999999999,3.608,0,0
-0.005321676,-0.00027191399999999984,0.004669434,0.0015316858000000001,-0.008836942,3.609,0,0
-0.005128886000000001,-0.0053219140000000005,0.0041704332,0.0018548560000000002,-0.009063795999999999,3.61,0,0
-0.0032452100000000005,-0.008440704,0.0021767892000000002,0.001727662,-0.0067315940000000005,3.611,0,0
-0.0012473040000000003,-0.00861186,1.3909199999999951e-05,0.0011126020000000003,-0.0031525340000000002,3.612,0,0
0.000547894,-0.007066452000000001,-0.0012512528,0.0005327174,-0.0004329440000000002,3.613,0,0
0.00267211,-0.005306812000000001,-0.0024914928,-0.00016750260000000002,0.003014768,3.614,0,0
0.0040663800000000005,-0.0033089454000000003,-0.004045886,-0.0011151086,0.006730434,3.615,0,0
0.003983382,-0.0019201997999999999,-0.0045655520000000005,-0.0016854826,0.00799767,3.616,0,0
0.0037672400000000003,-0.0008636918000000003,-0.0047238539999999996,-0.0015383786000000002,0.008385176000000001,3.617,0,0
0.0036712980000000004,0.0005511182,-0.004921692,-0.0013449620000000001,0.008727634000000001,3.618,0,0
0.00298518,0.0020270402,-0.004241305799999999,-0.0012170294,0.00764437,3.619,0,0
0.0019557232000000004,0.0026747935999999997,-0.0023278838,-0.0007684436,0.005283999,3.62,0,0
0.0008882132000000002,0.0027602426,-0.0005789218000000001,-0.00016967984,0.002855303,3.621,0,0
-0.00011145279999999995,0.0027400766,0.0007361642,0.00011294616000000001,0.00032883100000000013,3.622,0,0
-0.0017581468,0.0022587825999999997,0.0029047982,0.00029113056000000005,-0.003248297,3.623,0,0
-0.0033653868,0.0020303626,0.00411097,0.0009369619600000001,-0.0061246930000000005,3.624,0,0
-0.00371971,0.0022183446000000003,0.0040634140000000004,0.0015803821600000002,-0.007314944,3.625,0,0
-0.0038861940000000004,0.00205663592,0.004389136,0.0022652244000000003,-0.008075108,3.626,0,0
-0.003772744,0.00220297992,0.004211324000000001,0.0027845704000000002,-0.008269098,3.627,0,0
-0.0020117779999999997,0.0029891699200000005,0.0022515340000000003,0.002903468,-0.006229798400000001,3.628,0,0
-0.0001315820000000001,0.0019367499200000004,0.0005335859999999998,0.0025785174000000004,-0.0035733423999999995,3.629,0,0
0.0006705540000000001,-0.0002305660800000001,-0.00026678000000000004,0.0018569768000000003,-0.0014862583999999996,3.63,0,0
0.002200002,-0.0010081679999999998,-0.0020031420000000003,0.0007955988000000001,0.0017806096000000003,3.631,0,0
0.0040292800000000005,-0.001585462,-0.0029827100000000004,-0.0003531892,0.004561719600000001,3.632,0,0
0.00397434,-0.003432498,-0.002330322,-0.0008261664000000001,0.005567792,3.633,0,0
0.0032265311999999996,-0.004992386,-0.0022905959999999998,-0.0011437838,0.006323002000000001,3.634,0,0
0.0031433232000000005,-0.004509998,-0.002545044,-0.0013011572000000001,0.006715006000000001,3.635,0,0
0.0022863542,-0.0028894460000000004,-0.0016445984,-0.0012089312,0.00552519,3.636,0,0
0.0004504322,-0.0018269040000000005,-0.0005775923999999998,-0.0011608452,0.003736558000000001,3.637,0,0
-0.0005283378000000001,-0.0009265560000000003,-0.0001455224,-0.0010941086,0.0024622820000000005,3.638,0,0
-0.001066883,0.0011330681999999997,0.0009171536000000002,-0.0009571317200000002,-4.066999999999981e-05,3.639,0,0
-0.002428307,0.0020941812,0.0026887016,-0.00059355412,-0.003638776,3.64,0,0
-0.0033971340000000004,0.001137531,0.003573794,-0.00019407272000000004,-0.005488038,3.641,0,0
-0.0038804780000000006,0.00031781194,0.0038565700000000006,8.986868000000001e-05,-0.006089322,3.642,0,0
-0.004366986,-0.0004984700600000001,0.004271540000000001,0.00040311128,-0.007187132000000001,3.643,0,0
-0.0037740646000000004,-0.00100901826,0.0037355264,0.0007973564000000001,-0.006871028000000001,3.644,0,0
-0.0024417846,0.00014738073999999999,0.0018378544,0.0008757632000000001,-0.0042105860000000005,3.645,0,0
-0.001429373,0.0029971789400000002,0.0001417664,0.0008977366000000001,-0.0021963899999999995,3.646,0,0
0.00019798100000000007,0.006421114,-0.0012783936,0.0010111172,-0.0006525699999999999,3.647,0,0
0.0021419810000000003,0.008653534000000001,-0.0030738956000000003,0.0006794160000000001,0.0023193940000000002,3.648,0,0
0.0028249836,0.008158538000000002,-0.003913890000000001,3.979999999999999e-06,0.004778098000000001,3.649,0,0
0.0028954555999999997,0.005306557999999999,-0.00374488,-0.0005948084000000001,0.0056503000000000005,3.65,0,0
0.003563302,0.001470714,-0.003950336,-0.0010540232000000001,0.006407426000000001,3.651,0,0
0.003751692,-0.002264724,-0.0041834820000000005,-0.0013453392000000002,0.007188592,3.652,0,0
0.0028143512,-0.0035718340000000003,-0.0033301185999999997,-0.0014908380000000002,0.006220430000000001,3.653,0,0
0.0022649890000000002,-0.0032267680000000005,-0.0021797546,-0.0013378614,0.004338189,3.654,0,0
0.0014287950000000005,-0.004272134,-0.0013090086,-0.0006737334000000001,0.002742235000000001,3.655,0,0
-0.000892057,-0.005384030000000001,0.0005646993999999998,-0.0001811874,-3.546700000000018e-05,3.656,0,0
-0.003159739,-0.0060744280000000015,0.0030331814,8.644239999999997e-05,-0.003166149,3.657,0,0
-0.0039495582,-0.007406900000000001,0.00411142,0.0007224824,-0.004879581000000001,3.658,0,0
-0.004604808,-0.0071591380000000015,0.004476938,0.0013010458,-0.0061752099999999996,3.659,0,0
-0.004775026000000001,-0.0042870420000000005,0.005038513999999999,0.0014238378000000001,-0.007125368,3.66,0,0
-0.002977146,-0.001372052,0.004050699180000001,0.0016480678,-0.005978346,3.661,0,0
-0.000873786,0.0006718680000000002,0.0017637791800000002,0.0017196338000000002,-0.003911522000000001,3.662,0,0
0.00038573000000000025,0.0029121220000000005,0.0006662835799999999,0.0011318898000000001,-0.00241572,3.663,0,0
0.001673032,0.004651870000000001,0.00014551677999999997,0.0003961818000000001,-0.00022162400000000013,3.664,0,0
0.0029149700000000002,0.005080616,-0.00163685922,-0.00020881820000000003,0.002348104,3.665,0,0
0.002940178,0.005459358000000001,-0.0030622944000000003,-0.0005935038000000001,0.003444476,3.666,0,0
0.0028675000000000003,0.004887248,-0.0033357544,-0.0007481668,0.003798226,3.667,0,0
0.003128796,0.002148838,-0.0040976228,-0.0009231707999999999,0.004829112000000001,3.668,0,0
0.003047852,0.00038860999999999995,-0.004621842,-0.0012207087999999999,0.005095772,3.669,0,0
0.0027189362,-0.00019291940000000003,-0.003565984,-0.0014023868,0.0035899779999999997,3.67,0,0
0.0020700142,-0.0015212674000000001,-0.0020214984000000006,-0.0016792452,0.0024520519999999997,3.671,0,0
0.0009240761999999999,-0.0015338314000000002,-0.0006169944,-0.002107266,0.0016947960000000001,3.672,0,0
-0.0007098298,-7.313700000000003e-05,0.0015300316,-0.0018736826,-0.0008457479999999998,3.673,0,0
-0.0018630958000000002,0.0007635510000000001,0.0031586096000000004,-0.0009526045999999999,-0.003177118,3.674,0,0
-0.0024981260000000003,0.0018524864000000001,0.0033691996000000004,8.614540000000006e-05,-0.0039005800000000007,3.675,0,0
-0.0028855420000000005,0.0023374844,0.003908994,0.0009664114000000002,-0.005188996,3.676,0,0
-0.00344109,0.0002398964000000002,0.0040498140000000005,0.0017349514000000001,-0.006172478,3.677,0,0
-0.0035150900000000002,-0.002474818,0.0025016479999999995,0.0020669250000000003,-0.004988680000000001,3.678,0,0
-0.00294543326,-0.004502906,0.001237859,0.0016352970000000002,-0.003415734,3.679,0,0
-0.0024674576600000006,-0.00574817,0.001204217,0.001008459,-0.001981838,3.68,0,0
-0.0013010636600000003,-0.0055424260000000005,0.00011384699999999998,0.0004986416,0.0007187580000000001,3.681,0,0
0.00035815034,-0.0035112320000000004,-0.001374201,0.0001107512,0.0028223980000000003,3.682,0,0
0.00162676834,-0.0004076480000000003,-0.001340789,-0.00018960920000000002,0.0033443160000000004,3.683,0,0
0.0023797056,0.001533286,-0.001996456,-0.00025068380000000003,0.004340066000000001,3.684,0,0
0.003272908,0.0018181734,-0.0033415480000000006,-0.00019717160000000004,0.005268596000000001,3.685,0,0
0.003473498,0.0015142272000000002,-0.003361142,-0.000258455,0.004878348000000001,3.686,0,0
0.003022846,0.0010972312000000002,-0.002596552,-0.0002982586,0.004369818,3.687,0,0
0.002677884,0.0008553092000000001,-0.002381591,-0.0003252538,0.004227048000000001,3.688,0,0
0.0017153040000000004,0.0009020852,-0.0017085554,-0.0003064862,0.0027608040000000004,3.689,0,0
0.000181856,0.0007747234000000001,0.00020236860000000018,-0.000282227,-0.00018287399999999997,3.69,0,0
-0.0012645820000000002,0.0007582882,0.0015884106000000002,-0.00020654840000000003,-0.002557378,3.691,0,0
-0.0019951640000000002,0.0008399852000000001,0.0024295646000000006,8.39666e-05,-0.004554932,3.692,0,0
-0.002762418,0.0003975412000000001,0.0034542476000000003,0.0006804812,-0.006558896,3.693,0,0
-0.003200774,0.00046853920000000004,0.0037233220000000007,0.0012250162,-0.007024764,3.694,0,0
-0.0027766353999999997,0.0009768676,0.0024559259999999998,0.0013520691999999999,-0.0055850368,3.695,0,0
-0.0022824774,0.0019449530000000001,0.00112987,0.0013514030000000002,-0.0039242598,3.696,0,0
-0.0014236793999999999,0.004828796,0.000266752,0.0011292725999999997,-0.002336348,3.697,0,0
-9.390539999999995e-05,0.006115924,-0.0012242940000000001,0.00038593659999999996,0.00021929199999999995,3.698,0,0
0.0010213106,0.004038268000000001,-0.0020026160000000005,-0.0005055834000000001,0.0021914260000000002,3.699,0,0
0.0018035300000000002,0.002621364,-0.0016116468000000003,-0.0012309518000000001,0.0032118388,3.7,0,0
0.0028101440000000005,0.0012465780000000006,-0.0020091148000000005,-0.0019316854,0.0044785878,3.701,0,0
0.003318924,-0.0006218439999999999,-0.0028148688,-0.002904306,0.005477588,3.702,0,0
0.002956882,-0.001100106,-0.0025587768000000003,-0.0033488820000000005,0.004984435999999999,3.703,0,0
0.002267396,-0.001000262,-0.0021898724,-0.0029221360000000005,0.0039620260000000004,3.704,0,0
0.0012643539999999999,-0.0004380880000000001,-0.0021645970000000003,-0.0023544366000000003,0.00350663,3.705,0,0
-0.000291406,-2.853860000000006e-05,-0.000681743,-0.0016969230000000001,0.0016947840000000004,3.706,0,0
-0.0019696540000000004,-0.0016232806,0.001687179,-0.0007049922000000001,-0.001091784,3.707,0,0
-0.0024736380000000002,-0.0037182926,0.0026978889999999998,0.00025413980000000007,-0.0027911200000000002,3.708,0,0
-0.002507782,-0.0045037706,0.0035307565999999997,0.0005419778,-0.004188708,3.709,0,0
-0.002655674,-0.0052712146,0.004653026,0.0007850324000000001,-0.005820050000000001,3.71,0,0
-0.002055032,-0.005693318,0.00426685,0.0011311608,-0.005647920000000001,3.711,0,0
-0.0011164176,-0.005518938,0.0029907488000000004,0.00138193,-0.0040218584,3.712,0,0
-0.0009679784,-0.004361498,0.0024386086,0.0017055260000000002,-0.0031128084000000005,3.713,0,0
-0.0006693411999999999,-0.0021667179999999998,0.0014556246,0.001885114,-0.0017059164000000002,3.714,0,0
0.0006191548000000001,-0.0008060182000000001,-0.0006700394,0.0017257846,0.0009194396000000001,3.715,0,0
0.0011238888,-0.0002552162000000002,-0.0019080934000000002,0.0012880066000000002,0.0026352016000000004,3.716,0,0
0.0014190404,0.0006272858,-0.0023821562000000004,0.0009552084000000002,0.0037824020000000007,3.717,0,0
0.0023707292000000003,0.0019299158000000002,-0.003429384,0.00031745600000000003,0.00585843,3.718,0,0
0.002304886,0.0026140718,-0.003942172000000001,-0.00030175199999999997,0.006989004,3.719,0,0
0.001229424,0.0029644960000000005,-0.0031340058000000003,-0.0006650206,0.006290554,3.72,0,0
0.0010826942,0.00319162,-0.0024440278000000004,-0.0010999766000000001,0.005454626000000001,3.721,0,0
0.0008981001999999999,0.004289,-0.0021144312,-0.0011451902,0.0041006274,3.722,0,0
-0.00035960380000000006,0.005969278000000001,-0.0005468812,-0.0009233058000000001,0.0008833194000000004,3.723,0,0
-0.0009617818000000002,0.00651278,0.0010832088,-0.0005672734,-0.0026191666000000002,3.724,0,0
-0.0011626038000000002,0.005295618,0.0014678986000000002,-3.436139999999998e-05,-0.0049836666000000005,3.725,0,0
-0.002029892,0.001791282,0.0023976126,0.0006747586000000001,-0.0075108146,3.726,0,0
-0.0029535340000000003,-0.0022928760000000005,0.003325502,0.0012817284000000001,-0.009180250000000001,3.727,0,0
-0.002242724,-0.004366060000000001,0.0025163828,0.0017265204000000002,-0.00807147,3.728,0,0
-0.0011777240000000002,-0.0044689560000000005,0.0012122908000000003,0.0020168820000000002,-0.0060440044,3.729,0,0
-0.0006265366400000002,-0.0038586200000000014,0.0010875992,0.00247377,-0.0041056704,3.73,0,0
0.00043543336,-0.0016610380000000003,0.0007313792,0.00307409,-0.0008483024000000001,3.731,0,0
0.0007775333599999999,-0.0002161600000000003,-0.00043890680000000003,0.0032053,0.0024511456000000003,3.732,0,0
0.00029200376,-0.0014898200000000002,-0.00045157880000000006,0.0032508380000000003,0.0039303916,3.733,0,0
0.0003937817599999999,-0.0031260640000000004,-0.0002638648,0.0029740776,0.005661806,3.734,0,0
0.0010232064,-0.003331632,-0.0014040632000000002,0.0021987858000000002,0.007569292,3.735,0,0
0.0012784784,-0.002099362,-0.0026521892,0.0013657491999999997,0.007583526,3.736,0,0
0.0020831564,-0.00010597600000000046,-0.0027959672000000004,0.0007561232000000002,0.007012352,3.737,0,0
0.00326009,0.002778728,-0.0030581220000000004,0.0002945352,0.0071919620000000005,3.738,0,0
0.003286618,0.00582101,-0.0033346660000000005,-4.299880000000001e-05,0.006169480000000001,3.739,0,0
0.002235194,0.0066108980000000005,-0.0021019580000000006,-0.000235621,0.003033030000000001,3.74,0,0
0.000797916,0.0031114660000000002,-0.00024235000000000044,-0.0006687544000000001,0.00022613000000000038,3.741,0,0
-0.0009962240000000004,-0.0015082380000000007,0.001492438,-0.0015262644,-0.0028118299999999995,3.742,0,0
-0.0033838320000000002,-0.0035701596,0.0031781560000000006,-0.0028288884,-0.00715373,3.743,0,0
-0.004675090000000001,-0.0042377196,0.004463562000000001,-0.004182302,-0.010519488,3.744,0,0
-0.004152553,-0.004233891599999999,0.004540130000000001,-0.0050307880000000004,-0.011166164,3.745,0,0
-0.0031754598,-0.0017492536000000003,0.0036632548000000006,-0.00512076,-0.01049213,3.746,0,0
-0.0017032046000000003,0.0014669743999999997,0.002567194000000001,-0.004557666,-0.008804616000000001,3.747,0,0
0.0002732834,0.0014776426,0.000670244,-0.0035793946,-0.005061284000000001,3.748,0,0
0.0016826514,-0.00016181540000000008,-0.0008482460000000001,-0.0023155745999999997,-0.0013542500000000002,3.749,0,0
0.0024046924,-0.0007608264000000001,-0.0012898928,-0.0013356968,0.0011763460000000002,3.75,0,0
0.0033643472000000002,-0.0004230424,-0.0021693516,-0.0011242508,0.003929386,3.751,0,0
0.004045834,0.00028321760000000004,-0.0028608748,-0.0012921388,0.006222214,3.752,0,0
0.003732818,0.001044637,-0.0025802328000000003,-0.0011110882,0.006272312000000001,3.753,0,0
0.00324748,0.001671085,-0.0024600368,-0.0005173501999999999,0.005954750000000001,3.754,0,0
0.0024789772000000003,0.0019149822,-0.002664352,-0.00020758399999999992,0.006031196000000001,3.755,0,0
0.0007544232000000002,0.0016429582,-0.001586044,0.00036023200000000004,0.004145143,3.756,0,0
-0.0012338748,0.0005304901999999998,5.376000000000079e-06,0.001366642,0.001494839,3.757,0,0
-0.0023001888,-0.0009874258000000002,0.000910882,0.002048966,0.0005367869999999999,3.758,0,0
-0.0030285068000000005,-0.0018784598,0.002009454,0.002453158,-0.00041188500000000007,3.759,0,0
-0.0038833020000000004,-0.001836539,0.003123542,0.002835494,-0.002300555,3.76,0,0
-0.0038109800000000003,-0.0012498755999999999,0.00318871,0.0032402260000000006,-0.0028417100000000003,3.761,0,0
-0.003001366,-0.0005714432000000001,0.0022104746,0.003167978,-0.0026456280000000006,3.762,0,0
-0.002651786,0.00035786080000000005,0.0018110174,0.002475314,-0.003701584000000001,3.763,0,0
-0.0020865782,0.0012154248000000002,0.001314343,0.001426338,-0.003806662,3.764,0,0
-0.0004644361999999999,0.0022540278000000003,-0.00014207299999999994,0.0005360200000000002,-0.0021856040000000003,3.765,0,0
0.0006571738000000001,0.0035294944000000003,-0.0011213990000000001,-0.00031273079999999994,-0.001161844,3.766,0,0
0.0015917718,0.004318564,-0.0017775496,-0.0009125018000000001,0.00016866000000000006,3.767,0,0
0.0032606058,0.003940185800000001,-0.0027333724000000005,-0.0008424530000000001,0.002781698,3.768,0,0
0.00374634,0.0020572138000000007,-0.00302427,-0.0008033110000000001,0.004291314000000001,3.769,0,0
0.0028330586,0.00023457380000000013,-0.0025333366,-0.000732823,0.004047618,3.77,0,0
0.0026741686000000004,3.1275799999999935e-05,-0.0024185066,-0.0006354708,0.004157068000000001,3.771,0,0
0.0024757486000000005,0.00025568780000000005,-0.0020886486000000004,-0.000664043,0.004053756,3.772,0,0
0.0006271865999999999,-0.001379968,-0.0006431466,-0.00055412,0.002157634,3.773,0,0
-0.0005137854,-0.0021183319999999997,0.0005354814,-2.924199999999996e-05,0.0001802879999999998,3.774,0,0
-0.00038783700000000014,-0.00044359599999999966,0.0006848172000000002,0.00050582,-0.00063768,3.775,0,0
-0.0013877490000000002,0.0008241740000000002,0.0014744532,0.00045008140000000004,-0.002410684,3.776,0,0
-0.0026342550000000003,0.000742572,0.0026228872,3.275260000000003e-05,-0.004594838,3.777,0,0
-0.0023750030000000005,0.0001361120000000003,0.0024625792,-0.00032633559999999996,-0.004890200000000001,3.778,0,0
-0.0021642970000000004,-0.00040883200000000003,0.0020235672,-0.0005111671999999999,-0.0045134879999999995,3.779,0,0
-0.0023019772,-0.002369612,0.002520652,-0.0008807216000000001,-0.004575392,3.78,0,0
-0.0011864132000000002,-0.0053325180000000005,0.002182852,-0.0007164836,-0.0032425820000000004,3.781,0,0
-3.0412000000000277e-06,-0.006802388000000001,0.0007030100000000002,2.7919800000000003e-05,-0.0006786600000000002,3.782,0,0
0.00013151299999999999,-0.00502072,0.00015158819999999999,0.00013463240000000004,0.000719688,3.783,0,0
0.0007534989999999999,-0.00203298,-0.0007354638000000001,-0.00014095400000000002,0.002198568,3.784,0,0
0.0017349702,-0.0006489519999999998,-0.0023121198,-0.0005208176,0.004308526,3.785,0,0
0.0015344282,-9.922000000000004e-06,-0.0027001178,-0.0010799524,0.005352460000000001,3.786,0,0
0.0014562242000000002,0.00026456000000000006,-0.0024770258,-0.0014937118,0.005420536000000001,3.787,0,0
0.001937904,-9.960799999999994e-05,-0.002660952,-0.0016439100000000002,0.005976858000000001,3.788,0,0
0.0014485260000000001,-0.0007007297999999999,-0.001979828,-0.0013188808000000002,0.005648252,3.789,0,0
0.00010281600000000004,-0.0008355557999999998,-3.967199999999993e-05,-6.203479999999993e-05,0.0035751420000000003,3.79,0,0
-0.0011912339999999998,-0.0005156797999999998,0.0011560340000000002,0.0016682092000000002,0.002097072,3.791,0,0
-0.002378426,0.00037129820000000006,0.002001278,0.0027070952,0.00042833200000000024,3.792,0,0
-0.0034834899999999997,0.0015113682,0.0032468820000000004,0.0034009512000000006,-0.002107588,3.793,0,0
-0.003914964,0.0015215686,0.00373711,0.003828766000000001,-0.003613558,3.794,0,0
-0.0035258676,0.0012731625999999998,0.0028197035999999996,0.0031249168000000004,-0.003736512,3.795,0,0
-0.0026323022,0.001043235,0.0019445638,0.0018106138000000003,-0.004567112,3.796,0,0
-0.0018962942,0.0007566489999999999,0.0016748138,0.0011184492000000002,-0.005674276,3.797,0,0
-0.0005546082,0.002351471,0.00017332579999999995,0.0005448274,-0.00493008,3.798,0,0
0.0012741917999999999,0.0045080324000000005,-0.0012157282000000002,-0.0005683506,-0.0039941688000000005,3.799,0,0
0.0023877893999999997,0.0067513004,-0.0015508438,-0.0011939174,-0.0035273674,3.8,0,0
0.003911928,0.008062336,-0.0025669020000000002,-0.0014617004000000002,-0.0010618694000000004,3.801,0,0
0.005024023999999999,0.004186559999999999,-0.0036156320000000006,-0.0020073998000000003,0.0023897566,3.802,0,0
0.004263384,-0.0020327319999999998,-0.003350676,-0.002484566,0.0035391126,3.803,0,0
0.0032987344,-0.0043554054,-0.002871878,-0.0026771,0.0034040422,3.804,0,0
0.0029078804,-0.0042218854,-0.0028617440000000007,-0.002962544,0.003339696,3.805,0,0
0.0018038584,-0.003523933400000001,-0.0020135020000000003,-0.003133364,0.0014278720000000002,3.806,0,0
0.0009705468,0.0006180605999999997,-0.0006370360000000002,-0.0027211192,-0.001076812,3.807,0,0
0.0013739514000000001,0.0047451666000000005,0.00024246799999999992,-0.0021248398,-0.001777656,3.808,0,0
0.0012321748,0.005258748000000001,0.000910226,-0.0014111584,-0.0025144788000000004,3.809,0,0
-0.00012729120000000004,0.00188873,0.002276188,-0.0003544164000000001,-0.00376736,3.81,0,0
-0.0015934932000000001,-0.004395670000000001,0.003760292,0.0004580656,-0.0038645000000000003,3.811,0,0
-0.0024704016,-0.008274464,0.003792862,0.0006201244,-0.00345106,3.812,0,0
-0.0032798762,-0.009034794000000002,0.0034817760000000002,0.00062627014,-0.0036920620000000003,3.813,0,0
-0.003583874,-0.008935552000000001,0.003188755,0.0006539605400000001,-0.003087586,3.814,0,0
-0.0028269076000000002,-0.007103728,0.0018010970000000002,0.00073169654,-0.00104182,3.815,0,0
-0.0017606829999999999,-0.0025514280000000005,0.0005251827999999999,0.00109714054,0.00040538200000000003,3.816,0,0
-0.000713623,0.0016904160000000004,-0.0003265232,0.00179584694,0.0015921520000000003,3.817,0,0
0.000443353,0.0034686420000000005,-0.0020327632,0.0024025538000000003,0.0038842340000000003,3.818,0,0
0.001039881,0.0033998160000000004,-0.0034843622,0.002773236,0.005863186,3.819,0,0
0.001065846,0.0026356352,-0.0036573602000000006,0.002955022,0.006549128,3.82,0,0
0.0012885584000000001,0.00220620976,-0.004050054000000001,0.0026181420000000004,0.007254076,3.821,0,0
0.0011617774,0.00160221176,-0.0042834660000000005,0.002217604,0.007670106,3.822,0,0
0.00010002939999999999,0.0010569077600000002,-0.002521436,0.00249935,0.006408252,3.823,0,0
-0.0011758306,0.0008206005600000001,-0.00028541000000000005,0.00324565,0.005087190000000001,3.824,0,0
-0.0017492520000000002,0.00115117936,0.0007579600000000001,0.00378109,0.004829028,3.825,0,0
-0.0025753390000000003,0.0015312668000000002,0.0022047280000000004,0.00399914,0.004008972,3.826,0,0
-0.003317172,0.0015760248,0.003763636,0.0037348676000000004,0.0026683251999999997,3.827,0,0
-0.0025193040000000004,0.0016908008000000002,0.0035563192,0.0029120590000000003,0.0020612108,3.828,0,0
-0.0014990222000000003,0.0017339660000000002,0.0027721638000000005,0.0017017933999999998,0.0007510567999999998,3.829,0,0
-0.0012460782000000004,0.0018436700000000004,0.0026633718,-0.0001757086,-0.0029528132000000004,3.83,0,0
-0.00037790839999999996,0.002553792,0.0018340469999999999,-0.0024481646,-0.0067802292000000005,3.831,0,0
0.0008452156000000002,0.0036815880000000004,0.000446415,-0.0048170161999999996,-0.0097722164,3.832,0,0
0.0008093076000000001,0.0033273540000000002,5.158580000000002e-05,-0.0073232516000000004,-0.013027142000000002,3.833,0,0
0.0010676078000000002,0.0008836920000000002,-0.0006108928000000001,-0.009677586,-0.014185340000000001,3.834,0,0
0.0025784798,-0.0009170659999999998,-0.0020628528,-0.011022480000000001,-0.012334418000000002,3.835,0,0
0.0036312080000000004,-0.0011233740000000003,-0.0030016540000000003,-0.010923676000000002,-0.010084754,3.836,0,0
0.003957352000000001,-0.001851446,-0.0031688900000000006,-0.009847010000000002,-0.007999734,3.837,0,0
0.005116984,-0.0010240280000000002,-0.0033356520000000006,-0.007837940000000002,-0.005086238000000001,3.838,0,0
0.006363144000000001,0.0033254520000000004,-0.0028878732,-0.005058258,-0.0029910218,3.839,0,0
0.005786342,0.005329048,-0.0010450772,-0.001871472,-0.0020179198,3.84,0,0
0.0043933894,0.0019893919999999995,0.00023108079999999994,0.001551844,0.00032029620000000036,3.841,0,0
0.0028360134,-0.001346196,0.00075828454,0.005142018,0.0039953962,3.842,0,0
0.00038682340000000003,-0.003564032,0.0020292645400000003,0.008623988,0.0071560402,3.843,0,0
-0.0025060606000000003,-0.007050666000000001,0.00312504174,0.011293006000000001,0.010010244000000001,3.844,0,0
-0.0047850666,-0.008373384,0.00275204374,0.012788680000000002,0.013763200000000001,3.845,0,0
-0.006557271999999999,-0.005559908,0.00237670834,0.013111980000000002,0.01629982,3.846,0,0
-0.007660600000000001,-0.0025885239999999996,0.0026576726,0.012346148000000001,0.016796480000000003,3.847,0,0
-0.00729812,-0.0010534816000000002,0.0015036265999999999,0.010508164,0.01708568,3.848,0,0
-0.0064481880000000005,0.00016639699999999996,-2.5033399999999963e-05,0.008156086,0.015808504,3.849,0,0
-0.005572418000000001,0.0006103916,-0.0005315006000000001,0.005918788000000001,0.01159611,3.85,0,0
-0.0035043344000000006,0.0003539108,-0.0016906432,0.003560886,0.00668341,3.851,0,0
-0.0009536464000000001,6.99794e-05,-0.0031107192,0.0005327139999999999,0.00068409,3.852,0,0
0.0003531116000000001,4.6019999999999265e-07,-0.0033450272000000005,-0.0032960619999999998,-0.00756123,3.853,0,0
0.0015691896000000001,0.0002401026,-0.0030899752,-0.006987024,-0.013728754,3.854,0,0
0.0032325276,0.00028000000000000003,-0.0030770114000000003,-0.009663926,-0.01588728,3.855,0,0
0.0036462020000000003,0.0001187056,-0.0017479914,-0.010873336,-0.016252238000000002,3.856,0,0
0.0030017762,0.000291089,0.0005529446000000003,-0.009889538000000002,-0.013659628000000002,3.857,0,0
0.0022306748,0.000349817,0.0018341046000000002,-0.006879514,-0.006702817999999999,3.858,0,0
0.0012886387999999998,0.0004134316,0.0027637706000000002,-0.0033850439999999994,0.0006783019999999996,3.859,0,0
-3.337720000000003e-05,0.0009934776,0.0037687880000000003,-0.00033730999999999995,0.006428942,3.86,0,0
-0.0009621612000000001,0.0017758448000000002,0.0038667780000000004,0.0017236940000000002,0.01141422,3.861,0,0
-0.0012560268000000002,0.0030941488000000004,0.0028691094,0.0020798,0.01409931,3.862,0,0
-0.0011285318000000002,0.004399301600000001,0.0025324974,0.0010390260000000002,0.012510820600000002,3.863,0,0
-0.0006730557999999999,0.0034621540000000003,0.0024106434,-0.00041659999999999993,0.0085362866,3.864,0,0
-0.0001867878,0.0015148980000000006,0.0013385214000000002,-0.0022792560000000003,0.0056461366,3.865,0,0
0.0008129842000000001,0.0006818534000000001,0.0004018574000000003,-0.004623596000000001,0.0027579946,3.866,0,0
0.0023800916,0.00030534340000000005,-0.0005514179999999998,-0.0066192360000000006,-0.0004753254000000001,3.867,0,0
0.004518894000000001,0.0005861394,-0.0021690579999999998,-0.008499006,-0.0032332460000000004,3.868,0,0
0.00644473,0.0024547474000000003,-0.00379859,-0.010142010000000002,-0.008568672,3.869,0,0
0.007900414,0.0062056174,-0.004208024,-0.01080382,-0.018103262000000002,3.87,0,0
0.00868789,0.007190882000000001,-0.004042978,-0.009737796000000002,-0.02679844,3.871,0,0
0.007462029999999999,0.0023449120000000006,-0.003682044,-0.006726836,-0.030075200000000007,3.872,0,0
0.004632768,-0.003942009999999999,-0.0022864480000000004,-0.0022600979999999994,-0.028407606000000002,3.873,0,0
0.0016568520000000003,-0.008465572000000001,-0.000548394,0.0033634820000000005,-0.020992842,3.874,0,0
-0.001186202,-0.011807284000000001,0.0005775560000000001,0.008771634,-0.009185682,3.875,0,0
-0.004562338,-0.012414616,0.00204557,0.012815998000000002,0.0012852779999999995,3.876,0,0
-0.006557670000000001,-0.008500664000000002,0.003826504,0.015407178,0.007675998000000001,3.877,0,0
-0.006659806000000001,-0.00314455,0.004234418,0.016565720000000003,0.011476924000000001,3.878,0,0
-0.006762996,0.000824484,0.0038983900000000003,0.01576382,0.013714340000000002,3.879,0,0
-0.00659441,0.002064076,0.0038257200000000003,0.01363146,0.013511120000000001,3.88,0,0
-0.005326998,0.0017215360000000003,0.0028301538,0.01073382,0.012071612000000002,3.881,0,0
-0.00354791,0.0013246930000000003,0.0007290138000000001,0.005704212000000001,0.007905548000000002,3.882,0,0
-0.002722932,0.00056531162,-0.0004024021999999999,-0.0006077279999999997,-0.0005091919999999995,3.883,0,0
-0.0014613480000000001,0.0003942436200000001,-0.0012486901999999999,-0.0069916480000000005,-0.009637172,3.884,0,0
0.0006552060000000002,0.00080644362,-0.0026826702,-0.013288608000000002,-0.017753432,3.885,0,0
0.001878022,0.0012741756200000001,-0.0031984780000000003,-0.017803548000000002,-0.023034383999999998,3.886,0,0
0.002173272,0.0018171486200000001,-0.002865726,-0.01879636,-0.021111992,3.887,0,0
0.0021865093199999997,0.00225653,-0.003059638,-0.01650258,-0.011927312000000002,3.888,0,0
0.00145296532,0.00256323,-0.00399122,-0.012187868000000003,-0.0016124120000000006,3.889,0,0
-0.0002469326800000001,0.002637318,-0.004702426000000001,-0.006247858,0.007895108000000001,3.89,0,0
-0.00129093868,0.0026114520000000002,-0.005447762000000001,-0.0001586780000000002,0.016542348,3.891,0,0
-0.0019572706800000004,0.0027165680000000004,-0.005753952,0.004443922,0.021086320000000002,3.892,0,0
-0.00311042,0.0023939386,-0.004387928,0.007878122,0.0212235,3.893,0,0
-0.004119632,0.0010422346000000002,-0.0013780759999999996,0.01063531,0.019961820000000005,3.894,0,0
-0.004226372,-0.0003892453999999999,0.0022503060000000005,0.01239894,0.01923686,3.895,0,0
-0.004064918,-0.000938604,0.005641462,0.013430120000000002,0.018304400000000002,3.896,0,0
-0.0035437243999999995,-0.0011973265999999998,0.007906132,0.01417284,0.01712522,3.897,0,0
-0.0015507323999999997,-0.0014258983999999998,0.007533384000000001,0.01368768,0.0175148,3.898,0,0
0.0008900136000000001,-0.0009581503999999999,0.005514956,0.011093168,0.01818884,3.899,0,0
0.0026910896,-0.00011813340000000006,0.0032082560000000005,0.007415952,0.01711238,3.9,0,0
0.0040211356000000005,0.0006509632,0.00018970399999999996,0.0038503599999999997,0.016224179999999998,3.901,0,0
0.004436768,0.0012475018,-0.002379984,0.0008532425999999999,0.01526876,3.902,0,0
0.002675576,0.0006390149999999999,-0.003056454,-0.0010935866,0.012511332,3.903,0,0
0.0004016959999999998,-0.000752127,-0.003192828,-0.0026262346,0.007968328,3.904,0,0
-0.0012262740000000003,-0.0015617800000000002,-0.0036969780000000005,-0.0045235586,0.0009838680000000006,3.905,0,0
-0.00327631,-0.0023934820000000006,-0.0030264474,-0.007524626600000001,-0.010871972,3.906,0,0
-0.004646052,-0.0033461962000000006,-0.0015250134000000001,-0.0114411892,-0.026132512000000004,3.907,0,0
-0.00316839,-0.0020226782000000005,-0.0010578928000000002,-0.014854060000000002,-0.040716644,3.908,0,0
-6.968800000000004e-05,0.0004087998000000001,-0.0007177348000000001,-0.01588084,-0.05119726,3.909,0,0
0.0027434619999999995,0.0016961438,0.0018668552,-0.013750928,-0.05282878,3.91,0,0
0.006660642,0.0028535958000000003,0.005497456600000001,-0.009336056,-0.044870158,3.911,0,0
0.01021232,0.0034212500000000002,0.0079778246,-0.004055784,-0.030980032,3.912,0,0
0.011426324,0.0028418166000000003,0.010227492000000001,0.0007543540000000005,-0.016020138000000003,3.913,0,0
0.011592154,0.0019645124,0.012006266,0.004752788,-0.0033015499999999995,3.914,0,0
0.011480194,0.0010146524000000001,0.011432926000000001,0.006695678,0.00560451,3.915,0,0
0.009175924,-0.0005311896,0.010028306,0.006504424,0.011281168000000001,3.916,0,0
0.005616594000000001,-0.0016484676,0.008534536,0.006297202,0.017860762,3.917,0,0
0.0056535760000000004,-0.0018772241999999999,0.003296916000000001,0.007279524,0.029486168,3.918,0,0
0.007376996000000001,-0.002066836,-0.004463464,0.00830613,0.044052600000000004,3.919,0,0
0.0062274900000000005,-0.0020037320000000003,-0.010138750000000002,0.008691654,0.055227580000000005,3.92,0,0
0.003912334000000001,-0.0013427054000000004,-0.013676090000000002,0.009680696,0.06134922,3.921,0,0
0.0013360240000000008,-0.00034929940000000005,-0.014988351600000002,0.009350488000000002,0.05972356,3.922,0,0
-0.0056398920000000005,0.0001442746,-0.0104298736,0.0041978480000000006,0.043728800000000005,3.923,0,0
-0.014634072000000001,0.00035557899999999996,-0.0016425736000000002,-0.0037280919999999993,0.01835954,3.924,0,0
-0.019507866000000002,0.000879343,0.004496106400000001,-0.011224318,-0.005328900000000003,3.925,0,0
-0.020791160000000003,0.0018084044000000001,0.007716810400000001,-0.018754978,-0.025783720000000003,3.926,0,0
-0.02009016,0.0023759564,0.009944622,-0.024004320000000003,-0.03983486000000001,3.927,0,0
-0.017059480000000002,0.0015231724000000003,0.009298044,-0.023049588,-0.04125522,3.928,0,0
-0.012570784000000002,0.00097948,0.006467300000000001,-0.017150526,-0.03661242,3.929,0,0
-0.008834862,0.0008562746000000002,0.004030038,-0.009396518000000001,-0.035672260000000004,3.93,0,0
-0.004452858,-0.0012010414,-0.0034822860000000002,-0.001605838,-0.03843490000000001,3.931,0,0
0.001724522,-0.0031459274,-0.018936086,0.004408552,-0.04509358000000001,3.932,0,0
0.006506462,-0.0032246094,-0.033014126,0.00786121,-0.0547324,3.933,0,0
0.008688308,-0.0039497734,-0.04214578200000001,0.009329088000000001,-0.05951842,3.934,0,0
0.009077225800000002,-0.004982014,-0.04753114,0.01065118,-0.05177384200000001,3.935,0,0
0.006368023800000001,-0.0037144702,-0.04332785000000001,0.014231800000000001,-0.030200642000000003,3.936,0,0
0.0010675898000000001,-0.0017805822,-0.026564630000000002,0.02019675,-0.0005062220000000006,3.937,0,0
-0.004146550200000001,-0.00115016582,-0.00400025,0.0261338,0.029947138000000005,3.938,0,0
-0.008404592200000002,-0.00011162982000000008,0.017889870000000002,0.030252419999999995,0.05627013800000001,3.939,0,0
-0.010635672000000002,0.00152784418,0.035666569999999995,0.031209599999999997,0.07159272,3.94,0,0
-0.011622734,0.00161588838,0.044694540000000005,0.026596744000000002,0.07157546000000002,3.941,0,0
-0.0129306,0.00073626618,0.042965569999999995,0.016174644000000002,0.06183636000000001,3.942,0,0
-0.01366574,0.00073730816,0.033262688,0.003730204,0.04886238,3.943,0,0
-0.012468508,0.0005190981600000002,0.020583049,-0.007437856,0.03676432,3.944,0,0
-0.0104468122,-0.0006862818400000001,0.008416644999999999,-0.015792755999999998,0.0285479,3.945,0,0
-0.0084710022,-0.0015210638400000001,0.00044813099999999994,-0.02161642,0.021500224000000002,3.946,0,0
-0.005356202200000001,-0.00171204564,-0.001314647,-0.027175480000000002,0.008501444,3.947,0,0
0.0005313578000000004,-0.0012241379999999996,-0.0005642150000000001,-0.032123280000000004,-0.010106116000000002,3.948,0,0
0.010236065800000001,0.0003592920000000001,0.0003460920000000001,-0.03269254,-0.027505756000000003,3.949,0,0
0.020868950000000004,0.0029755400000000005,0.0018722320000000001,-0.028145676,-0.042371456,3.95,0,0
0.0320174,0.006005674000000001,0.0033391280000000002,-0.020699695999999997,-0.04998884000000001,3.951,0,0
0.04383972,0.008374202,0.004589592,-0.009642376000000001,-0.043265894,3.952,0,0
0.05231208000000001,0.009636378000000001,0.005500298,0.0023797040000000007,-0.028269574000000006,3.953,0,0
0.05386764000000001,0.009410782,0.00524669,0.008078562000000001,-0.015401792000000001,3.954,0,0
0.04905302,0.007222102000000001,0.004112088,0.0051100780000000005,-0.00547439,3.955,0,0
0.039035034,0.0034625060000000006,0.002518772,-0.001075642,0.0010039379999999998,3.956,0,0
0.024171094000000004,-8.193999999999996e-06,0.00017667399999999982,-0.0062794420000000005,0.0027258200000000003,3.957,0,0
0.008845774,-0.002393506,-0.0023587040000000005,-0.010702742000000001,0.00618136,3.958,0,0
-0.005917706000000001,-0.004297528,-0.004647764,-0.01259501,0.009283158,3.959,0,0
-0.019053146,-0.004765966000000001,-0.007054958,-0.011033926000000001,0.0055000360000000015,3.96,0,0
-0.02750134,-0.003848712,-0.009605404000000001,-0.006853904000000001,-0.0010281319999999993,3.961,0,0
-0.03201796,-0.0030348040000000003,-0.012210962,8.735599999999937e-05,-0.007985560000000001,3.962,0,0
-0.03381604,-0.002747324,-0.01409958,0.010568715999999999,-0.01637782,3.963,0,0
-0.03250084,-0.0026046380000000003,-0.014068992,0.021812046,-0.02169411,3.964,0,0
-0.028916540000000004,-0.003136278,-0.010817332,0.030167502,-0.019987264,3.965,0,0
-0.025216440000000003,-0.0036705640000000003,-0.004679032,0.034781240000000005,-0.014384832000000002,3.966,0,0
-0.01950386,-0.00263175,0.0016770280000000001,0.03323924,-0.006566024,3.967,0,0
-0.0133286674,-0.00024724199999999995,0.005568336000000001,0.025975460000000006,0.005563656,3.968,0,0
-0.009655845,0.0031159960000000002,0.006974836000000002,0.01872238,0.021454186,3.969,0,0
-0.004703739,0.006351314,0.005747678000000002,0.014053780000000002,0.0383575,3.97,0,0
0.0018464610000000002,0.008390328,0.000366978,0.009874772,0.056482188,3.971,0,0
0.005819361,0.006900808,-0.006889522,0.0069776992000000005,0.07259194000000001,3.972,0,0
0.006654426400000001,0.0023059680000000003,-0.01306237,0.003847759200000001,0.07552462,3.973,0,0
0.0055254020000000004,-0.0018787579999999995,-0.015712818000000003,-0.004474040800000001,0.062193064000000006,3.974,0,0
0.0030599119999999997,-0.005662846,-0.012992360000000001,-0.015283920800000001,0.040385024000000005,3.975,0,0
0.0003975456,-0.008620932,-0.0056848,-0.0244701928,0.010302423999999998,3.976,0,0
-0.0015357692000000005,-0.008683963999999999,0.00290624,-0.032462340000000006,-0.025825156000000002,3.977,0,0
-0.0025851640000000005,-0.006910207999999999,0.010122814000000003,-0.037613480000000005,-0.054466996000000004,3.978,0,0
-0.0020139400000000005,-0.005829805999999999,0.014625612000000003,-0.037097220000000014,-0.06876326,3.979,0,0
-0.0005401960000000001,-0.0042959208,0.015026212000000004,-0.031161080000000004,-0.06949606,3.98,0,0
-0.0005710128,-0.0026507562000000007,0.011777198000000001,-0.022503110000000003,-0.060201779999999996,3.981,0,0
-0.001968894,-0.0017875478,0.006436473999999999,-0.013690002000000001,-0.04391646,3.982,0,0
-0.0033461912,-0.0001648518000000001,0.0025740600000000004,-0.005069820000000001,-0.026269011999999998,3.983,0,0
-0.0041220112,0.0016576662,0.00021759399999999967,0.0010697619999999997,-0.018249252,3.984,0,0
-0.0044166446,0.002888671,-0.0028387160000000007,0.0010938419999999998,-0.024847472000000002,3.985,0,0
-0.0033195954000000004,0.0040206044,-0.004638964000000001,-0.001564508,-0.035107752000000006,3.986,0,0
0.00020868060000000035,0.00452745,-0.0034610841999999998,-0.002778954,-0.040584732000000005,3.987,0,0
0.004419414600000001,0.0028483499999999995,-0.0016869063999999999,-0.0027588480000000004,-0.043033180000000004,3.988,0,0
0.0070898626,0.00023753399999999953,-0.0009623094000000001,0.0005656499999999991,-0.03755926080000001,3.989,0,0
0.006854584000000001,-0.0011287946,0.00020462859999999998,0.0074017300000000005,-0.024777676800000002,3.99,0,0
0.004053982000000001,-0.0014953806000000004,0.0012330506,0.01472623,-0.0114081048,3.991,0,0
0.0009176780000000005,-0.0013831166000000006,0.0018774208000000001,0.021174288,-0.0009501447999999998,3.992,0,0
-0.00233817,0.0005395614,0.003113955,0.02537102,0.0053950752,3.993,0,0
-0.00642616,0.0028415014000000003,0.004423580000000001,0.027284520000000003,0.011716756000000002,3.994,0,0
-0.009887308,0.0025232280000000006,0.005130062,0.02839076,0.022188472,3.995,0,0
-0.009620604000000001,0.0014505660000000004,0.006366602,0.028189420000000003,0.035264260000000006,3.996,0,0
-0.00614086,0.000434908,0.007931916,0.026314680000000003,0.048139100000000004,3.997,0,0
-0.0007806320000000007,-0.00154709,0.007645646000000001,0.024074240000000004,0.06139306,3.998,0,0
0.007458947999999999,-0.002743324,0.0067448379999999995,0.02123776,0.07481554000000001,3.999,0,0
0.015411488000000001,-0.0020360739999999997,0.006063015999999999,0.017366012000000004,0.08584692000000001,4.0,0,0
0.01903178,-0.0010824920000000002,0.003246942,0.013457042,0.09062282,4.001,0,0
0.015914318,-0.0003070640000000001,-0.0003674479999999998,0.008983148000000002,0.08704642,4.002,0,0
0.005922917999999998,0.00026046399999999996,-0.0018530019999999999,0.003944957999999999,0.07630344,4.003,0,0
-0.007279422,-7.300199999999996e-05,-0.0031187180000000004,0.0005826519999999995,0.060707599999999994,4.004,0,0
-0.019009482,-0.000637132,-0.005427376,-0.0012139898000000002,0.043474660000000005,4.005,0,0
-0.027141922000000002,-0.0010753264,-0.005959496000000001,-0.005121859800000001,0.02337024,4.006,0,0
-0.029731560000000004,-0.0005449643999999999,-0.004948142,-0.0110056058,6.450000000000032e-05,4.007,0,0
-0.02420152,0.0010836656000000004,-0.004784142,-0.0176431358,-0.02518252,4.008,0,0
-0.0130314,0.0030226196000000005,-0.00427342,-0.027717569800000005,-0.055765180000000004,4.009,0,0
0.0011473800000000008,0.004634249600000001,-0.0024584152000000008,-0.039469580000000004,-0.08744404000000001,4.01,0,0
0.017564160000000002,0.005886078,-0.0009911412,-0.04719074000000001,-0.10967736,4.011,0,0
0.03389952,0.006638288,-0.0006734261999999998,-0.04884862,-0.11700422,4.012,0,0
0.0466425,0.00647226,8.18898e-05,-0.04481782000000001,-0.10826261999999999,4.013,0,0
0.05112804,0.005491278,0.0013039378,-0.035393834000000006,-0.08552773999999999,4.014,0,0
0.046169446,0.0038483719999999996,0.001159803,-0.023858591400000004,-0.059096542,4.015,0,0
0.033584466,0.001745294,0.000663257,-0.0141923434,-0.038567702,4.016,0,0
0.016337486000000002,-0.0018673360000000003,0.001455368,-0.007421483400000001,-0.023312042000000005,4.017,0,0
0.0010458860000000006,-0.0052537980000000005,0.0017649560000000003,-0.0024933314000000002,-0.009459381999999999,4.018,0,0
-0.007963814000000001,-0.006638948,0.0007876720000000001,0.0017956625999999997,0.002946278000000002,4.019,0,0
-0.010681316,-0.00680469,0.00048673799999999985,0.0067170400000000005,0.014609400000000002,4.02,0,0
-0.008636369999999999,-0.005512694,-0.0002798239999999999,0.013149572000000002,0.031428040000000004,4.021,0,0
-0.006627890000000001,-0.002784374,-0.002847514,0.021832572,0.05385048,4.022,0,0
-0.00963537,0.00030829800000000014,-0.004747038,0.033867520000000005,0.07770624,4.023,0,0
-0.01557433,0.0021195940000000003,-0.005027190000000001,0.0479469,0.10098870000000001,4.024,0,0
-0.020907654,0.002636672,-0.004885856000000001,0.060583460000000006,0.12038998000000001,4.025,0,0
-0.02636284,0.00261587,-0.0031683060000000005,0.0676347,0.12505268,4.026,0,0
-0.02991656,0.002306582,0.00011549400000000006,0.06749198,0.10730542600000001,4.027,0,0
-0.02857254,0.00186263,0.002335058,0.05777106,0.070693446,4.028,0,0
-0.024488039999999996,0.00108585,0.0037172040000000004,0.03827008,0.024680446,4.029,0,0
-0.02173396,-7.078800000000001e-05,0.004699656,0.01756408,-0.014743254,4.03,0,0
-0.020484540000000002,-0.0008583460000000003,0.003289816000000001,0.0038383559999999976,-0.031956988000000006,4.031,0,0
-0.020214879999999998,-0.0002320400000000003,-0.00039824399999999964,-0.002543716,-0.026738954000000002,4.032,0,0
-0.02145666,0.0009656799999999999,-0.003942256,-0.004070084,-0.011406214000000005,4.033,0,0
-0.02288332,0.0010140041999999998,-0.007160386,-0.0020779908000000003,0.005717845999999998,4.034,0,0
-0.02306894,-0.0004150778000000001,-0.010086298,-0.0039783908,0.008336785999999999,4.035,0,0
-0.019450102000000004,-0.0023136618,-0.010142162000000001,-0.0172615868,-0.019543260000000003,4.036,0,0
-0.008901942,-0.0035363038000000005,-0.006744562000000001,-0.039073494800000004,-0.06882474000000001,4.037,0,0
0.008470498,-0.0042220218,-0.002381386,-0.0634198068,-0.1226435,4.038,0,0
0.031659798,-0.0036816,0.001867682,-0.08668276,-0.17131816,4.039,0,0
0.05881433800000001,-0.0008529220000000003,0.006165362000000001,-0.10193632,-0.20068060000000001,4.04,0,0
0.07891982,0.0027019360000000003,0.008183924,-0.10097766,-0.1962288,4.041,0,0
0.08443532,0.003692188,0.006444828,-0.08638486000000001,-0.16275298,4.042,0,0
0.07823704,0.0005134060000000005,0.0033108880000000005,-0.065485582,-0.115057694,4.043,0,0
0.06096586600000001,-0.0037211959999999995,-0.00156556,-0.0421229444,-0.06435469399999999,4.044,0,0
0.035877892,-0.007223733999999999,-0.0079709,-0.020796166399999996,-0.017767474,4.045,0,0
0.011792212000000002,-0.011520751999999999,-0.01004361,-0.0041705664,0.021388946000000002,4.046,0,0
-0.005951228000000001,-0.013546414,-0.006117454,0.0097302736,0.052843326,4.047,0,0
-0.019586368000000003,-0.011586197999999999,-0.0012492100000000002,0.0239814556,0.07980484000000002,4.048,0,0
-0.030708074000000005,-0.009655224,0.0035162279999999997,0.040170217999999994,0.10534664,4.049,0,0
-0.04035184,-0.008500664000000002,0.00852497,0.05686862,0.12658042000000003,4.05,0,0
-0.04848826,-0.006505578000000001,0.008294664,0.06918014,0.1375666,4.051,0,0
-0.056845900000000005,-0.005880080000000001,0.0033066199999999997,0.07368972000000001,0.1374086,4.052,0,0
-0.06915080000000001,-0.008561216,0.0008151219999999999,0.0713895,0.12845792,4.053,0,0
-0.07716458000000001,-0.010118170000000001,0.0036084639999999996,0.06435292000000001,0.1147432,4.054,0,0
-0.06831564000000001,-0.006179206000000001,0.006542822,0.05504482,0.10221960000000001,4.055,0,0
-0.04501236,0.0022736279999999998,0.007411101999999999,0.04707846,0.09456372000000002,4.056,0,0
-0.016295239999999996,0.012739143999999999,0.010066872000000001,0.04307092000000001,0.09504672,4.057,0,0
0.013997440000000002,0.025079684,0.0089861288,0.041057640000000006,0.103142,4.058,0,0
0.03097522,0.036716064,0.0005512887999999999,0.03670484,0.10675292000000002,4.059,0,0
0.025498800000000002,0.04209158,-0.0044177392,0.029578988000000004,0.09691978000000001,4.06,0,0
0.010323140000000003,0.04007502,-0.0017922831999999996,0.017940208000000003,0.0715875,4.061,0,0
-0.0008409400000000005,0.03079966,0.00040883080000000006,-0.003521692,0.02221770000000001,4.062,0,0
-0.0011549000000000004,0.018597540000000003,0.0037753920000000002,-0.031774052000000004,-0.0487195,4.063,0,0
0.013122280000000002,0.007733700000000001,0.009213816000000001,-0.056572072000000015,-0.11553970000000001,4.064,0,0
0.03621516,-0.00536306,0.008347104000000001,-0.07382018000000001,-0.16127916,4.065,0,0
0.05717958000000001,-0.01834226,0.0013407840000000011,-0.08191714000000001,-0.1851432,4.066,0,0
0.06881352,-0.0236812,-0.007896016,-0.07562478000000002,-0.17847080000000004,4.067,0,0
0.06450788,-0.02453036,-0.017484996000000003,-0.05709971400000001,-0.14260036,4.068,0,0
