bandpass 1,bandpass 2,bandpass 3,bandpass 4,bandpass 5,time,onset,mark
-6.725079999999998e-05,-0.006649014,-0.0015953160000000003,-0.001229914,-0.0001316574,4.044,0,0
0.0005474392000000001,-0.006666174,-0.0018819740000000002,-0.000718116,-5.697040000000002e-05,4.045,0,0
0.0021752432000000004,-0.006282635999999999,-0.0024586200000000003,-0.0006829597999999999,-8.79786e-05,4.046,0,0
0.0029068676000000002,-0.003386676,-0.001750396,0.0006383302000000001,0.0003022928,4.047,0,0
0.0030932838000000003,-0.00020671199999999985,-0.0006183359999999999,0.0016725562,0.0007136381999999999,4.048,0,0
0.0037441940000000006,0.0018654260000000003,-0.0009538626,0.0007512601999999999,0.0006704502,4.049,0,0
0.0028004600000000003,0.0022985980000000002,-0.0008550812,-6.73378000000001e-05,0.0007075808000000001,4.05,0,0
0.0007400540000000002,0.00258209,0.00013795879999999998,8.575919999999988e-05,0.0005661958000000001,4.051,0,0
0.00017422779999999994,0.002463832,0.00022518280000000002,-0.0005564548000000001,0.0003632408,4.052,0,0
-0.0004531762,0.00028129999999999995,0.00011455419999999999,-0.0012795588000000001,0.0004114022,4.053,0,0
-0.0012555202,-0.001325022,0.0008351367999999999,-0.000849834,0.00041750620000000007,4.054,0,0
-0.00013418420000000004,-0.000809896,0.0015526693999999997,-0.0013120879999999999,0.00031622294000000005,4.055,0,0
0.0011919618,-0.0013305079999999998,0.0018810594000000002,-0.0026926792000000004,0.0003312347400000001,4.056,0,0
0.001366878,-0.0013841356,0.0024682754,-0.0028053792000000007,0.00026717374000000013,4.057,0,0
0.001842724,0.0009726244000000002,0.0022841752,-0.0025833452000000004,0.00028459694000000006,4.058,0,0
0.0026307960000000003,0.0024447623999999998,0.0015178202,-0.0030053360000000004,0.00044172694,4.059,0,0
0.002080478,0.0021226824,0.0012991862000000002,-0.0021309650000000003,0.0006572946000000001,4.06,0,0
0.0007016180000000002,0.0027483584,0.0011416301999999999,-0.00021767299999999993,0.000997099,4.061,0,0
-0.0002636139999999999,0.003094148,0.0008483863999999999,0.0005013210000000002,0.0011203244,4.062,0,0
-0.000991618,0.00297208,1.0013199999999865e-05,0.0009789030000000002,0.0010654774000000001,4.063,0,0
-0.0022644600000000003,0.003907282000000001,-0.0012005218000000002,0.002481947,0.0011222154000000001,4.064,0,0
-0.003674442,0.0038650460000000005,-0.001367842,0.003101284,0.0013915754,4.065,0,0
-0.003915976000000001,0.0029963444000000003,-0.000646022,0.002224516,0.001251353,4.066,0,0
-0.003807464,0.0025767947999999997,0.0004908338,0.002213924,0.00114818424,4.067,0,0
-0.0038430840000000005,0.0017029640000000002,0.0016711918,0.002201804,0.00119300124,4.068,0,0
-0.003076988,-0.0006150159999999999,0.0022690618000000004,0.00043894600000000006,0.00067447464,4.069,0,0
-0.0018433974000000002,-0.002078692,0.0020144622000000004,-0.0008202180000000002,0.00013047444000000003,4.07,0,0
-0.0006801594,-0.0016049364,0.00022219219999999987,-0.0006990682000000001,-0.00018290416,4.071,0,0
0.0008916246,-0.0015872364,-0.0018803138,-0.0014780742000000003,-0.00048161480000000006,4.072,0,0
0.0024155625999999998,-0.0015716507999999998,-0.0025992458000000003,-0.0025154022000000004,-0.0008966308000000001,4.073,0,0
0.0027708106,0.00010798719999999989,-0.0024305378000000002,-0.0016308280000000002,-0.0013452682,4.074,0,0
0.002953242,0.0018105691999999998,-0.002696596,-0.0010005348,-0.0014643164000000001,4.075,0,0
0.0029196400000000003,0.0018184531999999999,-0.002286691,-0.0011736746000000002,-0.0009384944000000001,4.076,0,0
0.0017963174,0.0023052528,-0.0005338329999999998,0.0002607654000000002,-0.0004875140000000001,4.077,0,0
0.0009720340000000001,0.0028772420000000003,0.000777573,0.0020226274,-0.0003100906,4.078,0,0
0.00100847,0.001716574,0.002051537,0.0021422152,5.9797599999999985e-05,4.079,0,0
0.000895893,0.0004604800000000001,0.003438903,0.00251686,0.00012321600000000002,4.08,0,0
0.0003018062,-0.0003048739999999999,0.004409042,0.0036527960000000003,4.651300000000001e-05,4.081,0,0
-0.00027122120000000005,-0.00175122,0.004793650000000001,0.003030918,8.936399999999998e-06,4.082,0,0
-0.0015345358,-0.0034707460000000002,0.004127492000000001,0.0019354944,2.188300000000005e-05,4.083,0,0
-0.0031301558,-0.003942154000000001,0.002116522,0.0020074504,0.00020765860000000004,4.084,0,0
-0.0036423148,-0.003971384,-0.0006336579999999998,0.0016370475999999998,0.00011368779999999999,4.085,0,0
-0.0032990384,-0.0041845860000000006,-0.0023994719999999997,0.0003376896,-0.0002176992,4.086,0,0
-0.0024992633999999995,-0.0035908080000000005,-0.003579127,-0.0002488644,-0.0003195784,4.087,0,0
-0.0015671242,-0.0022822873600000003,-0.004348913,-0.0003640714,-0.0003227114,4.088,0,0
-0.0002442142,-0.0018424633600000002,-0.0036334609999999997,-0.0015945034,-0.0003491672,4.089,0,0
0.0014169518000000001,-0.0016379373600000002,-0.002347529,-0.0025109906,-0.00025760620000000003,4.09,0,0
0.0029146322000000004,-0.0002487533600000002,-0.001985213,-0.0025254466,-0.0005564542,4.091,0,0
0.0035749212000000005,-6.63947600000001e-05,-0.00230077,-0.0030641506,-0.0009529008000000001,4.092,0,0
0.0034070380000000003,-0.0012418773999999999,-0.0019025832000000003,-0.0033427140000000005,-0.0010687942,4.093,0,0
0.00285963,-0.0012284654,-0.0013872328000000002,-0.0018825680000000003,-0.0013355602,4.094,0,0
0.0015896188000000004,-0.001018124,-0.0012723628000000002,-0.0005352500000000002,-0.0012088335999999999,4.095,0,0
0.0006085948000000001,-0.0008383939999999999,-0.0010643368000000002,-0.0002568450000000001,-0.0006029945999999998,4.096,0,0
0.00042785680000000006,0.0016911614000000004,-0.0007501052,0.0012455469999999998,-0.00010362899999999994,4.097,0,0
0.0009415106,0.004821741400000001,-0.00039427799999999997,0.002540089,0.0004123734000000001,4.098,0,0
0.0016086216,0.005956457400000001,-0.0002940868,0.001713099,0.0010024334,4.099,0,0
0.0013354808,0.006289928000000001,0.0003677012,0.001086646,0.0013406386,4.1,0,0
0.0002241647999999999,0.0052702828000000005,0.0010863512,0.0012713732000000002,0.0014819396,4.101,0,0
-0.0006671412000000001,0.0019485468,0.0012307048,0.00023211320000000006,0.0014669632,4.102,0,0
-0.0009982160000000001,-0.0009643631999999999,0.0017270028,-0.0011997528,0.0009696565999999999,4.103,0,0
-0.0010840436,-0.0019513832000000002,0.0021276752000000004,-0.0014007788,0.00023775460000000006,4.104,0,0
-0.0004810036,-0.0026953692,0.0014468972,-0.0021921878000000002,-0.0004901074,4.105,0,0
8.582160000000002e-05,-0.003486772,0.0004561032,-0.003523124,-0.0010351914000000001,4.106,0,0
2.9367599999999966e-05,-0.0027581552,0.0001097874,-0.0037902440000000003,-0.0013619126,4.107,0,0
-0.0005305214000000001,-0.0010155992000000001,-0.00029679060000000005,-0.0035752400000000004,-0.0013599732,4.108,0,0
-0.0017109248000000002,0.0002552908000000001,-0.0009875006,-0.00342005,-0.0007333092,4.109,0,0
-0.0031948408000000003,0.0017965868000000002,-0.0009381666,-0.0024153602,9.564680000000007e-05,4.11,0,0
-0.003812114,0.0043120088,-0.00030730700000000004,-0.00018603819999999998,0.0007404788000000001,4.111,0,0
-0.003524366200000001,0.005832086,3.587880000000001e-05,0.0013751878000000002,0.0010633128000000001,4.112,0,0
-0.002692910000000001,0.005303466000000001,0.0007045508,0.0024832298000000003,0.001067479,4.113,0,0
-0.0004745760000000002,0.004635838,0.0015641848,0.0041849058,0.0008159746,4.114,0,0
0.00206587,0.003834124,0.0015675308,0.005041648000000001,0.00031186720000000014,4.115,0,0
0.0031241540000000005,0.00142682,0.0010681511999999999,0.0042289350000000005,-0.00013192319999999998,4.116,0,0
0.0030107334000000004,-0.0007424680000000001,0.0006353999999999999,0.0035883729999999997,-7.55466e-05,4.117,0,0
0.0027848722000000004,-0.0014004920000000004,-0.00044814520000000007,0.003376901,0.0005010164000000001,4.118,0,0
0.0017036712000000004,-0.0021821960000000004,-0.0011782462,0.0014910090000000002,0.0011946508,4.119,0,0
0.00014328620000000002,-0.002483742,-0.0006658122000000001,-0.000333263,0.0015823742000000002,4.12,0,0
-0.0004643840000000001,-0.001509258,-0.0003887376000000001,-0.0005925300000000001,0.0017659324000000004,4.121,0,0
-8.483180000000003e-05,-0.00134496,-0.00046518560000000005,-0.001437748,0.0015653760000000003,4.122,0,0
0.0005715692,-0.0023015400000000004,-0.0005233150000000001,-0.002710764,0.0007928679999999998,4.123,0,0
0.00052079036,-0.0027835360000000005,-0.0005036740000000001,-0.00216613814,-0.00029934,4.124,0,0
0.00038107536,-0.003397516,-0.0008618752000000001,-0.00121166734,-0.001245576,4.125,0,0
0.00039081836000000005,-0.004439266,-0.0013652138,-0.0011826179399999999,-0.0019337998000000002,4.126,0,0
-0.0003299670400000001,-0.0039376796,-0.0010210702,3.8292060000000186e-05,-0.002529356,4.127,0,0
-0.00137042104,-0.0021389475999999998,-0.0005969116000000001,0.00174331406,-0.002463738,4.128,0,0
-0.0018044752,-0.001001419,-2.2967600000000027e-05,0.0021104202,-0.0019358188,4.129,0,0
-0.0017861212,-2.9394999999999985e-05,0.0013049176000000003,0.0025050854,-0.0010239468,4.13,0,0
-0.0013939599999999999,0.001218533,0.0026692536,0.003526442,0.0004294032,4.131,0,0
-0.00038648,0.0012513570000000003,0.0032986020000000003,0.003340362,0.0015963892000000002,4.132,0,0
0.00048549400000000005,0.00038976699999999996,0.0031648080000000003,0.0024060929999999998,0.0019482210000000002,4.133,0,0
0.0009375060000000001,0.0003669029999999999,0.00266032478,0.002374401,0.0020011798,4.134,0,0
0.0010988906,0.0001477194,0.0016883467800000002,0.0016908445999999997,0.0016624526,4.135,0,0
0.0010316526,-0.0009598626000000001,0.0009104315800000001,-0.00011249939999999998,0.0005255005999999999,4.136,0,0
0.0007823526,-0.0010755350000000003,0.0005081755800000001,-0.0013499954000000002,-0.0002590314000000001,4.137,0,0
0.0008403946000000002,-0.000380311,0.00019435758,-0.0023412564,-0.00037285120000000007,4.138,0,0
0.0018053106000000003,-0.0003432588,-0.0004267952,-0.0041422764,-0.0005573624000000001,4.139,0,0
0.0024258160000000003,-0.0007225152,-0.0012832932,-0.005403688,-0.0005687598,4.14,0,0
0.002377728,7.081599999999997e-06,-0.0015605600000000003,-0.005397962000000001,-0.00022080640000000007,4.141,0,0
0.0026392160000000007,0.00034507280000000003,-0.002341526,-0.005574934,-0.00010172980000000003,4.142,0,0
0.0020997008,-0.0010066752000000001,-0.0022100488,-0.005144364,-0.00023656820000000003,4.143,0,0
0.0005984468,-0.0012018308000000001,-0.0014397322,-0.003164294,-2.6582200000000052e-05,4.144,0,0
4.697560000000002e-05,-0.00011439479999999992,-0.0029287762,-0.0013182139999999996,0.0003246144,4.145,0,0
-0.00017918225999999997,2.783840000000011e-05,-0.0039909782,-0.00017153999999999997,0.0005704050000000001,4.146,0,0
-0.00122701426,0.0003344592,-0.0025354822000000004,0.001702426,0.0008156338000000001,4.147,0,0
-0.0015763150600000002,0.0021994332000000003,-0.0010490734000000003,0.003334292,0.0005748262000000001,4.148,0,0
-0.0007690570599999998,0.0028983940000000003,-0.00019596200000000048,0.003166032,0.0001208594000000001,4.149,0,0
-0.00054081166,0.0029010900000000003,0.00238231,0.0029262752,-0.00039724859999999994,4.15,0,0
-0.0008852657999999998,0.003991066000000001,0.004454448,0.0028805712000000007,-0.0009970826,4.151,0,0
-0.0006230238000000001,0.003966428,0.0034452812,0.0013404992000000003,-0.0010669301999999999,4.152,0,0
-0.0005741178000000001,0.0028535860000000004,0.0023363452,-0.0005641847999999999,-0.0006881421999999999,4.153,0,0
-0.0013778018000000004,0.0021849912,0.0020441772000000004,-0.0011828228,-0.0003126624,4.154,0,0
-0.0018053980000000002,0.0008029391999999999,0.0014331820000000003,-0.002104478,-1.9120599999999967e-05,4.155,0,0
-0.0018605440000000002,-0.0022567908,0.0009520786000000001,-0.0034382600000000003,1.3133999999999932e-06,4.156,0,0
-0.0022647480000000005,-0.0043885928,0.0010142294,-0.0033363800000000003,-0.0003820904,4.157,0,0
-0.002418888,-0.0052150488,0.00046346340000000014,-0.0028552960000000002,-0.0006685444,4.158,0,0
-0.0020386804000000003,-0.005910826,-0.000412915,-0.003200568,-0.0011410902,4.159,0,0
-0.0019939624,-0.005208426,0.00041965220000000003,-0.002851212,-0.0014523640000000003,4.16,0,0
-0.0028162404000000004,-0.0030155959999999997,0.0015921356000000002,-0.0011359960000000002,-0.0010657826000000001,4.161,0,0
-0.0037069704,-0.0008857260000000001,0.0013235936000000003,-0.00013784600000000006,-0.0008664260000000001,4.162,0,0
-0.0046002784,0.0007115940000000001,0.0003039736000000001,0.0004363879999999999,-0.001030114,4.163,0,0
-0.005817872,0.001892734,-7.541999999999814e-06,0.0021884520000000005,-0.0008125972,4.164,0,0
-0.005970050000000001,0.00145805,-0.00030141999999999983,0.0036204340000000005,-0.0003187612,4.165,0,0
-0.003944690000000001,0.000342276,-0.002022474,0.003635626,-8.536660000000001e-05,4.166,0,0
-0.001188458,0.0005052940000000001,-0.0023409,0.0043099720000000005,0.0002497904000000001,4.167,0,0
0.001222076,0.000797866,-0.0012295131999999999,0.0053295120000000015,0.0008554098,4.168,0,0
0.0029539580000000005,-0.0004151939999999999,-0.0011788812000000002,0.0043683092,0.0009473450000000002,4.169,0,0
0.003354791,-0.0009066440000000001,-0.0015152474,0.0036561392,0.000550637,4.17,0,0
0.002745139,0.0003201660000000001,-0.0014310434000000005,0.0037539692000000007,0.000550415,4.171,0,0
0.0023223730000000004,0.00021943600000000005,-0.0017261954,0.0021023092,0.0005295622,4.172,0,0
0.002811411,-3.367999999999991e-05,-0.0026463262,-0.00015523080000000007,0.0002190348,4.173,0,0
0.0031905690000000003,0.001388158,-0.0027427282,-0.000949592,0.0002797848,4.174,0,0
0.003397582,0.0023373734000000004,-0.00305068,-0.001567436,0.0005514358,4.175,0,0
0.0028715900000000003,0.0005300354,-0.00336018,-0.002711318,0.0002952458,4.176,0,0
0.0014916839999999996,-0.0021148006,-0.0023027382,-0.0021181719999999998,0.0002736082,4.177,0,0
0.0013926280000000001,-0.0021798385999999997,-0.0010218262,-0.0001511799999999999,0.0007542382,4.178,0,0
0.0023870900000000006,-0.0011641045999999998,-0.0002224621999999999,0.00072072,0.000858875,4.179,0,0
0.0026733800000000004,-0.0002315059999999998,0.0009168878000000002,0.0012189706,0.0007987290000000001,4.18,0,0
0.0029197528000000006,0.002152966,0.0025072858,0.0023047786,0.0005788174,4.181,0,0
0.0031845228000000002,0.00459892,0.0031084960000000005,0.0024225866,0.00016410820000000012,4.182,0,0
0.0014590528,0.0039825814,0.0034336820000000004,0.0013873336000000001,-0.0003708158,4.183,0,0
-0.0005542572,0.002298507258,0.0035706440000000004,0.0013678156,-0.0006386724,4.184,0,0
-0.001179308,0.001088022058,0.00245946,0.0014699690000000002,-0.0004609654,4.185,0,0
-0.0009611737999999999,-0.0006794859420000001,0.0011734340000000001,0.0002794290000000001,0.0001705142000000001,4.186,0,0
-0.0006633284000000001,-0.0017159499420000002,0.00014280000000000006,-0.0005345349999999999,0.0007747902000000001,4.187,0,0
-0.00045507299999999996,-0.002020335342,-0.001598454,-0.00113107,0.0008331152000000001,4.188,0,0
0.00039381300000000013,-0.0020951004,-0.003052348,-0.002637546,0.000642159,4.189,0,0
0.0009397638000000002,-0.0017321332000000001,-0.003272812,-0.004277974,1.563700000000004e-05,4.19,0,0
0.0012109868,-0.0004534532,-0.0028638412,-0.004364706,-0.0005857314,4.191,0,0
0.0024663994000000003,0.0012356388000000001,-0.0019201672,-0.0043085680000000005,-0.0008449180000000001,4.192,0,0
0.0036628500000000005,0.0027295808,-0.0004142391999999999,-0.0043299440000000005,-0.0006886759799999999,4.193,0,0
0.0029389224,0.003482212,0.0013023727999999998,-0.002382238,2.7236020000000064e-05,4.194,0,0
0.0016567664,0.0029794139999999997,0.0022979368,-0.00041533,0.00084244202,4.195,0,0
0.0004200844000000002,0.002643804,0.002431966,0.000392034,0.00115230242,4.196,0,0
-0.0018578036,0.0023462220000000002,0.0023257440000000002,0.002020352,0.0013476870200000001,4.197,0,0
-0.0038767256000000003,0.0014521318,0.002795402,0.004300548,0.0015875680000000001,4.198,0,0
-0.004376484,0.0010144198000000002,0.003076832,0.004546484,0.0011221434,4.199,0,0
-0.004346112000000001,0.0017248258000000002,0.003416768,0.004532952000000001,0.0005924536,4.2,0,0
-0.0040375260000000005,0.0018211258,0.004532404,0.005227378000000001,0.00028070300000000004,4.201,0,0
-0.0020240780000000003,0.00021693980000000003,0.004742848000000001,0.00371982,-0.000225225,4.202,0,0
6.740199999999961e-05,-0.001143878,0.0036565540000000002,0.001365536,-0.0006691350000000001,4.203,0,0
0.0009575699999999999,-0.0014752834,0.0015176980000000007,0.00015233599999999999,-0.0007827964,4.204,0,0
0.0019334078,-0.0026101913999999997,-0.0010724760000000002,-0.0014697680000000002,-0.0008331864,4.205,0,0
0.0022015338,-0.0047882754,-0.003481618,-0.0038723940000000004,-0.0011557378,4.206,0,0
0.0008098837999999998,-0.0049515594,-0.004870832,-0.004858216,-0.0016005538,4.207,0,0
-0.0005806022,-0.0039029954,-0.00493749,-0.00530943,-0.0017045918000000004,4.208,0,0
-0.0009510546,-0.0037602056,-0.004413672,-0.006365728,-0.0016822278000000004,4.209,0,0
-0.0009400854000000001,-0.0026074736,-0.0032460600000000003,-0.005884162,-0.0021251580000000003,4.21,0,0
-0.0005404740000000001,-8.44959999999977e-06,-0.0022175280000000003,-0.003929736,-0.00218553,4.211,0,0
7.976279999999999e-05,0.0018624544,-0.0018667980000000002,-0.0021990879999999997,-0.0016413422,4.212,0,0
0.0007720308,0.0024219444,-0.0014565552000000003,-0.0007973139999999999,-0.0013747888,4.213,0,0
0.0010216172,0.003148636,-0.0004444171999999999,0.001200654,-0.0009714558000000002,4.214,0,0
0.0008633312,0.0035770380000000003,0.0004293988000000001,0.0025695320000000002,-0.00010837380000000004,4.215,0,0
0.0010650638,0.0029016702000000004,0.0005529530000000001,0.0022185072,0.0006613421999999999,4.216,0,0
0.0008514261999999999,0.0023958502000000002,0.0011378630000000002,0.0021768432,0.0011311884000000001,4.217,0,0
0.00012743219999999993,0.0020924184000000005,0.0019223922000000003,0.0024359852,0.0014882610000000003,4.218,0,0
0.0002501282,0.0010342024,0.0018658142,0.0017039324000000002,0.001660432,4.219,0,0
0.0006396932000000001,0.0006208084000000002,0.0016660560000000002,0.0009620518000000001,0.0015130184000000002,4.22,0,0
0.0004746282,0.0011078242000000002,0.0015323912000000002,0.0011431166000000002,0.0012984578000000003,4.221,0,0
0.001057195,0.0007110710000000001,0.0008284852000000002,0.0003980606,0.0012778658000000003,4.222,0,0
0.001880759,0.0003322468,-0.00032534480000000004,-0.0009577754000000001,0.0011057974,4.223,0,0
0.0018821550000000002,0.0006812948000000001,-0.0007215832000000001,-0.0008176334000000001,0.0005694490000000001,4.224,0,0
0.0014369212,-0.0004444572,-0.0007435450000000001,-0.0006048208000000001,0.00017037260000000006,4.225,0,0
0.00047568419999999994,-0.0029776452,-0.0005993102000000001,-0.0012138828000000002,-0.00011382379999999999,4.226,0,0
-0.0008739718000000001,-0.004061592,-0.0005473662,-0.0006396522000000001,-0.00033557560000000005,4.227,0,0
-0.0016991398000000002,-0.004011173999999999,-0.0019941062000000003,0.0012476978000000001,-0.0006343672000000001,4.228,0,0
-0.0023361518,-0.004491073999999999,-0.0027745738,0.0013775226,-0.0008641108000000001,4.229,0,0
-0.0029607100000000005,-0.00385228,-0.0016495418,0.0012333538000000002,-0.0005750354,4.23,0,0
-0.0023522652,-0.0012609759999999998,-0.00024073400000000026,0.0023979758,-0.000309742,4.231,0,0
-0.0014997553199999998,0.00029529600000000007,0.001474992,0.0021846850000000004,-0.0001524222,4.232,0,0
-0.00151413332,0.00036580200000000003,0.003879532,0.001033737,0.0003845318000000001,4.233,0,0
-0.00159134332,0.0007614140000000002,0.005271354000000001,0.0011429489999999999,0.0008882366000000001,4.234,0,0
-0.00098034972,0.0003563520000000001,0.004544626,0.0012837178,0.0009425932000000001,4.235,0,0
-0.00045411252000000004,-0.0011612600000000001,0.0029918118,0.00029149140000000003,0.0008502949000000001,4.236,0,0
-8.431839999999998e-05,-0.0015551232000000001,0.0014138485999999999,0.0003224776,0.00037156290000000007,4.237,0,0
0.0006001976,-0.0012197988,0.00045310859999999996,0.0005211268000000001,-0.0002725011,4.238,0,0
0.0010329996,-0.0019009028000000002,-0.0001444918,-0.0005464872,-0.0005003373,4.239,0,0
0.0011527024,-0.0021140208000000006,-0.0008871018,-0.0011115832,-0.0007816585,4.24,0,0
0.0007209910000000001,-0.0012575894000000003,-0.00085107634,-0.0008803665999999999,-0.0008583916,4.241,0,0
0.000414879,-0.0013940462000000002,-0.00053211354,-0.0013808646,-0.0004763754,4.242,0,0
0.0006471010000000001,-0.0020288406000000003,-0.0013429515400000002,-0.0021764038,-0.00025974860000000006,4.243,0,0
0.0008104570000000001,-0.0010409605999999998,-0.0029352391400000004,-0.0014453742,0.0002773208,4.244,0,0
0.00073254052,-4.269260000000003e-05,-0.00383085914,-0.0006609461999999998,0.0009691060000000001,4.245,0,0
0.00068630632,3.950560000000008e-05,-0.0038627896000000004,-0.0007357775999999998,0.0008942886000000001,4.246,0,0
0.00011797631999999991,0.0010877996000000002,-0.0034012212000000003,0.0004327384000000001,0.0007625668000000001,4.247,0,0
-0.00111936168,0.0026122676,-0.0019974192000000003,0.0022718404000000004,0.0008073316800000001,4.248,0,0
-0.0018380356800000001,0.0029036756,-6.821120000000011e-05,0.0023173492000000003,0.00027413508,4.249,0,0
-0.0021990736000000004,0.0025522836,0.0016882388,0.0015647232000000006,-0.00043871692000000003,4.25,0,0
-0.002611322,0.0025232274,0.00225391,0.0016832662000000004,-0.00063794252,4.251,0,0
-0.0030995399999999996,0.0008575334,0.0013696580000000002,0.0006726802000000002,-0.0008123509200000001,4.252,0,0
-0.002988032,-0.0016315706000000004,0.000750508,-0.0010148418,-0.0012883246000000002,4.253,0,0
-0.002023614,-0.0026690286000000006,0.00037599560000000005,-0.0013517922000000002,-0.001478738,4.254,0,0
-0.00091214,-0.0023873406000000006,-0.0006170544,-0.0021499882000000003,-0.0012200212000000002,4.255,0,0
0.00041393400000000013,-0.0007950520000000005,-0.0017807544,-0.003712008,-0.0009310910000000001,4.256,0,0
0.0016397360000000001,0.001824506,-0.0021644004,-0.004191996,-0.0007707375,4.257,0,0
0.001911906,0.004693774,-0.0018190384,-0.003950406,-0.00017194470000000001,4.258,0,0
0.002057278,0.006376576,-0.0018699702000000002,-0.0038737560000000003,0.0003855153,4.259,0,0
0.002402016,0.0069344,-0.001329997,-0.0026189720000000002,0.00035679276000000003,4.26,0,0
0.0018955100000000002,0.005560356,0.00022340900000000015,-0.0001824820000000001,0.0005758569600000001,4.261,0,0
0.0018634000000000003,0.0027109180000000005,0.0013684630000000003,0.0012663460000000002,0.0009924594600000001,4.262,0,0
0.0022857634000000003,0.0001891620000000001,0.001961261,0.0016876366,0.00132199866,4.263,0,0
0.0015646508,-0.0018666680000000001,0.0023585272,0.0025599566,0.00140884666,4.264,0,0
0.0005982926,-0.0031450140000000002,0.00198546,0.0028835546,0.0015425356,4.265,0,0
0.0005938106,-0.003807406,0.0004810359999999999,0.0015617725999999999,0.001563409,4.266,0,0
0.0005604494,-0.003082546,-0.000740904,0.0008502578,0.0011434327999999998,4.267,0,0
8.372599999999995e-05,-0.0018272934,-0.0012365638,0.0009843852,0.0008879448,4.268,1,1
0.00024218120000000002,-0.0014512214,-0.0013676432000000003,6.559719999999999e-05,0.0006573114,4.269,0,0
3.6858399999999965e-05,-0.0015572794,-0.0012017224000000003,-0.0007093248000000001,0.0003017161999999999,4.27,0,0
-0.0004194120000000001,-0.0015101654,-8.111239999999997e-05,-0.00030982860000000004,2.1665399999999977e-05,4.271,0,0
-6.031080000000011e-05,-0.0020708134,0.0016279616,-0.0006273477999999999,1.823789999999997e-05,4.272,0,0
0.0003240667999999999,-0.0029259620000000003,0.0016108546000000003,-0.0014895598000000002,-8.189570000000001e-05,4.273,0,0
0.0002609515999999999,-0.00223017,0.001085156,-0.0012205418,-5.173290000000006e-05,4.274,0,0
0.0003758507999999999,-0.0011214440000000003,0.0008249852000000002,-0.0007450437999999999,0.00048021110000000006,4.275,0,0
0.0005797145999999999,-0.00020046799999999998,7.515520000000005e-05,-0.001068622,0.0005244283000000001,4.276,0,0
3.858260000000001e-05,0.00170656,-0.00034499079999999994,-0.000362482,0.00013488600000000008,4.277,0,0
-0.000425397,0.003437158,-0.00017423799999999998,0.0016127520000000003,-0.00015603399999999994,4.278,0,0
-0.0006012844,0.0034480160000000004,0.000422491,0.002528394,-0.0007508394,4.279,0,0
-0.0005191298,0.003721156,0.001142129,0.0033250880000000003,-0.0015362874,4.28,0,0
-0.0008334852,0.0037358960000000007,0.001850463,0.0047934580000000004,-0.0016582196000000003,4.281,0,0
-0.0016203011999999998,0.0016270159999999998,0.001969945,0.0046395,-0.0013668084,4.282,0,0
-0.0011274408,0.001170412,0.0018911452000000002,0.0030402299999999997,-0.001248295,4.283,0,0
-0.000663959,0.003095052,0.0022417082,0.002483996,-0.0008985468000000001,4.284,0,0
-0.0007166032000000001,0.0030166100000000003,0.0019060752000000002,0.001822936,-0.0005541186000000001,4.285,0,0
0.00023572080000000003,0.002014054,0.0005784932000000002,0.00012418,-0.000209733,4.286,0,0
0.0013345328,0.002715216,-0.0006896488,-0.000480988,0.00034657380000000003,4.287,0,0
0.0012174172000000002,0.0016430899999999998,-0.001709123,-0.00043118400000000004,0.0006146808,4.288,0,0
0.0008791002000000002,-0.0018445900000000001,-0.002941443,-0.0015083359999999999,0.000654153,4.289,0,0
0.0006005876000000001,-0.0039917039999999996,-0.0034814520000000003,-0.002896184,0.00047158079999999993,4.29,0,0
-0.0005124124,-0.004136432000000001,-0.0028742040000000004,-0.002848714,9.139919999999992e-05,4.291,0,0
-0.0010581444000000001,-0.003985148,-0.002323734,-0.002936522,-0.00048806260000000003,4.292,0,0
-0.0006266991999999999,-0.0035121635999999998,-0.0016398822000000001,-0.003672094,-0.0011350594,4.293,0,0
-0.0005063188,-0.0015665295999999999,-0.0004633942000000001,-0.0021845199999999997,-0.0012616616,4.294,0,0
-0.00046501940000000003,0.00023306640000000023,0.0005893938000000002,-0.00011906599999999992,-0.0007244136,4.295,0,0
-0.0001608292,0.0006294494000000002,0.0012624738000000001,0.0006805699999999999,-0.0001330415999999999,4.296,0,0
-0.00048719120000000006,0.0014998914000000003,0.0017525078000000002,0.0021921320000000003,0.0002508322,4.297,0,0
-0.0014669552,0.0026645210000000004,0.0016801000000000003,0.00405001,0.0007211945,4.298,0,0
-0.0015873540000000002,0.0025418389999999997,0.0011182734000000003,0.0032541726,0.0007670293,4.299,0,0
-0.0013360460000000002,0.0020269666,0.0011022474,0.0022290658,0.00041305390000000007,4.3,0,0
-0.0014884222000000002,0.0017828976000000003,0.0012483294,0.0029584398,8.927649999999997e-05,4.301,0,0
-0.0007826380000000001,0.0006806936,0.0006418026,0.0021859516,1.8393000000000283e-06,4.302,0,0
1.7977999999999983e-06,-0.0014119144,0.0002465646,0.0012356276,-0.00014435659999999999,4.303,0,0
-0.00012234460000000002,-0.0027833244,0.00023472999999999994,0.0010988366,-0.0002458416,4.304,0,0
9.699999999999965e-06,-0.0037233020000000004,-0.0010550400000000001,0.0015350574,-0.0003650321999999999,4.305,0,0
0.0006924139999999999,-0.004305118,-0.0016895846,-0.0006983086,-0.00044398079999999996,4.306,0,0
0.0004020857999999999,-0.00483249,-0.0019382398000000003,-0.0010292069999999999,0.0006371524000000001,4.307,0,0
0.00026913119999999994,-0.003385096,-0.0014932898000000001,0.005388171000000001,0.0020185520000000003,4.308,0,0
0.0009600611999999999,0.0014537220000000002,0.0023560894000000006,0.0097672494,0.002968324,4.309,0,0
0.0010830392000000001,0.005201982000000001,0.006100207400000001,0.0100153214,0.003712152,4.31,0,0
0.0018918972,0.0059479120000000005,0.0066180760000000005,0.008924551400000001,0.0038084648,4.311,0,0
0.0037706172000000005,0.004824054000000001,0.006152590000000001,0.0030457320000000006,0.0022987768,4.312,0,0
0.00549092,0.00104083,0.0042268240000000006,-0.009995108,0.00026390880000000004,4.313,0,0
0.006476166000000001,-0.00757875,-0.0019302160000000002,-0.021941068,-0.0013872072000000002,4.314,0,0
0.006564838000000001,-0.01617543,-0.007813056,-0.02975334,-0.0032323492000000003,4.315,0,0
0.004543922000000001,-0.019900019999999997,-0.011329888,-0.03232226,-0.004713252,4.316,0,0
0.0013530219999999997,-0.01934267,-0.013652420000000002,-0.027598762000000002,-0.005572938,4.317,0,0
-0.0017081700000000002,-0.0159739736,-0.01280395,-0.019694696,-0.0056733880000000006,4.318,0,0
-0.005170362,-0.0093389356,-0.008410636,-0.008527776,-0.005201488000000001,4.319,0,0
-0.008218664,0.0011466643999999996,-0.0030698360000000007,0.004900584000000001,-0.0036008060000000002,4.32,0,0
-0.010054872000000001,0.010780004400000001,0.0016148500000000001,0.017085084,-0.0011052100000000001,4.321,0,0
-0.011482070000000002,0.0178225744,0.00760285,0.026057086,0.0013922960000000001,4.322,0,0
-0.012711320000000002,0.022921158,0.01315056,0.03246134,0.0035087800000000004,4.323,0,0
-0.010436700000000002,0.02607172,0.014577106000000001,0.03472732,0.004859852,4.324,0,0
-0.0057523,0.025627320000000002,0.013719070000000002,0.030941600000000003,0.005549652,4.325,0,0
-0.001985932000000001,0.020956268000000004,0.013207938,0.024143058000000002,0.005103412000000001,4.326,0,0
0.0029683879999999998,0.014371608,0.0105457076,0.01520237,0.003860678,4.327,0,0
0.008652708,0.006109487999999999,0.0045800216,0.0031397100000000013,0.0026155400000000004,4.328,0,0
0.011084808000000002,-0.0037873920000000005,-0.0017761984,-0.00893383,0.0012175560000000003,4.329,0,0
0.011283988000000002,-0.013061012000000002,-0.0075145624,-0.01841709,-0.000702112,4.33,0,0
0.012103248000000002,-0.019547520000000002,-0.0130773964,-0.026259088,-0.002705428,4.331,0,0
0.011389476,-0.02300586,-0.017102526,-0.03145278,-0.004385588,4.332,0,0
0.00854872,-0.02229184,-0.01779828,-0.030762519999999998,-0.005882972,4.333,0,0
0.0056686040000000016,-0.017847098,-0.015786148,-0.025647942,-0.006673045999999999,4.334,0,0
0.0026058880000000006,-0.011568456000000001,-0.011863665,-0.018249363999999997,-0.006169035999999999,4.335,0,0
-0.0008571459999999999,-0.003396175999999999,-0.006234671,-0.007853164,-0.0047019390000000005,4.336,0,0
-0.0039448,0.0049614640000000005,-0.0003261290000000001,0.003492296,-0.002630939,4.337,0,0
-0.006191022000000001,0.011268564000000002,0.0048244310000000006,0.012852196000000001,-5.696699999999978e-05,4.338,0,0
-0.008088626,0.015750662000000002,0.009294719,0.019929438,0.002283427,4.339,0,0
-0.00907931,0.01819008,0.013014156,0.025096180000000003,0.0038288589999999996,4.34,0,0
-0.008920734,0.017917540000000003,0.014478042000000002,0.026073,0.004781614,4.341,0,0
-0.00823504,0.015402760000000001,0.014035354,0.022836768,0.005225374,4.342,0,0
-0.006144284000000001,0.011101178,0.012701044,0.01744816,0.005036822,4.343,0,0
-0.001921024,0.0056854,0.009547248,0.009459799999999999,0.00431122,4.344,0,0
0.0027614759999999997,3.4179999999999974e-05,0.005251034,-0.000819100000000001,0.0031634,4.345,0,0
0.0058909,-0.005210320000000001,0.0008376919999999999,-0.010651360000000002,0.001578936,4.346,0,0
0.008085716,-0.00969966,-0.0036161020000000004,-0.018457148000000003,-0.00027721600000000005,4.347,0,0
0.009027848,-0.014119478000000001,-0.007952292000000001,-0.02481308,-0.0019069080000000001,4.348,0,0
0.007131052000000001,-0.017454740000000003,-0.011020456000000001,-0.027173620000000002,-0.002951664,4.349,0,0
0.004027638,-0.017559220000000004,-0.012427022000000001,-0.024215336000000004,-0.0033312100000000002,4.35,0,0
0.0021433252,-0.015700768000000004,-0.012252592000000001,-0.018707479600000004,-0.0030995120000000004,4.351,0,0
0.00022134720000000006,-0.012057442000000002,-0.009872582000000001,-0.0109124496,-0.00248955,4.352,0,0
-0.0019329308,-0.004826462000000002,-0.006225038,-0.00036280959999999886,-0.00138858,4.353,0,0
-0.0031662168,0.002732838,-0.0020282019999999998,0.0098747504,0.0002781620000000001,4.354,0,0
-0.0047489648,0.007902318,0.0029597779999999997,0.017571406400000003,0.001730012,4.355,0,0
-0.006596884000000001,0.012056086,0.007880410000000001,0.023769270000000002,0.002854338,4.356,0,0
-0.007159106,0.014584020000000001,0.0112201,0.026937000000000003,0.00411616,4.357,0,0
-0.006487550000000001,0.013966058000000002,0.012428608,0.025223600000000002,0.004592554,4.358,0,0
-0.005486967400000002,0.011107932400000001,0.012183590000000003,0.02034542,0.004085972,4.359,0,0
-0.0035365282000000002,0.007540576400000002,0.009939396000000001,0.013701454000000004,0.0034683839999999997,4.36,0,0
-0.0005522101999999999,0.0028600824000000005,0.005590752,0.005346054,0.0026558626,4.361,0,0
0.0023106058,-0.0023427376,0.0010761680000000002,-0.0035065259999999994,0.0011242446,4.362,0,0
0.0044386138,-0.0061889556000000005,-0.0030927640000000005,-0.010979686,-0.0006912594000000002,4.363,0,0
0.0059558232,-0.00860109,-0.0070939620000000005,-0.017021886,-0.0022147534,4.364,0,0
0.006914146,-0.010355034,-0.010459168000000001,-0.02176904,-0.0035210734000000006,4.365,0,0
0.006551966,-0.010575056000000001,-0.011604344,-0.023283440000000002,-0.00423399,4.366,0,0
0.0051530286,-0.009020478000000002,-0.010816394,-0.020651318000000002,-0.004185852,4.367,0,0
0.0034084238000000005,-0.006884823,-0.009245577999999999,-0.015980495400000003,-0.0034078320000000004,4.368,0,0
0.0015860118,-0.003619126999999999,-0.006123728000000001,-0.0090159334,-0.0023604578000000005,4.369,0,0
-0.00010184819999999994,0.0007074929999999998,-0.002107338,0.00024182659999999944,-0.0013014886000000002,4.37,0,0
-0.0014678302,0.0046933289999999996,0.0017259680000000003,0.0082707266,-0.00013941460000000002,4.371,0,0
-0.0024930548,0.007613671000000001,0.004908222,0.014092704600000002,0.0009295574000000002,4.372,0,0
-0.003513758,0.009591856000000001,0.008094886,0.018542842000000004,0.0017781354,4.373,0,0
-0.00405067,0.010074938000000002,0.010165436,0.02018386,0.0024754052,4.374,0,0
-0.0039268160000000005,0.008554094,0.00985489,0.017827252,0.003001538,4.375,0,0
-0.0033759094,0.0062988470000000015,0.008510641999999999,0.014054368000000001,0.0029806360000000005,4.376,0,0
-0.002344749,0.0034816070000000007,0.006059857600000001,0.00929785,0.0025922880000000003,4.377,0,0
-0.001130097,-0.00037737100000000004,0.0024328675999999994,0.0023094500000000002,0.0018628928,4.378,0,0
-0.00011070359999999996,-0.003804881,-0.0012892064,-0.00470045,0.0006979987999999998,4.379,0,0
0.00023347060000000004,-0.005934639,-0.0037833544,-0.009898362,-0.0008043932000000001,4.38,0,0
0.00023931620000000004,-0.007772546000000001,-0.0055677904000000005,-0.014166378000000002,-0.0020843492,4.381,0,0
-7.94298e-05,-0.009658266,-0.006315698000000001,-0.017502200000000002,-0.0031012072,4.382,0,0
-0.0011944318,-0.010377268,-0.0049226619999999995,-0.01707764,-0.003855832,4.383,0,0
-0.0019524852000000004,-0.009385186,-0.0032609920000000003,-0.013868952,-0.003750284,4.384,0,0
-0.0019284428,-0.007590940600000001,-0.002116084,-0.009917084000000001,-0.0030834741999999997,4.385,0,0
-0.001463335,-0.0044180906,-0.0021648820000000004,-0.004020524000000001,-0.0022739742,4.386,0,0
9.579860000000001e-05,0.0008636893999999999,-0.0034164900000000003,0.003065876,-0.0013198612000000001,4.387,0,0
0.0020163346,0.0058579894,-0.0038890648000000005,0.008381396,-0.00029173340000000005,4.388,0,0
0.0023991385999999996,0.0086604214,-0.0022192808000000004,0.012017348,0.00048433860000000005,4.389,0,0
0.001522496,0.010280574,0.0004481951999999998,0.015225440000000002,0.0012163567999999999,4.39,0,0
0.0005260239999999998,0.010574474,0.0018689686000000001,0.015129448,0.0017559948000000001,4.391,0,0
-0.0009166724,0.008335450000000001,0.003410566600000001,0.011967238000000002,0.0020097098,4.392,0,0
-0.002055898,0.00524292,0.0051094594,0.008955982800000001,0.002439482,4.393,0,0
-0.0015688039999999998,0.0021938539999999994,0.004048889400000001,0.0047546128,0.002705826,4.394,0,0
0.00014730400000000012,-0.0016549220000000003,0.0011795074000000001,-0.0016508472,0.0022565740000000003,4.395,0,0
0.002069584,-0.005294186000000001,-0.00010154200000000004,-0.0070968352,0.0014368100000000002,4.396,0,0
0.0041968744,-0.007378626,-0.0011039219999999998,-0.011008705200000002,0.0006813840000000002,4.397,0,0
0.0061287780000000005,-0.007977280000000002,-0.004193298000000001,-0.015008610000000002,-0.0003074919999999999,4.398,0,0
0.006531358000000001,-0.0074463,-0.006526406,-0.01698476,-0.001454852,4.399,0,0
0.0057126898,-0.0054303438,-0.006372340000000001,-0.01538833,-0.002100312,4.4,0,0
0.0036450497999999994,-0.0038797658,-0.005454018000000001,-0.012380186000000001,-0.00214775,4.401,0,0
2.223979999999991e-05,-0.0031249378,-0.003924563400000001,-0.008606156200000001,-0.002144886,4.402,0,0
-0.0028926722,-0.0001882177999999997,-0.0011969374,-0.0027775222000000002,-0.0018896342,4.403,0,0
-0.004174370200000001,0.003737786200000001,0.0016285526000000001,0.0030115178000000003,-0.0011280862,4.404,0,0
-0.0048384299999999995,0.00604889,0.0040592566,0.0069408678,-0.0002832541999999999,4.405,0,0
-0.004293878,0.008338264000000001,0.0064512326000000005,0.0103988638,0.0003955438000000001,4.406,0,0
-0.0026111226,0.010769486000000002,0.007932522000000001,0.012945174,0.0010452438000000002,4.407,0,0
-0.0013209424000000002,0.0101654,0.008103478,0.01233653,0.0015724660000000002,4.408,0,0
-0.0010993684000000002,0.007608448,0.00804676,0.010071932,0.001714924,4.409,0,0
-0.0007053984,0.0058242500000000004,0.00681116,0.008175703999999999,0.0015632386,4.41,0,0
0.0007760775999999999,0.004118095800000001,0.004182784,0.004928046,0.0013272829999999998,4.411,0,0
0.0022992242,0.0016647377999999997,0.0021045779999999997,0.0007463319999999999,0.0010580752199999999,4.412,0,0
0.00308742,-0.0008858902,-0.0001995040000000002,-0.0021308760000000003,0.00043187322000000003,4.413,0,0
0.00396332,-0.0042396382000000005,-0.002895798,-0.004607982,-0.00025837278,4.414,0,0
0.004685698,-0.0084563202,-0.005317784000000001,-0.007739074,-0.00058178958,4.415,0,0
0.004073098000000001,-0.010569728,-0.007138314000000001,-0.008921062,-0.0008271111800000001,4.416,0,0
0.003241634,-0.010239822,-0.008010742000000001,-0.0075927500000000005,-0.0008155876,4.417,0,0
0.0026935320000000002,-0.0091333,-0.007988696,-0.0059157262,-0.0004035426000000001,4.418,0,0
0.002386291,-0.005645744,-0.006589308800000001,-0.0029596562000000007,-9.118260000000005e-05,4.419,0,0
0.0019050434,-3.278800000000039e-05,-0.0037662428000000006,0.0018167837999999998,-1.523860000000002e-05,4.42,0,0
0.0006260854000000001,0.0036103159999999997,0.00014988320000000025,0.0057203898,-4.71518e-05,4.421,0,0
-0.0009822046000000002,0.005372848,0.0038530952000000005,0.0079888718,-0.0003205836,4.422,0,0
-0.0026078146,0.006893536,0.006729539200000001,0.010144586,-0.0004112176,4.423,0,0
-0.0033910356,0.006778943999999999,0.008039034,0.01108961,0.00013188240000000002,4.424,0,0
-0.0032468102,0.004936172,0.007844456000000001,0.009464416,0.0005750665999999999,4.425,0,0
-0.0027402912000000002,0.0031172108,0.006924382000000001,0.0069627112,0.0006757498,4.426,0,0
-0.0020828066,0.0013733228000000002,0.004658789,0.004623233200000001,0.0008963249999999999,4.427,0,0
-0.0008368266000000001,-0.0010496132,0.002039301,0.0008116772000000001,0.000750117,4.428,0,0
-0.00019618420000000003,-0.0032645992,-0.0003942469999999997,-0.0036352128000000004,7.062719999999999e-05,4.429,0,0
-0.000550014,-0.0044783172,-0.002947903,-0.0064190188000000006,-0.0006383148,4.43,0,0
-0.00046535760000000005,-0.005656846,-0.005129327,-0.008531894,-0.0012321856,4.431,0,0
-0.0008447622,-0.006861494,-0.006414304,-0.01019394,-0.0017349268000000002,4.432,0,0
-0.0013967262000000001,-0.005899836,-0.00653538,-0.009158162000000001,-0.0023702038000000003,4.433,0,0
-0.0014493888,-0.0035201620000000007,-0.005859064000000001,-0.006474068,-0.0028434440000000005,4.434,0,0
-0.0016353928,-0.0017036440000000003,-0.003984738,-0.004172751999999999,-0.0025410608,4.435,0,0
-0.0019025842,0.0008543920000000002,-0.0014369739999999997,-0.0005639499999999997,-0.0018461120000000002,4.436,0,0
-0.0018774762000000002,0.004199518000000001,0.000763616,0.003536374,-0.0010424300000000002,4.437,0,0
-0.0022230222,0.006064204,0.002483662,0.005737006,0.00012661200000000007,4.438,0,0
-0.003188254,0.006977530000000001,0.0034862480000000004,0.0070588479999999995,0.00099898,4.439,0,0
-0.004108046000000001,0.0073473440000000004,0.004437492,0.008279752,0.0012855968,4.44,0,0
-0.005110054,0.006351226,0.005008498,0.007521540000000001,0.0016422840000000001,4.441,0,0
-0.0053345779999999995,0.005804984,0.005092516,0.005066672,0.0017145560000000001,4.442,0,0
-0.00410171,0.005520136,0.005039356000000001,0.0032277613999999997,0.0017082400000000002,4.443,0,0
-0.0015228840000000002,0.0039204884,0.0042624970000000005,0.0009982054,0.002223796,4.444,0,0
0.0017112219999999999,0.0013493423999999998,0.0023588790000000004,-0.0022938686,0.0023042960000000004,4.445,0,0
0.004501466,-0.0014660316000000004,0.00010641299999999986,-0.0046333826,0.0018045650000000002,4.446,0,0
0.00633629,-0.004813705600000001,-0.001507759,-0.0058877206,0.0013099618000000002,4.447,0,0
0.0066645639999999996,-0.008768237600000001,-0.003155319,-0.007779704,0.0005044317999999999,4.448,0,0
0.005466861999999999,-0.011285188000000002,-0.004979834000000001,-0.008686874,-0.0005894802,4.449,0,0
0.0037844906,-0.010995222,-0.00663412,-0.007280648000000001,-0.00100881,4.45,0,0
0.0020761746,-0.009576652,-0.007142586,-0.005852118,-0.0010636458,4.451,0,0
0.00012978860000000003,-0.008195260000000001,-0.006701688,-0.004499500000000001,-0.0012017846,4.452,0,0
-0.0014514074000000002,-0.005184038,-0.007070606,-0.0015383060000000001,-0.00086931574,4.453,0,0
-0.0024174474000000002,-0.0016627500000000004,-0.006277174,0.001509864,-0.00046281214000000004,4.454,0,0
-0.002922814,0.0008015460000000002,-0.0026888219999999996,0.0028605980000000002,-0.00026299934000000003,4.455,0,0
-0.0032481820000000005,0.0032477140000000005,0.0008850920000000003,0.004009668,6.0826459999999995e-05,4.456,0,0
-0.00289851,0.005235602000000001,0.0034327480000000002,0.005368078,0.00044400186000000005,4.457,0,0
-0.0018603976,0.005307618000000001,0.005982948,0.004909442,0.0005451288,4.458,0,0
-0.0011978486000000003,0.0037259880000000004,0.008105006,0.0028453080000000004,0.000518542,4.459,0,0
-8.089060000000001e-05,0.0026347968000000003,0.007423888,0.001616556,0.0004484202,4.46,0,0
0.0017716554000000002,0.0017160048000000004,0.0038295680000000006,-8.459799999999986e-05,0.0004387198,4.461,0,0
0.0026648554,-6.178119999999997e-05,0.0007392539999999996,-0.0033388000000000003,0.0005010980000000001,4.462,0,0
0.002736163,-0.0006351564000000001,-0.0011861380000000002,-0.0054161,0.0009546702000000001,4.463,0,0
0.0030362259999999995,0.00016470759999999993,-0.003060696,-0.00655973,0.0014854374000000002,4.464,0,0
0.002696488,-0.00019806120000000004,-0.004386322000000001,-0.008405784,0.0015949830000000001,4.465,0,0
0.0014986934,-0.0005086630000000001,-0.003439874,-0.008416113999999999,0.0016406208000000002,4.466,0,0
0.0003649994000000001,0.000677105,-0.0020317980000000005,-0.005883022,0.0013969090000000002,4.467,0,0
-0.0005328066,0.0008325829999999999,-0.0015362079999999996,-0.003952636,0.00085382258,4.468,0,0
-0.0014640745999999999,0.0006013524,-0.00012028199999999977,-0.001394892,0.00066454258,4.469,0,0
-0.0023279566,0.0020427604,0.0015493320000000003,0.0026028720000000004,0.00104604778,4.47,0,0
-0.0021705368000000005,0.0030989402,0.002290958,0.005034538000000001,0.0011182873800000001,4.471,0,0
-0.0005945048000000001,0.0030674162,0.0022149680000000003,0.006083736000000001,0.00121728224,4.472,0,0
0.0008824451999999999,0.0039931994,0.0030368380000000005,0.007852772000000001,0.0007999446600000001,4.473,0,0
0.0017840572,0.0048366880000000004,0.00347289,0.009009938,-0.00025976734,4.474,0,0
0.0026029931999999997,0.0037091402,0.0029216460000000004,0.008089692,-0.00115599334,4.475,0,0
0.0025137256,0.0024018989999999994,0.002874558,0.0072805660000000005,-0.00211114534,4.476,0,0
0.0014672119999999999,0.0016306209999999996,0.002052344,0.006628236000000001,-0.0026185160000000004,4.477,0,0
0.0004556248000000001,-0.000534135,0.000560518,0.004287014,-0.002471866,4.478,0,0
6.725799999999989e-06,-0.003393295,-0.000625304,0.0015665620000000005,-0.0020198160000000002,4.479,0,0
-0.00028314940000000004,-0.0049825332,-0.00116691,0.00014859200000000002,-0.0019344080000000003,4.48,0,0
-0.00039984500000000007,-0.005914304,-0.0019698220000000004,-0.0015919280000000003,-0.0018693040000000002,4.481,0,0
-0.00010217060000000005,-0.006381675999999999,-0.002472408,-0.0038948740000000004,-0.00209988,4.482,0,0
6.594579999999998e-05,-0.0051459256,-0.0016563782,-0.0042227820000000004,-0.002488448,4.483,0,0
0.00012056979999999999,-0.0026325696,-0.0010165622000000002,-0.0033705092,-0.002579426,4.484,0,0
5.9732000000000003e-05,-0.0003426376000000001,-0.0008265054000000001,-0.0030045084,-0.0025792,4.485,0,0
-0.00047286,0.0017677444,5.906659999999991e-05,-0.0013947844000000002,-0.002197236,4.486,0,0
-0.0008999108000000001,0.0038437264,0.000957949,0.0013866216000000002,-0.0013588952,4.487,0,0
-0.0009149328000000001,0.0045404700000000004,0.0010720732,0.0026430856,-0.0004478192,4.488,0,0
-0.0011686138,0.0042266940000000005,0.0013336592000000001,0.0031891308000000004,-0.00012391559999999998,4.489,0,0
-0.0015366588,0.004263002,0.001464734,0.004163072,0.00042207839999999997,4.49,0,0
-0.0011640422,0.003909038,0.0009629162000000001,0.003731196,0.0010073844,4.491,0,0
-0.0008107139999999999,0.0023650428000000006,0.0006495318000000001,0.001965406,0.0009834976,4.492,0,0
-0.0009207722000000001,0.0005224028000000002,0.00028809820000000015,0.0012463242,0.0009324896000000001,4.493,0,0
-0.0008927442000000001,-0.0009047791999999999,-0.0007491578,0.0008175381999999999,0.0011170680000000001,4.494,0,0
-0.0008610302000000001,-0.0020789612,-0.0014663714,-0.0006018417999999999,0.001251148,4.495,0,0
-0.0005505284,-0.0023960132,-0.0015782156000000002,-0.0011973678,0.0010591906,4.496,0,0
-0.0003890708,-0.001733884,-0.0015484536000000002,-0.0011933958,0.0010137923999999998,4.497,0,0
0.00024187220000000003,-0.0006564912,-0.0018899,-0.002240474,0.0009722708,4.498,0,0
0.0018206282,0.000384128,-0.0018061,-0.003129942,0.0005574948,4.499,0,0
0.0028816782,0.001014932,-0.000755426,-0.0025266438,-8.435319999999997e-05,4.5,0,0
0.0030316638000000003,0.0006844249200000001,-0.0006483296000000002,-0.0022207670000000002,-0.0005885738,4.501,0,0
0.003226268,-0.0008585110800000001,-0.0006975655999999999,-0.002089383,-0.0007788625999999999,4.502,0,0
0.002973288,-0.0018415158800000001,0.0003101504000000001,-0.000499105,-0.000643397,4.503,0,0
0.002169424,-0.00190790028,0.0009165244000000001,0.000986115,0.00011875100000000016,4.504,0,0
0.0024698100000000002,-0.0021583631000000004,0.0006011738000000001,0.0011766787999999999,0.0010363990000000001,4.505,0,0
0.0021295819999999997,-0.0018833200200000003,0.0004072094000000002,0.0013473434000000001,0.0018512710000000003,4.506,0,0
0.0006130119999999998,-0.00046378201999999996,0.0002526574,0.0022724834,0.0022819220000000005,4.507,0,0
-0.0002536120000000003,0.00048228238000000006,-0.0007409746000000001,0.0016904626,0.0020876314,4.508,0,0
-0.0009135448000000002,0.00026066758000000003,-0.0014016286,-3.756339999999982e-05,0.0016267436,4.509,0,0
-0.0021992608,0.00028566520000000006,-0.0008993640000000002,-0.00029005339999999994,0.0008191778,4.51,0,0
-0.0027296428000000003,0.00043979120000000005,-0.00013058400000000016,-0.0006897068,-4.564020000000007e-05,4.511,0,0
-0.0023122688000000004,0.0007164232000000002,0.0005166379999999999,-0.0023671048000000004,-0.000533433,4.512,0,0
-0.0030208528000000004,0.0018584568000000001,0.00166833,-0.003277322,-0.0004439304,4.513,0,0
-0.003690154,0.0039165708,0.002931156,-0.0034338400000000005,-0.0001870766000000002,4.514,0,0
-0.0032645386,0.0062678180000000005,0.002889196,-0.004999680000000001,7.609799999999983e-06,4.515,0,0
-0.0031032466000000002,0.006045204,0.0026101874,-0.005830442000000001,0.0004489156,4.516,0,0
-0.0026678246000000003,0.0035204300000000006,0.0029483474,-0.0046334032,0.0010061184,4.517,0,0
-0.0003107685999999999,0.0020374460000000005,0.0022083420000000003,-0.004209579200000001,0.0011231524,4.518,0,0
0.0016753014000000003,-0.000559194,0.0008669180000000002,-0.003838663200000001,0.0009985264000000002,4.519,0,0
0.0018793040000000003,-0.005797954,0.0005720039999999999,-0.0017116892000000002,0.0011925418000000001,4.52,0,0
0.002601192,-0.00907616,-0.0005538794000000001,-4.730920000000033e-05,0.0012906752,4.521,0,0
0.0027541714000000007,-0.009557684,-0.0032836054000000003,5.04199999999997e-05,0.0009601880000000001,4.522,0,0
0.0008872914,-0.010548512,-0.004485670000000001,0.001295858,0.00025264,4.523,0,0
-0.0009519666000000001,-0.010759142,-0.004332978,0.002577872,-0.0004026560000000001,4.524,0,0
-0.0015219916000000003,-0.009028245999999998,-0.0046001276,0.0018445596000000002,-0.0006509800000000001,4.525,0,0
-0.0019159156,-0.006366902,-0.0033344276000000003,0.0013528230000000002,-0.0007737086600000001,4.526,0,0
-0.0019399796,-0.003452516,-0.0010161894000000004,0.001991499,-0.0007959480000000002,4.527,0,0
-0.0009820626000000003,-0.0015304679999999995,-0.00023454940000000005,0.001811899,-0.0005284878000000001,4.528,0,0
-0.0005088128,-1.8669999999999928e-05,-0.0002866574,0.0014715510000000002,-0.0003526738,4.529,0,0
-0.0006372538,0.001822786,-0.0004711250000000001,0.0023400753999999998,-0.0002268542,4.53,0,0
-3.396980000000007e-05,0.0032741000000000003,-0.001365115,0.00248922,-0.00019328174,4.531,0,0
0.0008747028,0.004072564,-0.0021598052,0.001366584,-0.000260137,4.532,0,0
0.0009785178000000002,0.005135828,-0.0015454193999999998,0.0009870784,-0.00020601539999999999,4.533,0,0
0.0010727320000000003,0.006214858,-0.0005703774,0.0012128043999999998,-0.00034343540000000004,4.534,0,0
0.001753514,0.006660108,0.0002150378,0.0007202932,-0.0007384070000000001,4.535,0,0
0.0017374400000000003,0.007021828,0.0018438057999999998,0.0011535652000000001,-0.001219414,4.536,0,0
0.0009419588000000002,0.0071992720000000005,0.0033020958,0.0024340332,-0.0012487282000000002,4.537,0,0
0.0009669048,0.006692046,0.0037529520000000004,0.0024417952,-0.0009628780000000001,4.538,0,0
0.0013923888,0.005933748000000001,0.003752424,0.0021179272,-0.0008125680000000002,4.539,0,0
0.0007574708000000002,0.005239582000000001,0.00361507,0.0028432484,-0.00053568734,4.54,0,0
0.0001621862,0.0034271920000000003,0.0028918900000000003,0.0029880344,7.910765999999999e-05,4.541,0,0
0.0001781634000000001,0.0008893120000000002,0.000821588,0.0018827471999999998,0.00016471166,4.542,0,0
-0.0004371626,-0.000648966,-0.0021348779999999998,0.00175809318,-0.00023817614000000003,4.543,0,0
-0.0012500886,-0.001740196,-0.004336828,0.00189014718,-0.00016152394000000002,4.544,0,0
-0.0012192646,-0.00324201,-0.004765690800000001,0.00031138317999999997,-0.00033216980000000005,4.545,0,0
-0.0011933216,-0.0038488360000000004,-0.0042032688,-0.00125290882,-0.0009128648,4.546,0,0
-0.0010830591999999998,-0.00338694,-0.0026062088,-0.0016478876200000001,-0.0010646432,4.547,0,0
-0.0002643932,-0.004015638,-0.00027949879999999993,-0.002586534,-0.0007137774,4.548,0,0
0.0002103568,-0.004619964000000001,0.0013077274000000002,-0.0036683540000000004,-0.00044628020000000003,4.549,0,0
0.000576692,-0.003336852,0.0017257002000000004,-0.003316816,-0.00017056399999999995,4.55,0,0
0.0011106916,-0.0022564628,0.0011202422,-0.0029056460000000004,0.0004964380000000001,4.551,0,0
0.0009722408,-0.0019805608000000004,0.0009007816000000001,-0.0031004720000000004,0.0006239276,4.552,0,0
0.0005015322,-0.00048205279999999996,0.0013073136000000003,-0.002256698,0.0002501636,4.553,0,0
0.00013290419999999995,0.0011175952000000002,0.0014303860000000003,-0.001008486,0.00044951820000000006,4.554,0,0
-0.0003358870000000001,0.00088594846,0.001307364,-0.0011273020000000002,0.0005491252000000001,4.555,0,0
-0.0007385756,0.0008201881180000001,0.0011670474000000002,-0.00121484,0.00018376300000000004,4.556,0,0
-0.0010180632000000001,0.0018947241180000002,0.0011944036000000001,-0.00036835000000000004,7.946420000000008e-05,4.557,0,0
-0.0010573284,0.002171810118,0.0011571576,-0.0007680619999999999,9.84582000000001e-05,4.558,0,0
-0.0007801616000000001,0.0017732961180000001,0.001193187,-0.001639934,-0.00021369379999999996,4.559,0,0
-0.0009609416000000001,0.002525868858,0.001573879,-0.000916074,-0.0002796466,4.56,0,0
-0.0011114458,0.003136798,0.0016788836000000001,-0.00021031599999999994,0.0001417276,4.561,0,0
-0.0005828198000000001,0.0019349360000000002,0.0014121239999999998,-0.0003857380000000001,0.0005114872000000001,4.562,0,0
-0.0002606920000000002,0.001068641,0.0013789599999999998,8.838800000000004e-05,0.0008400438000000001,4.563,0,0
0.00032885119999999997,0.0008927705999999997,0.0012711966,0.0008502440000000002,0.0009095298000000001,4.564,0,0
0.0011172312,-0.0009310834,0.00039641740000000006,0.00046711260000000004,0.0008091194000000001,4.565,0,0
0.0010386672000000001,-0.0026731274,-0.00023957860000000002,9.90206e-05,0.00045624640000000013,4.566,0,0
0.0005079612000000001,-0.0020289954,-4.028239999999995e-05,0.0007648646000000001,0.000113888,4.567,0,0
-0.0001274028000000001,-0.0016153004,-0.00036044920000000006,0.0009988765999999999,0.00018228739999999997,4.568,0,0
-0.0008656768000000001,-0.00207564,-0.0004653103,0.0008755146,8.735379999999996e-05,4.569,0,0
-0.0008539588000000002,-0.0008149639999999999,-0.00019943070000000003,0.001773366,1.1945999999999631e-06,4.57,0,0
0.0002896619999999999,0.000558848,-0.00033120069999999994,0.002132004,0.00017329579999999996,4.571,0,0
0.001215736,0.0002607190000000001,-0.0005474220999999999,0.0014338356,0.00030191599999999995,4.572,0,0
0.0017437875999999999,0.000376979,-0.0005940173000000001,0.0015374956,0.000160727,4.573,0,0
0.0023526796,0.001002845,-0.0005030554,0.0016069416000000002,0.00012705920000000002,4.574,0,0
0.0024785036,0.000383269,-0.0006824204,0.0005032815999999999,0.00030167860000000004,4.575,0,0
0.0017800896,-0.00019891099999999997,-8.727240000000002e-05,5.877479999999994e-05,0.00019228160000000003,4.576,0,0
0.0012884662000000001,0.00032118000000000007,0.0003852988,0.0005614632,4.66026e-05,4.577,0,0
0.0015212346000000002,-1.196927999999993e-05,5.2836799999999955e-05,0.0004254314,0.00026307760000000006,4.578,0,0
0.0013898026,-0.00100039328,-0.00022357080000000009,6.950520000000003e-05,0.00046475940000000006,4.579,0,0
0.0008562068000000001,-0.00096820928,-0.0004934082000000002,0.0006772972,0.00012765040000000004,4.58,0,0
0.00039851420000000005,-0.0008498312800000001,-0.0009325322000000001,0.0011762080000000002,-0.00025316879999999996,4.581,0,0
9.678680000000007e-05,-0.0016850272800000001,-0.0015268142,0.00023510800000000004,-0.0003590336,4.582,0,0
-0.0005184732,-0.0015266446000000002,-0.0013469842,-3.059960000000004e-05,-0.0008241064,4.583,0,0
-0.00044300519999999996,-8.078459999999997e-05,-0.001189828,0.0005332526000000001,-0.0012246108,4.584,0,0
0.0006861426000000001,0.0008977414000000001,-0.0010811500000000001,-0.00012949339999999998,-0.0009866326,4.585,0,0
0.0011045452,0.0022094254000000002,-0.00015516400000000006,-0.0005299324,-0.000588388,4.586,0,0
0.000845206,0.0036516414000000007,0.000717374,0.00042810760000000015,-6.337999999999998e-05,4.587,0,0
0.0009252218000000002,0.0038760700000000006,0.0010272556000000001,0.00011896900000000007,0.00031628680000000004,4.588,0,0
0.000685253,0.0033270514,0.0011263488,-0.001100919,0.0002927508000000001,4.589,0,0
-0.0006363830000000001,0.0029319114,0.0017655928000000001,-0.0005100009999999999,0.0003880260000000001,4.59,0,0
-0.001791147,0.0014515394,0.0018126948000000004,-0.00028170699999999996,0.0004235424,4.591,0,0
-0.0028200710000000004,-0.0011621446000000001,0.0013401344000000003,-0.0013333429999999999,-5.004140000000002e-05,4.592,0,0
-0.0038376228,-0.0020875086000000003,0.0015030628000000004,-0.000717153,-0.0002664934,4.593,0,0
-0.004484434000000001,-0.0023905632,0.0010159436,0.0005394770000000001,-6.0073400000000007e-05,4.594,0,0
-0.005120688,-0.0038381492,-4.946239999999993e-05,-0.00024664299999999995,-0.00026149800000000004,4.595,0,0
-0.0043362378,-0.0042081532,-0.0009578964000000001,-0.000686802,-0.00024388020000000004,4.596,0,0
-0.0021046978000000003,-0.0030905992000000004,-0.00148474,0.000246646,-0.0003695204,4.597,0,0
-0.0005228418000000001,-0.0031666532000000002,-0.001963212,-0.00030300800000000006,-0.0010358624000000002,4.598,0,0
0.0004384942000000001,-0.0035170580000000004,-0.0017034282,-0.001395256,-0.001156001,4.599,0,0
0.0013350192,-0.00220101,-0.0004912402,-0.0007802802000000001,-0.0009878752,4.6,0,0
0.0015738786000000001,-0.0012458124,0.0002355798000000002,-0.0005015094,-0.0009649902000000002,4.601,0,0
0.0014247806000000003,-0.0009071867999999999,0.0011882798000000003,-0.0013897114000000002,-0.0006790042,4.602,0,0
0.0009703180000000002,-0.00031895080000000003,0.0029179858,-0.0010099712,1.624409999999999e-05,4.603,0,0
0.000377602,0.00014026999999999998,0.003596502,-0.0002891574000000001,0.0004803467,4.604,0,0
0.0005255612000000001,0.00017958740000000001,0.0016581779999999997,-0.0009911212,0.0006124321,4.605,0,0
0.0006760716000000001,0.0001511006,-0.00045983199999999986,-0.001567182,0.0007083183,4.606,0,0
0.0004351016,0.000679633,-0.001553124,-0.0009667642,0.0009833363,4.607,0,0
0.0010004302000000001,0.000986349,-0.003447108,-0.001004061,0.001169776,4.608,0,0
0.0011964272,0.0011097456,-0.004735382000000001,-0.0014060168,0.0009468783999999999,4.609,0,0
0.00040892900000000004,0.0018400222000000003,-0.0032157786,9.269200000000077e-06,0.0006427954000000001,4.61,0,0
-0.00026761100000000006,0.0020502014000000003,-0.0009548606000000002,0.0012971512000000001,0.00023470479999999997,4.611,0,0
-0.001212153,0.0011787154000000002,-0.0001317006,0.0007807074000000002,-2.7393200000000007e-05,4.612,0,0
-0.002170989,0.0012188174000000002,0.0004940714,0.0010711220000000003,-0.0001619948,4.613,0,0
-0.00213235298,0.0011887104,0.0011714906000000003,0.0022929440000000003,-0.00037255860000000003,4.614,0,0
-0.0009029369800000001,-0.00037135159999999995,0.0005360732,0.0013598984000000001,-0.00035075500000000007,4.615,0,0
0.0005315270200000002,-0.0003986276,-0.0004248188,0.0005260184000000001,-4.586680000000001e-05,4.616,0,0
0.0023874390200000002,0.0012491364000000002,-0.0008730503999999999,0.0014406544000000001,-1.8353000000000016e-05,4.617,0,0
0.00429689702,0.0011939384000000002,-0.0018681984,0.0008785424000000001,-0.00022500180000000007,4.618,0,0
0.004954152,0.000957025,-0.0019891552000000003,-0.0001640586,-6.403040000000001e-05,4.619,0,0
0.004865946,0.002250029,-0.0009017352,0.000507359,0.00011484740000000002,4.62,0,0
0.004502674,0.0019509432000000002,-0.00020408320000000005,0.0007190123999999999,0.0001244086,4.621,0,0
0.003817746,0.00025529520000000007,0.0005314123999999999,-0.0001466056000000001,0.00023442980000000003,4.622,0,0
0.002780448,-0.0002744928,0.0020913684000000003,6.961539999999998e-05,0.00038179492000000003,4.623,0,0
0.0023533779999999997,-0.00028987839999999995,0.002856702,0.00024209199999999999,0.00058886132,4.624,0,0
0.0019109242,-0.0012673063999999999,0.002677374,-0.000653964,0.00057641232,4.625,0,0
0.0003825901999999998,-0.0016407345999999998,0.0032179760000000004,-0.0007331194000000001,0.00037030791999999996,4.626,0,0
-0.0013472658,-0.0002915566,0.0021543400000000002,0.0002769306000000001,0.00033432812,4.627,0,0
-0.0031673298000000003,-0.0005302825999999999,-0.00044679400000000014,0.0007437796000000001,0.0003814594,4.628,0,0
-0.0049079558,-0.0019136639999999998,-0.0016344140000000003,0.0007423776,0.0003227572,4.629,0,0
-0.005325656,-0.00012710999999999972,-0.0019488306000000003,0.0014996696000000001,0.0001836234,4.63,0,0
-0.004138828,0.0021667340000000005,-0.0025244866,0.0016706836,6.408999999999972e-06,4.631,0,0
-0.002950427,0.0015425700000000003,-0.0017896365999999996,0.00030962159999999993,-0.00026051220000000003,4.632,0,0
-0.0022050589999999997,0.0021428330000000002,0.0002260534,-0.00046964440000000005,-0.0002471408000000001,4.633,0,0
-0.002070125,0.0034984090000000005,0.0006792997999999999,-0.00040427180000000005,-0.00010786300000000009,4.634,0,0
-0.002921841,0.0013337050000000001,0.0002837584,-0.0014107678000000001,-7.792986000000007e-05,4.635,0,0
-0.003978159,-0.001053601,0.00027991040000000005,-0.0021517878,0.00012232273999999998,4.636,0,0
-0.004754256,-0.001409121,4.039400000000001e-06,-0.0015249872000000003,0.00033881334,4.637,0,0
-0.004304638,-0.002081786,-0.00018844186000000005,-0.0017143852000000002,0.00011454493999999999,4.638,0,0
-0.0027716194,-0.002584312,0.00016925094000000003,-0.0025155174000000002,-0.0006393270600000001,4.639,0,0
-0.0013685312000000002,-0.0017962575200000002,0.00047049440000000004,-0.0019898632,-0.0013961458,4.64,0,0
4.712680000000004e-05,-0.00151690092,-0.00028209759999999997,-0.00139209956,-0.0017738604,4.641,0,0
0.0014448488000000002,-0.0021444029200000003,-0.0009592005999999999,-0.0015828481600000002,-0.0019904186,4.642,0,0
0.0016295048,-0.0016384321200000002,-0.0006417813399999998,-0.0006989661600000002,-0.0018995420000000002,4.643,0,0
0.0013086492,-0.0005565601200000002,-0.0004508005400000001,0.0006430258400000001,-0.0011742900000000001,4.644,0,0
0.001986311,-0.0005426043200000002,-0.0004398706,0.0008685692400000002,-0.0003998090000000001,4.645,0,0
0.002804183,0.00010009307999999994,-9.328639999999993e-05,0.0011346876,0.000314107,4.646,0,0
0.003130943,0.0019241350800000001,0.00026331559999999996,0.0018189096,0.0010470126000000001,4.647,0,0
0.0036871810000000003,0.00265255628,6.162919999999994e-05,0.0014601656000000002,0.0013541870000000002,4.648,0,0
0.004197794,0.0029748362800000004,-0.00034032680000000006,0.0007384854,0.0012166500000000001,4.649,0,0
0.0034874416,0.00409669,-0.0002305994000000001,0.0010275338,0.0011593700000000003,4.65,0,0
0.0021748538,0.004005916,-0.00039582360000000005,0.0010284098,0.0011558100000000002,4.651,0,0
0.0010747894,0.0017579059999999998,-0.0009391295999999999,0.0003794498000000001,0.00045814740000000003,4.652,0,0
0.00025313540000000006,-0.00023475600000000024,-0.0015173472,0.0004835004,-0.0003241106,4.653,0,0
-1.740839999999998e-05,-0.0013230620000000003,-0.0022701872,0.0007975086000000001,-0.0002944726,4.654,0,0
0.00011672000000000001,-0.003131170000000001,-0.00268141,-4.677939999999991e-05,-0.00019015359999999997,4.655,0,0
-8.369280000000001e-05,-0.00418572,-0.0022596917999999997,-0.0009406073999999999,-0.0007286036,4.656,0,0
-0.0004564044,-0.0031188348000000003,-0.0012894488,-0.0005556999999999999,-0.000808377,4.657,0,0
-0.0001982432,-0.0021893028,-0.0008422188580000001,-0.0005534562,-0.00035674919999999997,4.658,0,0
-0.00046374320000000004,-0.0021231528,1.0416942000000007e-05,-0.0011569502,-0.0006711838,4.659,0,0
-0.0015451392000000001,-0.0010558527999999998,0.0013529589420000002,-0.00011822020000000011,-0.0008884956,4.66,0,0
-0.0020860286,0.0003768692000000001,0.002057708742,0.0011270218,-0.00044048860000000004,4.661,0,0
-0.0019526006000000003,0.001589684,0.0027726257420000004,0.0008163344000000001,6.972140000000005e-05,4.662,0,0
-0.0023554998000000003,0.004092438,0.0036462318,0.001517642,0.0004910176,4.663,0,0
-0.0026371740000000004,0.007025878,0.004214302,0.0029004319999999997,0.0009892832000000002,4.664,0,0
-0.002246548,0.00833155,0.003830094,0.002580442,0.001350539,4.665,0,0
-0.002622192,0.008239548,0.00381236,0.002461062,0.0011972676,4.666,0,0
-0.002719478,0.0080904,0.0039277,0.0034969520000000002,0.0010280052,4.667,0,0
-0.0016364359999999998,0.005595704,0.002751254,0.003065328,0.0009186532000000001,4.668,0,0
-0.0007289979999999997,-0.0003191560000000001,0.0016868240000000002,0.0016483639999999998,0.0006643276000000001,4.669,0,0
-1.5581999999999987e-05,-0.0052648999999999994,0.00029573199999999983,0.0012858078,0.0004765260000000001,4.67,0,0
0.0017578840000000001,-0.008821162,-0.0021222220000000004,0.00020662780000000008,0.0004147532000000001,4.671,0,0
0.003515822,-0.012697716000000001,-0.004127528,-0.0018962942,8.292160000000003e-05,4.672,0,0
0.004407758,-0.01346331,-0.004433648,-0.0029589002000000005,-0.0003424316,4.673,0,0
0.005587006,-0.0101715168,-0.003966209000000001,-0.0029419802,-0.00034261580000000005,4.674,0,0
0.006615418,-0.006943176799999999,-0.0031790340000000007,-0.0033064260000000003,-0.00028704740000000005,4.675,0,0
0.006581128,-0.0037399167999999997,-0.001029856,-0.0026447898,-0.00020085420000000005,4.676,0,0
0.0055971680000000005,6.505919999999987e-05,0.0009926660000000001,-0.00013359580000000008,0.0002657378,4.677,0,0
0.004007671000000001,0.0016468032000000001,0.002246132,0.0014083922000000001,0.0006561332,4.678,0,0
0.0015038450000000002,0.0016365980000000002,0.003249795,0.0021759262,0.00058969094,4.679,0,0
-0.0011646550000000001,0.001576884,0.002839786,0.0034920742,0.00038750913999999995,4.68,0,0
-0.003029393,0.0009102279999999998,0.0008403699999999996,0.0037703580000000006,3.370513999999996e-05,4.681,0,0
-0.004418513000000001,-0.00027265000000000004,-0.0008074860000000002,0.002049032,-0.00052902286,4.682,0,0
-0.00539445,-0.0007623954,-0.001190426,0.000986224,-0.0009966810599999999,4.683,0,0
-0.005421696,-0.0003014914,-0.0017816099999999999,0.000779704,-0.001198092,4.684,0,0
-0.004425526,0.00013894060000000004,-0.0015628600000000001,-0.000808856,-0.0009925111999999998,4.685,0,0
-0.003458203,0.0011761426,0.0002980239999999999,-0.002014928,-0.0006981052000000001,4.686,0,0
-0.0021078409999999996,0.0031520386000000004,0.001280308,-0.0017049952000000002,-0.00027096160000000005,4.687,0,0
-0.00028977699999999985,0.004354452000000001,0.0007142680000000001,-0.0024278032,0.0006494144000000001,4.688,0,0
0.0007723070000000001,0.004016820200000001,6.0094999999999946e-05,-0.0039398552,0.0011791934000000002,4.689,0,0
0.0007581030000000002,0.0034270302000000002,0.0001575129999999999,-0.0036832252,0.0008961358000000001,4.69,0,0
0.00018932400000000005,0.002485682200000001,-0.0001622312,-0.0033511652000000006,0.0007448284000000002,4.691,0,0
-0.000799988,0.00038297820000000014,-0.0007877912000000001,-0.0039053740000000005,0.0005506708000000001,4.692,0,0
-0.0016475544,-0.0007524145,-0.0007565452,-0.0030992798,-0.00015720239999999998,4.693,0,0
-0.0006477704000000001,-0.0005833507,-0.0008182842000000001,-0.0017566728000000002,-0.0002295444,4.694,0,0
0.0010262816000000002,-0.0007432447,-0.0008805944000000001,-0.0014446426,5.621000000000002e-05,4.695,0,0
0.0021082856000000003,-0.0006313035,-0.0005353822000000001,-0.0009010708000000002,-0.0002533146000000001,4.696,0,0
0.0030221316,1.384049999999997e-05,0.0003063418,-9.648599999999974e-06,-0.00030938800000000007,4.697,0,0
0.0030489076,-0.0002479728,0.0012290578000000003,4.580779999999998e-05,-9.208960000000005e-05,4.698,0,0
0.0020347254000000004,-0.0009557328,0.0020276978,-0.00034363720000000006,-0.000550563,4.699,0,0
0.0012839514,-0.00018254879999999994,0.002731994,0.00016128859999999998,-0.0008504836000000001,4.7,0,0
0.0014920074000000002,0.0003255360000000001,0.0023540464,0.0008407908000000001,-0.00027651939999999995,4.701,0,0
0.0013645312,-0.00042245999999999994,0.0017417322000000002,0.00044953260000000003,0.00010416000000000006,4.702,0,0
0.0004730356,-0.000938672,0.0020252042,0.00031857399999999996,6.613600000000055e-06,4.703,0,0
-0.0005212021999999999,-0.001010436,0.0007947162000000002,0.000531721,0.00016095960000000006,4.704,0,0
-0.0017932142,-0.0012008580000000002,-0.0028603698,-0.0005717189999999999,0.0005946136,4.705,0,0
-0.0033797942000000003,-0.0011120080000000003,-0.0052377162,-0.0018278810000000002,0.0003623214,4.706,0,0
-0.004337948,0.0001863879999999999,-0.0048039960000000005,-0.0014783920000000002,-0.0003273166,4.707,0,0
-0.003879898,0.0016417380000000002,-0.004538456000000001,-0.001402947,-0.0006792094000000001,4.708,0,0
-0.0030835778,0.0024572060000000004,-0.0031643700000000006,-0.0014398164000000001,-0.0007272128,4.709,0,0
-0.0020109437999999997,0.003019084,0.0009617180000000002,0.00019040559999999992,-0.0008342752000000001,4.71,0,0
-0.0003260218000000003,0.0031170740000000005,0.0037870539999999998,0.0014289035999999998,-0.0007162152,4.711,0,0
0.0007873742,0.0018145340000000002,0.0038300699999999997,0.0017336466,-0.00021414640000000005,4.712,0,0
0.0011025644,0.0006801320000000001,0.0026916670000000005,0.0029188376,0.0002734978,4.713,0,0
0.0008782842000000001,0.0006271340000000001,0.001136035,0.0039039260000000003,0.0006088906,4.714,0,0
0.00022646020000000007,-0.00029894000000000003,-0.000617763,0.0030475978,0.000490919,4.715,0,0
-0.0010403698,-0.0011506440000000001,-0.0012554238,0.0022268141999999998,0.0005458508000000001,4.716,0,0
-0.0014582430000000001,-0.0004513218,-0.0013763278000000002,0.0023398042000000005,0.00048907574,4.717,0,0
-0.00034188320000000014,0.0002757282,-0.0017931488,0.0015954022000000002,-2.491046000000001e-05,4.718,0,0
0.0006765328000000001,7.203299999999999e-05,-0.0009938322000000001,0.00042677220000000014,-0.00039136486000000004,4.719,0,0
0.0013930868,0.0003236186,-5.76242e-05,0.0004018584000000001,-0.00059188686,4.72,0,0
0.0021021158,0.0007332798,-0.00010175559999999999,0.0003728698000000001,-0.00106663266,4.721,0,0
0.0021067582000000003,0.0002952096,-0.0002037462,-0.0009111122,-0.0015065704000000002,4.722,0,0
0.0011147902000000001,-2.336360000000002e-05,0.00034244540000000006,-0.0017753262,-0.0012780558000000002,4.723,0,0
0.0003921564,0.0002851856,0.0004416168,-0.0017211322000000003,-0.0011792438000000002,4.724,0,0
0.0001020578,0.0003564102,-0.0003793392,-0.0022486162000000002,-0.0008437891999999999,4.725,0,0
0.0001156266,0.00023726260000000003,-0.000448779,-0.0020750792,-0.00015087119999999992,4.726,0,0
0.0005472274000000001,0.0006895566000000001,-0.0002917604,-0.0004738011999999999,0.0005661628,4.727,0,0
0.0008481714000000001,0.0007549864000000002,-0.0007597900000000002,0.00022182560000000016,0.0010787522,4.728,0,0
0.0007881337999999999,0.0001123284,-0.0008424846000000002,0.00045855420000000014,0.0010483552,4.729,0,0
0.0005081128000000001,-0.0001240064,-0.00019854800000000008,0.0017014282000000001,0.0008042036000000001,4.73,0,0
0.0004933562,-0.0002948264,0.0002131324,0.0021163174,0.00020803959999999997,4.731,0,0
0.00027485680000000003,-0.0010395904,5.036780000000006e-05,0.0009967894,-0.00036661640000000003,4.732,0,0
-0.00043811720000000003,-0.001321527,0.0007566178000000001,0.0005843166000000001,-0.0005340844000000001,4.733,0,0
-0.0008231958,-0.000573633,0.0013476524,0.0005439166000000001,-0.00025409300000000005,4.734,0,0
-0.0007321768,8.042159999999989e-05,0.0009773898,-0.0006808293999999999,8.810599999999999e-05,4.735,0,0
-0.0009852176,0.0008600119999999998,0.0012968154000000003,-0.0015874374,0.0005164988000000001,4.736,0,0
-0.0010935862,0.002355082,0.0018712820000000002,-0.0012791274,0.0006949906000000001,4.737,0,0
-0.0005162756,0.0028607,0.0016690960000000001,-0.0014562814000000002,0.00029265900000000007,4.738,0,0
-6.446980000000001e-05,0.002112338,0.0012999982,-0.002428828,0.00013667400000000004,4.739,0,0
-0.0001867832,0.0008979999999999999,0.0014060186,-0.0025642580000000002,8.66914e-05,4.74,0,0
-0.00027588760000000004,-0.0014271480000000005,0.0003988186,-0.002430582,0.00012175719999999994,4.741,0,0
0.00037038839999999995,-0.003906706,-0.0010647734000000001,-0.0028959060000000006,0.0002669474,4.742,0,0
0.0012944357999999999,-0.0043463894,-0.0015491834000000003,-0.0021530640000000005,0.00024144599999999998,4.743,0,0
0.0022855139999999998,-0.0033147034,-0.0023970376,-0.00010748799999999998,0.00045040900000000003,4.744,0,0
0.003154492,-0.0018889614000000001,-0.0029015440000000003,0.001019906,0.0006104716,4.745,0,0
0.0033794012,0.0006762626000000003,-0.0024569034000000004,0.001790986,0.0003461706,4.746,0,0
0.002975803,0.0035387726,-0.0017652454000000003,0.0036028920000000003,0.00045176900000000003,4.747,0,0
0.0022554230000000003,0.004625186,-0.0012856114000000002,0.00462491,0.00083869,4.748,0,0
0.0012534924800000002,0.004290718,-0.0003893954,0.00415157,0.0005165916,4.749,0,0
0.0003047244800000002,0.004059998,0.0008815186,0.00462463,0.0003216034,4.75,0,0
0.00012811208000000014,0.002980704,0.000959412,0.004981542,0.0008160438000000001,4.751,0,0
-2.6624719999999933e-05,0.000744106,0.000602104,0.0034861519999999997,0.0005670172,4.752,0,0
-0.00045787571999999994,-0.0008396580000000001,0.0004367938,0.0024807519999999997,7.49692e-05,4.753,0,0
-0.0004195972,-0.002093116,-0.0001849922000000001,0.0022261539999999997,0.000207411,4.754,0,0
-4.208479999999999e-05,-0.00478255,-0.0008886056000000001,0.0005713,-0.00017542079999999997,4.755,0,0
3.47174e-05,-0.006955716000000001,-0.0008977096000000001,-0.0012063900000000001,-0.0011780068,4.756,0,0
-0.0004485476,-0.006841634,-0.0005872534000000001,-0.0014060400000000003,-0.0015225686,4.757,0,0
-0.0009506906,-0.007025188,-0.0003588092,-0.001983214,-0.0011835942000000001,4.758,0,0
-0.0014231906,-0.006997058,0.0008160588,-0.002617904,-0.0011435396000000003,4.759,0,0
-0.0025190229999999996,-0.0051138519999999995,0.0024459762,-0.0015710720000000002,-0.0006657936000000002,4.76,0,0
-0.003307968,-0.0037840320000000005,0.0036276102,-0.00033102000000000007,0.0006493084000000002,4.761,0,0
-0.002436146,-0.002656936000000001,0.004562586,-5.3293999999999995e-05,0.0015539644000000003,4.762,0,0
-0.001203586,0.0004539520000000003,0.004991666,0.000596522,0.0014928100000000002,4.763,0,0
-0.0007731970400000003,0.002817434,0.00498716,0.0013976740000000002,0.0014426286000000003,4.764,0,0
0.00024667936,0.003941892000000001,0.003454891246,0.0007043780000000003,0.0012760716000000001,4.765,0,0
0.00111722276,0.005755932,0.0001732772460000002,-0.00011685,0.0003670856,4.766,0,0
7.307276000000009e-05,0.005716496000000001,-0.0024846487539999995,-8.061119999999992e-05,8.902080000000001e-05,4.767,0,0
-0.00111513124,0.0033782334,-0.0037614307539999997,-0.0011509212000000001,0.00029552880000000004,4.768,0,0
-0.0015152382000000002,0.0018303034000000003,-0.004539626754,-0.0028179632000000007,0.0001597442,4.769,0,0
-0.0017678606000000002,0.0014855474,-0.0044588968,-0.0029686512,0.00031648920000000005,4.77,0,0
-0.0007274400000000002,0.0013688574000000002,-0.0027224228000000002,-0.0030218452000000005,0.0006328688,4.771,0,0
0.00145026,0.0019015934,-0.0014936828,-0.003821352,0.0003400308,4.772,0,0
0.0025985400000000007,0.002892482,-0.0018377788,-0.003544608,-0.00013727919999999998,4.773,0,0
0.00319165,0.0033707460000000004,-0.0023626528,-0.002654152,-0.0002963192,4.774,0,0
0.0035190858000000006,0.0028879712,-0.0032242600000000005,-0.0027785880000000002,-0.0005728874000000001,4.775,0,0
0.002303856,0.0020757673999999998,-0.0031984360000000002,-0.002450514,-0.000867289,4.776,0,0
0.0004919660000000001,0.0015105414000000004,-0.0019246880000000004,-0.001110648,-0.0009487300000000001,4.777,0,0
-0.0006326099999999999,0.00041582740000000015,-0.00076391,-0.000520501,-0.0005503032000000001,4.778,0,0
-0.0012176140000000001,-0.0009676385999999999,0.0001334319999999999,-0.000671011,-0.0002465992,4.779,0,0
-0.0014653756,-0.0012284318,0.0010613935999999999,0.0002762330000000001,-0.00031188220000000005,4.78,0,0
-0.00143257,-0.0008731025999999998,0.0016522916,0.0014506270000000001,-0.00012409880000000003,4.781,0,0
-0.0016948920000000004,-0.0014747726,0.0013725196,0.0009377720000000001,-0.00014660900000000002,4.782,0,0
-0.0021368360000000005,-0.0019243786,0.0016493016,0.001115511,-0.0006256698,4.783,0,0
-0.0026245340000000004,-0.0016006406000000002,0.0022962716,0.0023865690000000003,-0.0009572798000000001,4.784,0,0
-0.0028071402,-0.0024327626000000004,0.002405476,0.0022488858000000002,-0.0008375102200000001,4.785,0,0
-0.00309685,-0.0039185700000000006,0.0024789319999999997,0.0014209752,-0.00090538382,4.786,0,0
-0.002858828,-0.004121622,0.002785984,0.0015492994000000002,-0.00098354982,4.787,0,0
-0.0006055419999999999,-0.0037802300000000007,0.0029003580000000004,0.0010743182,-0.00074391862,4.788,0,0
0.0016101000000000004,-0.003811856,0.0023326080000000003,-9.78579999999995e-06,-0.00041796142000000006,4.789,0,0
0.0021447050000000002,-0.0027463484000000006,0.0019798982,0.00010074340000000006,-0.0005108374,4.79,0,0
0.0023207710000000006,-0.0009341944000000001,0.0013139122000000003,0.00014904280000000006,-0.0007716812,4.791,0,0
0.0026911258000000006,-0.000272763,-8.963979999999992e-05,-0.0005885224,-0.0005437506000000001,4.792,0,0
0.001394168358,0.00040467300000000003,-0.0004203618000000001,-0.0004321757999999999,-0.0005641718000000001,4.793,0,0
-0.000638627642,0.0013860770000000003,-4.303380000000021e-05,0.0005719162000000001,-0.0006079556000000001,4.794,0,0
-0.001577430642,0.0019561974,-0.0009235720000000001,0.0005335562000000001,-0.0004017556,4.795,0,0
-0.0017445346419999999,0.0034837754000000003,-0.0022264019999999997,0.0008989494,0.00014728940000000002,4.796,0,0
-0.001352491442,0.005704754000000001,-0.001862156,0.0024722954000000004,0.0008986008000000001,4.797,0,0
-0.0003946319999999998,0.006875438000000001,-0.000697512,0.0028152660000000003,0.0015323788,4.798,0,0
0.0008506520000000001,0.007432586000000001,-9.66020000000001e-05,0.0019227380000000002,0.0019492514000000003,4.799,0,0
0.0017302766,0.007898034,0.0013925200000000004,0.0017566876,0.002262791,4.8,0,0
0.0022739644,0.0056548622,0.0033893580000000003,0.0013325246,0.0026628840000000003,4.801,0,0
0.0018237435800000001,0.0009431221999999999,0.0037172001999999996,-0.0004936754000000001,0.002536406,4.802,0,0
0.0010465747800000001,-0.0027390158000000003,0.0017788302000000004,-0.0016152814000000002,0.002032754,4.803,0,0
0.00074829678,-0.0050675078,-0.0007665818000000002,-0.0019929014,0.001222458,4.804,0,0
0.0004992159800000001,-0.0073016318000000005,-0.0029899658,-0.003263143,0.000495518,4.805,0,0
0.00053050238,-0.007856386,-0.0052390318,-0.004269064,-0.00023084200000000006,4.806,0,0
0.0006256502000000001,-0.0057824619999999995,-0.005904346,-0.0034272580000000003,-0.0010769520000000002,4.807,0,0
0.000710943,-0.0038507400000000005,-0.005754162,-0.00229192,-0.0014778200000000001,4.808,0,0
0.000898337,-0.00245397,-0.005357931999999999,-0.001305128,-0.001750676,4.809,0,0
0.0007139332,-0.0007809220000000001,-0.0033489540000000003,0.001097764,-0.001919942,4.81,0,0
-6.171900000000001e-05,0.00040078199999999997,-0.001082746,0.0033496800000000003,-0.0021274980000000002,4.811,0,0
-0.0006441820000000001,0.000321134,-4.4711999999999974e-05,0.003993054,-0.00219728,4.812,0,0
-0.001124522,9.816799999999999e-05,0.000745664,0.004582294000000001,-0.0018804909999999998,4.813,0,0
-0.0015099492,0.00023946640000000003,0.0016421096000000003,0.005153192,-0.0014359166,4.814,0,0
-0.0013736716000000001,-0.0006254936,0.0017224596000000002,0.004106148600000001,-0.0010630162,4.815,0,0
-0.0010752456,-0.0011150548000000001,0.0020042476,0.00279102,-0.0010011482,4.816,0,0
-0.0010264676,0.0003460892,0.0026171796,0.0024158020000000003,-0.0009443742000000001,4.817,0,0
-0.0012636536,0.0019687532000000002,0.0024456656,0.001118348,-0.0006649466000000001,4.818,0,0
-0.0014042438000000002,0.0024815768,0.0023030039999999996,-0.0006372659999999999,-0.00040989840000000004,4.819,0,0
-0.0015105214,0.0037632088,0.002384938,-0.0010998986,-0.000350158,4.82,0,0
-0.0013978250000000001,0.004470946000000001,0.0018916418000000002,-0.001660392,-6.129136000000003e-05,4.821,0,0
-0.0010895744000000002,0.0024272820000000002,0.0014959618,-0.00325227,0.00039180024,4.822,0,0
-0.0006031712000000001,0.00015759,0.0016850918,-0.003946334,0.00019283164000000002,4.823,0,0
0.0007618202000000001,-0.00046257650000000003,0.0012328958000000002,-0.0035176520000000005,1.2526040000000025e-05,4.824,0,0
0.0027791522,-0.0015618391,-0.00023951219999999984,-0.0038924359999999996,0.00016442164,4.825,0,0
0.0038104258000000004,-0.0031437371,-0.0008886959999999999,-0.004023462,0.000141893,4.826,0,0
0.0040191888,-0.0022495737,-0.001071832,-0.0022400339999999997,0.00028305940000000003,4.827,0,0
0.004219365600000001,-0.0003424617,-0.0015365628,-0.0007977640000000003,0.0007814794,4.828,0,0
0.0031370316,0.0009179468000000002,-0.0009897462,-0.000457314,0.0012669124,4.829,0,0
0.0013100542000000002,0.0026012974,0.00012859260000000006,0.001045616,0.001685752,4.83,0,0
0.0005668396000000001,0.0043090974,0.0008696506,0.002430888,0.002263296,4.831,0,0
0.0007658360000000001,0.004342976,0.0007014636,0.0020880442,0.00198574892,4.832,0,0
6.574200000000009e-05,0.002891732,0.0006124591999999999,0.0022961322000000003,0.00133444132,4.833,0,0
-0.001061224,0.0008565119999999998,0.0010124686,0.0029563502000000005,0.00144057932,4.834,0,0
-0.0012269006000000002,-0.0017402180000000004,0.0008008964,0.0015250642,0.00134065132,4.835,0,0
-0.0015590579999999999,-0.003397242,0.0002595684,0.0001664822000000001,0.0007380559200000001,4.836,0,0
-0.002282168,-0.0038548760000000006,6.679179999999997e-05,0.0001470254,0.000499785,4.837,0,0
-0.0022030440000000004,-0.0040635440000000005,0.00012612995999999996,-0.0012059086,0.00047538020000000003,4.838,0,0
-0.0015774580000000001,-0.0036537640000000008,-6.537204000000001e-05,-0.0029084706,-0.0002198018,4.839,0,0
-0.0017840280000000002,-0.0020625300000000004,0.00054207336,-0.0026896426,-0.0008900618000000001,4.84,0,0
-0.001860658,-0.00021388600000000037,0.00127745136,-0.0023246805999999997,-0.0011232524,4.841,0,0
-0.0013514286000000002,0.0010013599999999998,0.0008087129600000001,-0.00321654,-0.0013056504000000001,4.842,0,0
-0.0010652604,0.002110346,0.001098614,-0.0025146120000000003,-0.0012864524000000001,4.843,0,0
-0.0006960898000000002,0.0025992556,0.001531728,-0.0005782600000000001,-0.0008843918,4.844,0,0
-0.0004272216000000001,0.0022785170000000003,3.249600000000013e-05,0.00010908399999999985,-0.0003819218,4.845,0,0
-0.0004566276,0.0016512389999999999,-0.0018576480000000002,0.001182964,-0.0001335286,4.846,0,0
-0.000821971,0.0012209450000000002,-0.002162822,0.003062884,0.0003592076,4.847,0,0
-0.0010084872,0.001286285,-0.0022510940000000004,0.0033929560000000004,0.0006509756,4.848,0,0
-0.0010197876,0.0013275580000000002,-0.002863033,0.0022522160000000005,0.0003555418,4.849,0,0
-0.0010440818000000001,0.0013786406,-0.0016985206000000002,0.0020367086,-6.897199999999999e-05,4.85,0,0
-0.0004679438,0.0011595074,0.00010460339999999996,0.0015613126000000002,-7.346679999999998e-05,4.851,0,0
0.00022255019999999998,9.571340000000001e-05,0.0008604014,-0.00010476939999999986,0.0002662210000000001,4.852,0,0
0.00014399419999999995,-0.0008216886000000001,0.0009419434000000001,-0.0008404073999999999,0.0002700094,4.853,0,0
-0.00021938000000000003,-0.0011483906000000002,0.0006096808,-0.0008738273999999999,0.000317396,4.854,0,0
6.823099999999988e-05,-0.0023295486,0.00017291839999999996,-0.002000142,0.0004305772000000001,4.855,0,0
0.0005833769999999999,-0.0030520294,-0.0004802136000000001,-0.0036473500000000006,0.00010161480000000009,4.856,0,0
0.000979875,-0.0018073134000000004,-0.0007342916000000002,-0.0035852880000000003,-0.0004457412,4.857,0,0
0.0013690050000000002,-0.0011111362,-0.0012406156000000002,-0.0033050612000000007,-0.0003579032,4.858,0,0
0.001404363,-0.0012838568000000002,-0.0016214660000000002,-0.0035638692000000004,-0.00017171180000000004,4.859,0,0
0.0009075900000000002,-0.0002305436000000001,-0.0012608664000000002,-0.0018392691999999998,-3.683879999999999e-05,4.86,0,0
-0.000270526,0.0005118064,-0.0007062164,0.0007109168,0.00033433538000000006,4.861,0,0
-0.001447612,-0.00027331160000000003,0.0001898456,0.0016271288,0.00022813138000000004,4.862,0,0
-0.000971264,-9.34868e-05,0.0007923996,0.0026142680000000003,6.601998000000002e-05,4.863,0,0
0.0006581840000000001,0.0010038892,0.0009473256000000002,0.00439811,1.466558000000001e-05,4.864,0,0
0.0019031720000000003,0.0008624236000000001,0.0007895748,0.004346664,-8.684282000000001e-05,4.865,0,0
0.0026700600000000006,0.0004895235999999999,0.0005963612000000001,0.0035912440000000004,-0.0001826102,4.866,0,0
0.0031000626000000004,0.0009910586000000002,0.00039857720000000007,0.003833726000000001,6.95146e-05,4.867,0,0
0.0029295646,0.0003512166,5.573880000000004e-05,0.0031392244000000005,0.000239442,4.868,0,0
0.0016317261999999999,-0.0013667494000000001,0.00024090680000000004,0.0012053524000000002,6.385699999999998e-05,4.869,0,0
0.0001759041999999999,-0.001947327,8.580399999999998e-05,-3.1129599999999953e-05,0.00012750719999999997,4.87,0,0
-0.0005127978,-0.002047699,-0.0007457904,-0.0011330536,0.00016042119999999996,4.871,0,0
-0.0007961224000000002,-0.0027545980000000005,-0.0013397874,-0.0031589636,-0.00013897760000000002,4.872,0,0
-0.00111405088,-0.0024839302,-0.0018532849999999999,-0.004343746,-0.0004815358,4.873,0,0
-0.00112606268,-0.0007266362000000002,-0.0022827950000000002,-0.0043376560000000005,-0.0005697876,4.874,0,0
-0.00041693248000000005,-9.200528000000015e-05,-0.002500791,-0.004905756,-0.0007392558000000001,4.875,0,0
3.437411999999999e-05,1.5856719999999907e-05,-0.0018518546,-0.0047871300000000006,-0.00067443122,4.876,0,0
-0.00024402387999999996,0.0011398067199999999,-0.0008785375999999999,-0.00240588,-0.00026265502,4.877,0,0
-0.00022513099999999994,0.00133312472,0.00022713439999999996,-0.0002655279999999999,0.00026920918,4.878,0,0
0.00042163120000000007,0.00033398572,0.0018824424,0.001324012,0.00064915758,4.879,0,0
0.000612167,0.0004189666,0.0037952164,0.003945504,0.00080045018,4.88,0,0
0.0005762088000000001,0.0010077326,0.00489422,0.005849384,0.0011394688,4.881,0,0
0.0009047987999999999,0.0006959826000000001,0.003676414,0.005694826,0.0009980626,4.882,0,0
0.0005919523999999998,0.0012053828000000003,0.0025867419999999995,0.005505968,0.00032286059999999994,4.883,0,0
-0.0005143996,0.0018142058000000002,0.0024516679999999997,0.005762456,-4.760279999999997e-05,4.884,0,0
-0.0013327095999999998,0.0014404420000000001,0.001268848,0.004390392,-0.0002929334,4.885,0,0
-0.0020493720000000003,0.0015426720000000001,-0.001067124,0.0023999399999999997,-0.0007894680000000001,4.886,0,0
-0.002650606,0.0024696780000000003,-0.002719218,0.001235226,-0.0008652156000000001,4.887,0,0
-0.002645002,0.0026122380000000002,-0.0029739140000000002,-0.000520908,-0.0009294996000000002,4.888,0,0
-0.00199554,0.002413314,-0.0034123779999999998,-0.002818696,-0.0014157962,4.889,0,0
-0.0010187360000000001,0.00304837,-0.0032250119999999993,-0.0033371720000000002,-0.0012724473999999998,4.89,0,0
-6.307200000000006e-05,0.0018774559999999998,-0.0014238399999999996,-0.00280282,-0.0008130428,4.891,0,0
0.00145852,-0.0006074019999999999,0.00014360200000000005,-0.003017746000000001,-0.0008216603999999999,4.892,0,0
0.002966858,-0.0012239088000000002,0.00013908599999999996,-0.002416476,-0.0006285064000000001,4.893,0,0
0.003568028,-0.0010936888,-0.000760666,-0.0010475940000000002,0.00014136799999999995,4.894,0,0
0.003389174,-0.0025432308000000008,-0.001637604,-0.0004505592000000001,0.0003932088,4.895,0,0
0.003045780000000001,-0.0035251208000000008,-0.001846144,7.34479999999995e-06,0.00011381839999999996,4.896,0,0
0.0021740302000000005,-0.0028673428000000004,-0.0009855480000000002,0.0011491708000000002,0.0002717566,4.897,0,0
0.0005726882000000001,-0.0030424320000000007,0.00021576199999999999,0.0016981568000000002,0.0006096046000000001,4.898,0,0
-0.0007542478,-0.0037779880000000004,0.00123915,0.0010287388000000002,0.00046419980000000005,4.899,0,0
-0.0016835598000000001,-0.002693828,0.002654582,0.0008400300000000002,0.0003153878,4.9,0,0
-0.0020581578000000004,-0.00020531599999999998,0.00345679,0.0007428060000000002,0.0008989562000000001,4.901,0,0
-0.002205936,0.0008610680000000002,0.003547956,-0.00042830600000000004,0.0012983232000000002,4.902,0,0
-0.0024771640000000004,0.00111051,0.0038583600000000003,-0.001150512,0.0009239066,4.903,0,0
-0.0023172140000000006,0.0018626120000000003,0.0034496000000000006,-0.0008028288000000001,0.0007802604000000001,4.904,0,0
-0.0010628860000000003,0.001583974,0.0019566279999999998,-0.0016355588,0.0007454877800000001,4.905,0,0
0.0007497220000000001,0.0006588353999999999,0.000515592,-0.0028734128,-3.704242000000002e-05,4.906,0,0
0.0019506220000000004,0.00037599339999999995,-0.00021773600000000006,-0.0026019468,-0.0009171684200000001,4.907,0,0
0.0024815868000000003,0.0001823656,-0.0019085160000000003,-0.0030810848,-0.0009643238200000001,4.908,0,0
0.0022206268000000006,0.0001893696,-0.0036926240000000003,-0.004071132000000001,-0.0008088574200000001,4.909,0,0
0.0009246408000000004,0.0015366076000000002,-0.0037020760000000003,-0.0028995040000000002,-0.0010525404000000002,4.91,0,0
-0.0008957292,0.0027223882,-0.003556628,-0.0013706219999999997,-0.0007903014000000001,4.911,0,0
-0.0020880372,0.0024918206000000003,-0.003448978,-0.0010072501999999998,-0.00024917660000000003,4.912,0,0
-0.0023543960000000004,0.0022521584000000003,-0.002085562,0.0005458058000000002,-0.00017229480000000003,4.913,0,0
-0.0018537446,0.0015805223999999997,-9.633999999999999e-05,0.0024508938000000003,9.77754e-05,4.914,0,0
-0.0008540366000000003,-0.00043149759999999986,0.0006508,0.0022038578000000003,0.0007412054000000001,4.915,0,0
-0.00022926060000000003,-0.0023078876,0.0008792422,0.0014716856000000001,0.0006919764000000001,4.916,0,0
-3.5094800000000056e-05,-0.0027023000000000004,0.0014690562,0.0015381438000000003,0.0005016640000000001,4.917,0,0
0.00043961280000000003,-0.0031792960000000003,0.001135789,0.0008421452000000002,0.0007390424,4.918,0,0
0.0006693562000000001,-0.003973606,0.000764707,-0.0003515128,0.00035870199999999997,4.919,0,0
0.00011330820000000002,-0.003734162,0.000936099,-0.00046130440000000003,0.00013833280000000002,4.92,0,0
-0.0003562958,-0.003446116,0.0011302198,-0.0006199222,0.000493509,4.921,0,0
-0.0006742356,-0.003579118,0.0010644318,-0.0018704042,0.0006927546000000001,4.922,0,0
-0.0012547872000000001,-0.0035068480000000008,0.0009641160000000002,-0.0026159456,0.0008217884000000001,4.923,0,0
-0.0018334960000000002,-0.0019821340000000004,0.0013991360000000003,-0.0022194004,0.0010628706,4.924,0,0
-0.0016497824,0.0004346040000000001,0.0018568660000000002,-0.0023391868000000003,0.0006955152000000001,4.925,0,0
-0.0013689182,0.00247144,0.002495925,-0.00213442,-0.0001699968,4.926,0,0
-0.0010985332000000001,0.005125338,0.001831307,-0.00024280800000000017,-0.00045351000000000007,4.927,0,0
1.4972800000000088e-05,0.007877270000000002,1.9145999999999833e-05,0.001073762,-0.0005215706,4.928,0,0
0.0009965248000000002,0.008817422,-0.0009696560000000003,0.0012913948,-0.0007005310000000001,4.929,0,0
0.0008315212000000001,0.00783752,-0.0014884079999999999,0.0026034648,-0.0005687866000000001,4.93,0,0
9.10869999999999e-05,0.005587386,-0.0016888660000000002,0.0040671380000000005,-0.00027611560000000005,4.931,0,0
-0.00019677599999999985,0.002111134,-0.0012003538000000002,0.0036101660000000006,-0.00039528040000000005,4.932,0,0
-0.0010022146,-0.0011417560000000005,0.00019305220000000005,0.003577324,-0.0006417848,4.933,0,0
-0.0018393926,-0.0032785880000000007,0.0005895542000000002,0.00449668,-0.0007297170000000001,4.934,0,0
-0.0018255966,-0.004978982,-0.00036786980000000005,0.0036263999999999997,-0.0009107948000000001,4.935,0,0
-0.0014843486000000001,-0.0051476540000000015,-0.0011600914000000002,0.002092254,-0.0008419084000000001,4.936,0,0
-0.0005367866000000001,-0.0035735026,-0.0014321120000000001,0.0017974057999999998,-0.0006296706,4.937,0,0
0.0008564280000000001,-0.0025928272,-0.001705692,0.0008773738000000001,-0.0006455710000000001,4.938,0,0
0.002615704,-0.0022228352,-0.002401874,-0.0013581662,-0.0005891032000000001,4.939,0,0
0.0044800840000000005,-0.0007396432000000002,-0.00257432,-0.0024445642000000003,-0.000355952698,4.94,0,0
0.005754378,0.00021917840000000002,-0.0027490984000000003,-0.0026515702,8.935590200000003e-05,4.941,0,0
0.005483730000000001,-0.0007036970000000001,-0.002940776,-0.0033164920000000003,0.000261260902,4.942,0,0
0.0040687532000000005,-0.0008029744000000001,-0.001913398,-0.002708948,-4.6719698e-05,4.943,0,0
0.0021178952,0.00010890359999999992,-0.00021058399999999988,-0.0004598120000000002,5.243530200000002e-05,4.944,0,0
8.382719999999982e-05,-0.00014798440000000012,0.0010322880000000001,0.000971878,0.0002398446,4.945,0,0
-0.0012452288,-1.865800000000009e-05,0.001692824,0.0015874996000000002,-0.00010599542000000003,4.946,0,0
-0.0021958007999999998,0.0015682740000000001,0.0023329220000000003,0.0029287176000000006,0.00011112178,4.947,0,0
-0.002397694,0.002593634,0.0026446860000000003,0.0035624276,0.00120984178,4.948,0,0
-0.0018764915999999999,0.0023677280000000004,0.0021984200000000004,0.0024978252,0.0015893217800000002,4.949,0,0
-0.0015972199999999999,0.0027982659999999998,0.002046208,0.0017196306000000002,0.00114014998,4.95,0,0
-0.0011881596,0.0036994760000000006,0.0021391280000000006,0.0012582250000000002,0.00095932,4.951,0,0
-0.00030459160000000004,0.0029847344000000003,0.0017477938000000001,-0.000410655,0.0007870138000000003,4.952,0,0
0.00022320960000000003,0.0019730584,0.0012016668,-0.0021301230000000003,0.00015969580000000006,4.953,0,0
0.0007140132000000001,0.0015566226000000001,0.0005979088,-0.0026971666,-0.0002627838,4.954,0,0
0.0014031436000000001,2.9774599999999977e-05,-0.00016352520000000004,-0.0034273920000000005,6.105940000000003e-05,4.955,0,0
0.0016003988000000003,-0.0021299053999999998,-0.0008460992000000001,-0.004161088,0.00021327620000000005,4.956,0,0
0.0012636016000000003,-0.0029737258000000003,-0.0009226434000000001,-0.0037253440000000002,-3.85844e-05,4.957,0,0
0.0008173724000000004,-0.0034795578,-0.0011941726000000003,-0.0033351920000000003,-0.0001291788,4.958,0,0
-7.070759999999992e-05,-0.004405702,-0.0015129626000000003,-0.003110864,-0.0004619232,4.959,0,0
-0.0014535956,-0.003989622,-0.0009181834000000001,-0.0015462280000000002,-0.0009680144,4.96,0,0
-0.0024880212,-0.002745525,-0.0003401014,0.00031281000000000006,-0.000824594,4.961,0,0
-0.003145852,-0.001601193,0.00015386900000000005,0.001119864,-0.0003607312,4.962,0,0
-0.0035984180000000004,7.899700000000003e-05,0.0014539612000000002,0.002634492,-0.00012055479999999993,4.963,0,0
-0.0034436318000000002,0.0020651310000000004,0.0027801252,0.004316292,0.0003576168,4.964,0,0
-0.0023172938,0.0032332730000000005,0.0028752260000000003,0.00408381,0.0009484852000000001,4.965,0,0
-0.0016201114000000002,0.002610064,0.0030587080000000003,0.0031134484,0.0009672204000000001,4.966,0,0
-0.0012286174000000001,0.000894812,0.0033578420000000006,0.0026562063999999996,0.0007015932,4.967,0,0
0.0005588926000000001,-0.0008165780000000001,0.0015236899999999999,0.0014242964,0.0006011084000000001,4.968,0,0
0.0024161444000000004,-0.0032011520000000005,-0.000544798,-0.0006681716,0.00035827099999999996,4.969,0,0
0.0030019424,-0.006299034,-0.0013101460000000003,-0.0015043696000000002,1.9344799999999998e-05,4.97,0,0
0.0038720240000000004,-0.008075416,-0.002589142,-0.0018117020000000003,-0.0003123792,4.971,0,0
0.005044186000000001,-0.008306506,-0.00390992,-0.002752226,-0.0007660400000000001,4.972,0,0
0.00452421,-0.007900106,-0.0035430720000000004,-0.002986092,-0.0012346872,4.973,0,0
0.0033199640000000003,-0.005423558,-0.0022090390000000007,-0.002154727,-0.0011701842000000002,4.974,0,0
0.0030076480000000004,-0.0013018439999999997,-0.0016183672,-0.002048461,-0.0006004404,4.975,0,0
0.002750778,0.0022226140000000004,-0.0006184796,-0.002060705,-0.0002066944,4.976,0,0
0.0021120784,0.005163606,0.0006795684000000001,-0.0004892169999999999,0.00039783760000000005,4.977,0,0
0.0016326584,0.0066958239999999995,0.0012312084,0.0006737350000000002,0.0011148936,4.978,0,0
0.0006973304,0.0057446015999999996,0.0018976114000000001,0.0009312260000000001,0.0009594944000000001,4.979,0,0
-0.0005231756000000001,0.0045394376000000005,0.0017097064000000002,0.0021465720000000002,0.00038839200000000004,4.98,0,0
-0.0011400634,0.004412217600000001,-4.2219199999999875e-05,0.003389484,4.915119999999987e-05,4.981,0,0
-0.0014149804000000003,0.0039844256,-0.0016749852,0.0030295196,-0.00040658040000000006,4.982,0,0
-0.0016499004,0.0042955236,-0.0009989792,0.0025593236,-0.0007614871580000001,4.983,0,0
-0.0017381844,0.006209928,0.0001990208000000001,0.0028150916000000002,-0.0005762177580000001,4.984,0,0
-0.0015463984,0.006939015999999999,0.0008585779999999999,0.0020039368000000003,-0.000226112158,4.985,0,0
-0.0015486604,0.006223144,0.00276875,0.0009068308,-0.00011045835800000001,4.986,0,0
-0.0013586262,0.005538566,0.004148204,0.0005455892,-0.00013317475800000002,4.987,0,0
-0.0008622462,0.00343464,0.0029744540000000005,-0.0005807987999999998,-0.0003250184,4.988,0,0
-0.0005693122,-0.0005390460000000005,0.0008254820000000001,-0.0024567368,-0.0005466438,4.989,0,0
-0.0005125282,-0.004129324,-3.361999999999983e-05,-0.003377986,-0.000568654,4.99,0,0
-0.0002572656,-0.006134556,-0.001076788,-0.003474254,-0.0003380974000000001,4.991,0,0
6.576680000000004e-05,-0.007166828,-0.002881868,-0.003979694,-0.00024876860000000006,4.992,0,0
-0.000405821,-0.0070001479999999994,-0.0032205260000000005,-0.0035577039999999996,-0.00031752220000000005,4.993,0,0
-0.000901331,-0.0050447420000000005,-0.0027165260000000004,-0.0018056360000000002,8.254759999999997e-05,4.994,0,0
-0.0012401410000000002,-0.0026732572,-0.0024793108000000005,-0.0006820639999999998,0.00042551460000000003,4.995,0,0
-0.0022680118,-0.0010145879999999999,-0.0011918208,0.00013938400000000015,0.00030586700000000003,4.996,0,0
-0.0036294498,0.000352432,0.0011156792000000001,0.002103362,0.0004796964000000001,4.997,0,0
-0.00382671,0.0012138259999999999,0.0025082012,0.0035557360000000003,0.0009481864000000001,4.998,0,0
-0.0033969720000000007,0.001169112,0.0030214132,0.0033994340000000007,0.0008817974000000001,4.999,0,0
-0.0033142500000000004,0.0009250432000000001,0.0038260620000000003,0.0037256760000000002,0.0006343513999999999,5.0,0,0
-0.0018168420000000002,0.0008473267999999999,0.002802836,0.0037489340000000006,0.000819809,5.001,0,0
0.0007311940000000001,0.0004059088,-0.0004803339999999998,0.0020375220000000004,0.0004231867999999999,5.002,0,0
0.00204797,0.0003788348,-0.002631408,0.0004996620000000001,-0.0003617512,5.003,0,0
0.0026939140000000004,0.0011913388,-0.004128288,-0.0004951099999999998,-0.00042759000000000004,5.004,0,0
0.0038126500000000008,0.0015519038000000001,-0.006047014,-0.002470908,-0.0007493128000000001,5.005,0,0
0.0035146400000000003,0.0015440070000000002,-0.0062988160000000005,-0.004248926,-0.0013341148000000002,5.006,0,0
0.0016739939999999996,0.002264607,-0.004501624,-0.004320506,-0.0010920428000000002,5.007,0,0
0.0007829043999999999,0.0021201230000000002,-0.0037264539999999997,-0.004204448,-0.00048410520000000004,5.008,0,0
0.0003095693999999999,0.00039290700000000007,-0.003447452,-0.0040648,-0.00047200054,5.009,0,0
-0.0009930386000000001,-2.502400000000001e-05,-0.0013908120000000004,-0.002352764,-0.0005947697400000001,5.01,0,0
-0.0016759046000000002,-5.2974000000000255e-05,0.000290742,-0.00033617200000000014,-0.00030209354000000003,5.011,0,0
-0.0017907466000000002,-0.001499444,0.001458436,0.0004981639999999999,-0.00030334154,5.012,0,0
-0.002797695,-0.0018865634,0.00308075,0.0015323100000000003,-0.00066928114,5.013,0,0
-0.0033448440000000005,-0.0007276221999999999,0.004239496000000001,0.003172774,-0.0007817676,5.014,0,0
-0.0030064980000000007,-0.00046642599999999993,0.0041264480000000004,0.0036779020000000003,-0.0004309422,5.015,0,0
-0.0026238372,-0.00040566599999999995,0.0035479620000000004,0.0031911860000000004,5.952959999999999e-05,5.016,0,0
-0.0015358711999999997,0.000963092,0.0032412020000000003,0.0032938960000000006,0.0005915616,5.017,0,0
0.0005889967999999999,0.0018811714000000002,0.0021641434,0.0025836712000000006,0.0009306848799999999,5.018,0,0
0.0028093388,0.0018491336000000002,0.0011710774000000003,0.0002673091999999997,0.0009150606799999999,5.019,0,0
0.004048318800000001,0.0021673874,0.0004921338000000001,-0.0015180788000000002,0.00089630748,5.02,0,0
0.0039905982,0.0022765612000000004,-0.0003173201999999999,-0.0029571828000000003,0.0005674600800000001,5.021,0,0
0.0030474702,0.0008286471999999999,-0.0009460881999999999,-0.005015870800000001,-0.00014051592000000003,5.022,0,0
0.0016175502,-0.0007357867999999999,-0.0014226536,-0.0058162660000000005,-0.00047053720000000005,5.023,0,0
-0.0002377778,-0.0013290342,-0.0015769615999999998,-0.0048268942,-0.0004852362,5.024,0,0
-0.001062208,-0.0022742902,-0.001961658,-0.0040675868,-0.0008307044000000001,5.025,0,0
-0.0008747118000000002,-0.0032511700000000003,-0.0018044800000000002,-0.0026953258000000004,-0.0011649792,5.026,0,0
-0.0010394518,-0.0028972,-0.001019758,-0.00013054579999999998,-0.0006934332000000001,5.027,0,0
-0.0009393996,-0.0024483179999999997,-0.00029658000000000006,0.0013210562000000002,1.3212799999999915e-05,5.028,0,0
-0.00047034119999999995,-0.002579672,0.00015717080000000002,0.0017520564,0.0003975398,5.029,0,0
-0.000602889,-0.001471918,0.0005043158,0.002776677,0.0009779038,5.03,0,0
-0.0006292906,4.475399999999982e-05,0.0010189938,0.0034045,0.0015074700000000001,5.031,0,0
0.00026275539999999996,0.00037295059999999997,0.0008322118000000001,0.002681849,0.001608694,5.032,0,0
0.0010009472,0.0009630826000000001,0.0010617898,0.002562733,0.0013095608000000003,5.033,0,0
0.0015909388,0.0020526066,0.001753237,0.0030496370000000004,0.0007800088000000001,5.034,0,0
0.0023534228000000003,0.0014893242,0.00173931,0.002419973,0.0001291488,5.035,0,0
0.0024861696,0.0005875522000000002,0.00202447,0.0017121754000000004,-0.0004310852,5.036,0,0
0.0016848136000000003,0.0013897756000000002,0.0025283519999999998,0.0020135284000000002,-0.0007167196000000001,5.037,0,0
0.0008012076,0.0013764096000000003,0.0020303108,0.0016479384000000002,-0.0008128823999999999,5.038,0,0
-0.0005115244000000001,-0.0009392104000000001,0.0010452967999999999,6.153639999999998e-05,-0.0005836088,5.039,0,0
-0.0017936044000000002,-0.0018619800000000005,0.0005198767999999999,-0.0007498716000000001,-0.0001904478,5.04,0,0
-0.0014401140000000002,-0.0007278400000000001,-0.0005070632000000002,-0.001154028,0.0002762682,5.041,0,0
-0.0011841698000000004,-0.002037138,-0.0014973572,-0.002494248,0.0003428694,5.042,0,0
-0.0017643978000000003,-0.004179118,-0.0011644580000000004,-0.003092998,0.00021601560000000003,5.043,0,0
-0.0008515338000000003,-0.002758672,-0.001175884,-0.001969314,0.0007804560000000001,5.044,0,0
0.0012727602,-0.0012959560000000002,-0.0019431140000000001,-0.0011802459999999996,0.0009064250000000001,5.045,0,0
0.0016926982000000001,-0.00256361,-0.001952112,-0.0006655036,0.00048293000000000007,5.046,0,0
0.0015334180000000002,-0.0023347514,-0.001472438,0.0010540744,0.0008014212,5.047,0,0
0.0023287116,-9.790939999999995e-05,-0.0016052891999999998,0.0024593823999999997,0.0011673810000000003,5.048,0,0
0.0022574376000000004,0.0006595706000000002,-0.0013773820000000001,0.0022729326,0.0008416612000000001,5.049,0,0
0.0007087567999999999,0.0007051206,-7.630739999999995e-05,0.0024701746,0.0010106152000000001,5.05,0,0
-0.0005205472,0.0016574046000000001,0.0001950406,0.0032025602,0.0015451302,5.051,0,0
-0.0002937832,0.0017338326,-0.0003624534,0.0022482656000000004,0.0012246116,5.052,0,0
-0.0001403176,0.001207436,-9.25322e-05,0.001261232,0.0008419422000000001,5.053,0,0
7.64184e-05,0.001437374,-4.617518000000004e-05,0.0013161998,0.00023610600000000003,5.054,0,0
0.0008924712,0.0010343460000000002,-0.00030492978,-9.111820000000013e-05,-0.000779238,5.055,0,0
0.0011265650000000002,0.0009826860000000002,-0.00016391618000000005,-0.0022888782000000003,-0.0016505040000000001,5.056,0,0
0.0006501510000000001,0.0028031194,0.00022364142,-0.0028309936000000006,-0.0024195574000000003,5.057,0,0
0.00032828980000000016,0.0047426000000000005,0.00060839542,-0.003226374,-0.0025344040000000005,5.058,0,0
-1.70648e-05,0.005672566,0.0013531532000000002,-0.0038309040000000004,-0.002130812,5.059,0,0
-0.0008724901999999999,0.006948302,0.0030407752,-0.002204258,-0.001467144,5.06,0,0
-0.001062624,0.0077035459999999995,0.0039889236,0.00025755599999999993,-0.0007973854,5.061,0,0
-0.0006261102,0.005087098,0.0035693520000000005,0.0015097920000000003,-0.00030463339999999993,5.062,0,0
-0.0007788622,0.0010651720000000005,0.0027051572,0.002703426,-0.0001825044,5.063,0,0
-0.0011819856000000002,-0.002073448,0.0017636988,0.004054492,-0.0001276768,5.064,0,0
-0.0010140352000000002,-0.005249848,-0.00022953320000000004,0.004121462,3.337720000000003e-05,5.065,0,0
-0.0009622302000000002,-0.007125354,-0.0032635592,0.003282468,-0.00015654040000000002,5.066,0,0
-0.0015840920000000003,-0.005571236,-0.005204311200000001,0.0033200980000000005,0.00010523240000000004,5.067,0,0
-0.001764944,-0.0031932564000000004,-0.0056769344,0.003260792,0.0007156494000000001,5.068,0,0
-0.0017716300000000002,-0.0021778384000000002,-0.004816496,0.001994286,0.0007089306000000001,5.069,0,0
-0.002175825,-0.0009831084,-0.003221728,0.00104187,0.00031568460000000004,5.07,0,0
-0.00241605,-0.0011379684,-0.0006818600000000002,8.202999999999997e-05,0.0003120464000000001,5.071,0,0
-0.002073116,-0.0034464924,0.0014896418,-0.002147492,7.816220000000004e-05,5.072,0,0
-0.0014364520000000002,-0.005074148,0.0017232398,-0.003933532,-0.0005157,5.073,0,0
-0.0010318312000000003,-0.005056250000000001,0.0013736178,-0.004153052,-0.00045407460000000005,5.074,0,0
-0.0002316652,-0.0045310918,0.00040851300000000005,-0.00458411,-0.00022114080000000004,5.075,0,0
0.0003692036,-0.0025043237999999995,0.00015153900000000001,-0.004468866,-0.00027559380000000003,5.076,0,0
0.00023104960000000009,0.0015762482000000002,0.0014327632,-0.0024906420000000004,8.746979999999999e-05,5.077,0,0
-5.397839999999991e-05,0.004576640200000001,0.0026316512,-0.0009639840000000001,0.0006291480000000001,5.078,0,0
-0.0005203651999999999,0.0051272942,0.0036540252,-0.000713916,0.0007216352,5.079,0,0
-0.0015343552,0.004984204000000001,0.004573716,0.00018675399999999997,0.0007642732000000001,5.08,0,0
-0.0019714779999999996,0.00416508,0.003600266,0.0012079819999999998,0.00087449768,5.081,0,0
-0.0006492479999999998,0.002060454,0.0009824999999999999,0.0008716208,0.0006930418800000002,5.082,0,0
0.0006832980000000002,0.0006681456000000002,-0.00016045599999999977,0.0006432166,0.00017417688000000004,5.083,0,0
0.0015183780000000001,0.0008098490000000001,-0.0007388440000000002,0.001003262,4.419108e-05,5.084,0,0
0.002630994,0.000710245,-0.001528234,0.0001429379999999999,0.00013115048,5.085,0,0
0.003314252,-0.000508695,-0.0005086848000000001,-0.001350166,0.00042330220000000003,5.086,0,0
0.003261238,-0.001088921,0.0009077686000000001,-0.0017858508,0.0013003758000000002,5.087,0,0
0.0033435640000000003,-0.0015038906000000001,0.00040104660000000016,-0.0023175966,0.0018678068000000001,5.088,0,0
0.003434982,-0.0027638520000000002,-0.0012307294,-0.0035053780000000004,0.0016932618,5.089,0,0
0.00265511,-0.0032579920000000004,-0.0022151994000000003,-0.003814522,0.0014731532,5.09,0,0
0.001321592,-0.00320418,-0.0030411346000000002,-0.003207798,0.0009444572,5.091,0,0
-0.0005192220000000002,-0.0037281140000000003,-0.003763246,-0.003317022,-0.0002100308,5.092,0,0
-0.0025022860000000003,-0.0038221139999999997,-0.0032096192000000004,-0.0030819004,-0.0005905462,5.093,0,0
-0.0037415600000000005,-0.002437646,-0.0018477971999999998,-0.0012680463999999998,-0.0002967156,5.094,0,0
-0.004029126000000001,-0.001314284,-0.0008607132,0.00030230959999999983,-4.028220000000006e-05,5.095,0,0
-0.0027254380000000006,0.0002839480000000001,2.137480000000006e-05,0.0015087596000000001,0.00032460340000000005,5.096,0,0
-0.0009676340000000002,0.003208694,0.0014065428,0.0031887976000000004,0.000526234,5.097,0,0
4.697279999999992e-05,0.005242136,0.002417166,0.004132292,0.0006154678,5.098,0,0
0.0014228688,0.006587412000000001,0.0026528360000000004,0.0036629139999999998,0.0005863395999999999,5.099,0,0
0.0026892208000000003,0.008278576000000001,0.0033064200000000005,0.0031769396,0.00025041820000000004,5.1,0,0
0.0024972908000000004,0.008690584,0.0037718960000000003,0.0028291676,9.75966e-05,5.101,0,0
0.0019801928000000002,0.005861364,0.0030491566,0.0016393515999999998,3.514340000000004e-05,5.102,0,0
0.0025967280000000004,0.002414122,0.0023437595999999997,0.0007116068,-0.000673927,5.103,0,0
0.003054792,-0.00010700800000000012,0.0011742136000000001,0.0010210028,-0.0014692300000000002,5.104,0,0
0.003211978,-0.003289672,-0.0011385324,0.0005648851999999998,-0.0019098766000000002,5.105,0,0
0.003581282,-0.0057008200000000005,-0.0031137464000000003,-0.0009629608000000001,-0.0026969346,5.106,0,0
0.0035431184,-0.0058116420000000005,-0.0038967890000000003,-0.0011611308,-0.0033700500000000003,5.107,0,0
0.0027799156,-0.005295554,-0.004606858,-0.0008662830000000001,-0.00328377,5.108,0,0
0.0014074816,-0.005601982,-0.004621826000000001,-0.0017805470000000004,-0.00299503,5.109,0,0
0.00024659759999999997,-0.004941624,-0.0030971173999999996,-0.0012650830000000002,-0.00294331,5.11,0,0
-0.0005143368000000001,-0.0037791677999999998,-0.0016032194000000003,0.001034617,-0.002619838,5.111,0,0
-0.0013105112000000002,-0.0031209322000000004,-0.0004316774,0.0018821649999999999,-0.0018052247400000003,5.112,0,0
-0.0024557224,-0.0011795242,0.000344316,0.00216763,-0.0013496467400000004,5.113,0,0
-0.0031321584,0.0014892617999999998,0.0005414320000000001,0.003267092,-0.00108397874,5.114,0,0
-0.0031559444,0.0027935798000000003,0.0004787824,0.0033607179999999995,-0.00036720214,5.115,0,0
-0.0030104298000000005,0.0032942196,0.0007014304,0.0020166124,0.00057052386,5.116,0,0
-0.0030985178,0.004730852000000001,0.0013176424,0.0012608386,0.0009787526,5.117,0,0
-0.0032017518000000003,0.005248350000000001,0.0017743150000000003,0.0006409220000000001,0.0010343618000000002,5.118,0,0
-0.0033095298,0.004040186000000001,0.002439669,-0.000877884,0.0013139748000000001,5.119,0,0
-0.0036394678000000002,0.00349291,0.0030609040000000006,-0.001496202,0.0012486878,5.12,0,0
-0.00308549,0.0033240640000000007,0.002374536,-0.0014644388,0.0008759266000000002,5.121,0,0
-0.0017257,0.0010696220000000005,0.0010996860000000001,-0.002362151,0.0007950286000000001,5.122,0,0
-0.00011279799999999989,-0.0022676499999999995,0.00037675459999999997,-0.0032086264,0.0007239754,5.123,0,0
0.0020756900000000003,-0.003409396,-0.0007881554000000002,-0.0029134904000000005,0.0003169383999999999,5.124,0,0
0.004480784,-0.0037219711999999993,-0.0025719593999999997,-0.0032601944000000002,0.00014974540000000004,5.125,0,0
0.004981304000000001,-0.0049910092,-0.0030568514000000003,-0.003992526,0.00029694060000000003,5.126,0,0
0.0042618735999999996,-0.0041943224,-0.0024436594000000005,-0.002523356,0.00027761659999999994,5.127,0,0
0.003979804,-0.0017976488000000003,-0.002116656,-0.0006595280000000002,0.0006626825999999999,5.128,0,0
0.0028753048,-0.0009325266000000003,-0.001019224,0.00022510599999999998,0.0013557766,5.129,0,0
0.0010471579999999999,-0.0001798574000000003,0.000832706,0.0018984459999999998,0.0015201662,5.13,0,0
0.00037627200000000003,0.0013200926,0.002181188,0.003893988,0.0012020441999999998,5.131,0,0
0.0011218144,0.0018225158,0.002353692,0.004161318000000001,0.0006836162,5.132,0,0
0.0014312359999999998,0.0017580004,0.0023733540000000003,0.004217428,-2.1737800000000082e-05,5.133,0,0
0.0013912275999999999,0.0021213542,0.0024839840000000003,0.005476663999999999,-0.0006153846000000001,5.134,0,0
0.0017649243999999999,0.0015119078,0.0016525326000000002,0.0052512719999999995,-0.0008143810000000001,5.135,0,0
0.0016790543999999998,0.0007813422,0.0010449009600000001,0.0039476706,-0.0007053384000000002,5.136,0,0
0.0005527384,0.0008995622,0.00069020696,0.0031979445999999996,-0.0002020344000000001,5.137,0,0
-0.0005552636000000001,0.0008525372,-1.0090400000000062e-06,0.0016646905999999997,0.00022601619999999996,5.138,0,0
-0.001029722,0.000451757,-0.0006990250400000001,-0.0008977934000000001,0.00035184438000000003,5.139,0,0
-0.002044804,0.0006180474,-0.0008898796399999999,-0.0022978474,0.00041133658000000006,5.14,0,0
-0.00316121,0.000930107,-0.0009438922,-0.0025674260000000003,0.00049874518,5.141,0,0
-0.0034178660000000003,-0.00016681300000000014,-0.0014156422,-0.0034547740000000003,0.00048354918000000004,5.142,0,0
-0.004019252,-0.0015901402000000004,-0.0010693988,-0.0033698520000000004,0.00031923318,5.143,0,0
-0.00513599,-0.003398018,-0.0002538608,-0.0016944080000000001,0.0004495352,5.144,0,0
-0.004722202,-0.004291584,-0.00045181280000000006,-0.0004952900000000002,0.0005727604,5.145,0,0
-0.003089844,-0.0026620640000000004,-0.0011853806,0.00010985800000000003,0.00046778456000000004,5.146,0,0
-0.0022893757999999996,0.00010840199999999963,-0.0008873906,0.001577284,0.00048409456,5.147,0,0
-0.0012859418000000001,0.002910164,-0.00014295400000000004,0.002503112,0.00068978856,5.148,0,0
0.0006471842,0.005672606,-2.542600000000005e-05,0.001417352,0.00084580916,5.149,0,0
0.0010728888,0.007355432,0.001149166,0.0008156140000000002,0.00083781636,5.15,0,0
0.000390703,0.006395848000000001,0.002245084,0.0006989300000000002,0.000602953,5.151,0,0
0.0007535028,0.0040967834,0.001904548,-0.000753974,0.0002822912,5.152,0,0
0.00103564072,0.0022125754,0.001151196,-0.00197094,9.752179999999998e-05,5.153,0,0
0.00022535872000000004,0.0012071602,0.0002050219999999999,-0.002336726,-0.0004125782,5.154,0,0
-0.00033246188,-0.0006018158,-0.0006870700000000001,-0.0038043260000000002,-0.0007950186,5.155,0,0
-0.00080365008,-0.0026112818000000003,-0.002717214,-0.005570636,-0.0006289679999999999,5.156,0,0
-0.0019062620800000003,-0.0026902252,-0.004919072,-0.005366998,-0.0004948145999999999,5.157,0,0
-0.002423218,-0.0024815272,-0.0054162,-0.004726006,-0.00021415179999999994,5.158,0,0
-0.0025448780000000004,-0.003041402,-0.00438444,-0.004568552,0.00017329620000000004,5.159,0,0
-0.0029446260000000005,-0.002747986,-0.002605786,-0.0028428800000000003,0.00044292420000000004,5.16,0,0
-0.0030514080000000002,-0.0019050500000000001,0.0004018619999999996,-0.00014858600000000003,0.0005350142000000001,5.161,0,0
-0.0024751096000000007,-0.0022788300000000004,0.0037100759999999997,0.001141482,0.0005033114,5.162,0,0
-0.0022019096000000004,-0.0024895940000000004,0.003665718,0.0020576120000000003,0.00028150178,5.163,0,0
-0.0019288256,-0.001525478,0.001803724,0.0036297180000000005,0.00022754878000000002,5.164,0,0
-9.814760000000002e-05,-0.001055732,0.0004000132,0.003782412000000001,0.0007145007800000001,5.165,0,0
0.0020134684,-0.00210667,-0.0003265608000000001,0.0025573464000000004,0.0007223741800000002,5.166,0,0
0.003154032,-0.004076802,5.627719999999983e-05,0.0022317864,0.00045713458000000017,5.167,0,0
0.004133268,-0.006966056,0.0011700712,0.0018913084,0.00046779512,5.168,0,0
0.005030606,-0.010676546000000002,0.0024410792,0.0005349643999999999,0.00039680472000000005,5.169,0,0
0.0045146280000000006,-0.012914386,0.0026052120000000004,-0.0001512256,7.243052000000003e-05,5.17,0,0
0.003408984,-0.012089958000000001,0.0016950320000000004,-0.000330758,6.373352000000004e-05,5.171,0,0
0.002910724,-0.008184132,0.000154912,-0.001469148,0.00014237912000000002,5.172,0,0
0.002048298,-0.0007790120000000008,-0.000737548,-0.002519634,-0.00019728980000000004,5.173,0,0
0.0015054000000000003,0.008205328000000001,-0.00093273,-0.0022934433999999997,-7.866400000000064e-06,5.174,0,0
0.001953344,0.014084428000000001,-0.0018232040000000001,-0.0022821653999999998,0.0001678057999999999,5.175,0,0
0.0018808240000000001,0.015473750000000003,-0.002501914,-0.0021179408000000003,-0.0002713912,5.176,0,0
0.001239632,0.014518762000000003,-0.002328554,-0.0004524688000000001,-0.000766762,5.177,0,0
0.0015410184000000003,0.010966694000000003,-0.002243662,0.0009757652,-0.000742854,5.178,0,0
0.0016660444000000001,0.005656602000000001,-0.0024035694,0.0012901086,-0.0008011114000000001,5.179,0,0
0.0005024184000000001,0.0036290640000000004,-0.0013151834000000003,0.0023728846,-0.0010590764,5.18,0,0
-0.00033752759999999994,0.005511220000000001,0.0003796966,0.003627228,-0.0006225986000000001,5.181,0,0
-0.00031719859999999997,0.0076625420000000005,0.0011897266,0.00304553,2.575559999999996e-05,5.182,0,0
-0.00038456380000000004,0.009325310000000002,0.0022894665999999998,0.002522758,0.00042336220000000006,5.183,0,0
-0.0002719658,0.010632982000000001,0.0037312820000000003,0.0030125280000000004,0.0002998998,5.184,0,0
0.0007378042,0.009201694,0.004079316,0.0023552964,5.720799999999994e-06,5.185,0,0
0.0015411722,0.004232334000000001,0.004381004,0.0006633803999999999,-0.0002184094,5.186,0,0
0.0016884134,-0.0014934059999999996,0.00468218,-0.00023062760000000005,-0.00023862999999999996,5.187,0,0
0.0017984582,-0.006639846,0.0031822720000000007,-0.0014336736,-6.245259999999999e-05,5.188,0,0
0.0017613762,-0.011492665999999999,0.00055025,-0.0035608716,-0.00031870479999999995,5.189,0,0
0.0009608537999999999,-0.014053720000000002,-0.001295158,-0.0045377360000000005,-0.0007913308000000001,5.19,0,0
-2.1268200000000028e-05,-0.012732528000000002,-0.0026464600000000002,-0.004327764,-0.0009312404,5.191,0,0
-0.0005776843999999999,-0.009864392,-0.00405006,-0.004136946000000001,-0.001279378,5.192,0,0
-0.0013738803999999998,-0.00645655,-0.0034934206,-0.0034521100000000004,-0.0019655920000000004,5.193,0,0
-0.0022731164,-0.0024299100000000004,-0.0018494325999999996,-0.00153571,-0.0016286062000000002,5.194,0,0
-0.003019324,-0.000963446,-0.0008528320000000001,-0.00011598199999999983,-0.0008240847999999999,5.195,0,0
-0.003387796,-0.001395534,8.281999999999989e-05,0.0006294040000000001,-0.0006747738,5.196,0,0
-0.003842856,-0.0007906040000000001,0.001340212,0.002339842,-0.00041958720000000003,5.197,0,0
-0.004242212,-0.0007344699999999999,0.0023516186000000004,0.0037929440000000003,0.0003724868,5.198,0,0
-0.004095504,-0.0011444240000000002,0.0026025826,0.0034981140000000005,0.000875053,5.199,0,0
-0.003980008,-0.00010429099999999987,0.003194838,0.0031595980000000004,0.0010629596,5.2,0,0
-0.0035530020000000004,0.0009624890000000001,0.0035225440000000003,0.0035032740000000007,0.0014702566000000003,5.201,0,0
-0.0017534240000000004,0.0009936930000000001,0.0026102320000000005,0.0023545866000000003,0.001746,5.202,0,0
0.00035985400000000005,0.001172323,0.000918026,0.0011662352000000001,0.0014967271999999998,5.203,0,0
0.0014704899999999999,0.001428163,-0.0007984560000000001,0.001071767,0.0010928592,5.204,0,0
0.002975998,0.0012211025999999997,-0.0025558840000000005,-0.0002734749999999999,0.0011148492,5.205,0,0
0.004218250000000001,0.0010503446,-0.0042093,-0.002044153,0.0010544402,5.206,0,0
0.0035267974,0.0006250794000000001,-0.004423538,-0.0023965775999999998,0.0008142818000000001,5.207,0,0
0.0023164946,-0.0007229946000000001,-0.0039763,-0.0028267041999999994,0.0006971204600000001,5.208,0,0
0.0015751714,-0.0020238746,-0.003346664,-0.0034323999999999995,0.00027387066,5.209,0,0
0.00034313540000000003,-0.0018834102,-0.001894456,-0.0019317320000000002,-0.00047045333999999996,5.21,0,0
-0.0009545866000000001,-0.0010814822000000002,-0.0006199460000000001,9.378999999999995e-05,-0.00062145976,5.211,0,0
-0.001388416,-0.0008387120000000001,0.00025435599999999996,0.000646626,-0.00022101735999999997,5.212,0,0
-0.0017213412000000002,-0.00033084839999999993,0.001417996,0.0016809720000000002,2.8904780000000088e-05,5.213,0,0
-0.00225592,0.0003098852000000001,0.002491562,0.0035984619999999998,0.00025745418000000005,5.214,0,0
-0.002136034,0.0002001152,0.0026770000000000006,0.004190442,0.00038772817999999993,5.215,0,0
-0.0018422320000000003,0.00016599920000000005,0.00245981,0.0037046820000000004,0.0002584397999999999,5.216,0,0
-0.0019323600000000002,0.0008762202000000001,0.0021549530000000003,0.004094934,0.00014055779999999998,5.217,0,0
-0.0015122738,0.0018465166,0.0006911049999999999,0.003946604,0.00022632180000000003,5.218,0,0
-0.0008265142,0.0020404902,-0.000674513,0.0018522820000000002,0.00022584400000000003,5.219,0,0
-0.0007715642,0.0019596564,-0.0010445612,0.0003880760000000001,0.00028278600000000004,5.22,0,0
-0.0009158842000000001,0.0014039354000000002,-0.0019632112,-0.00019963140000000006,0.0002458188,5.221,0,0
-0.0006421108000000002,-0.0005345226000000002,-0.0031058941999999997,-0.0018809574,-9.351779999999998e-05,5.222,0,0
-0.0005328996000000001,-0.0026417886,-0.0031217462,-0.0034377654,-0.00047301140000000004,5.223,0,0
-0.0005201504000000001,-0.0038870738,-0.0025184102,-0.0032703454,-0.0007003768,5.224,0,0
0.0002835456,-0.0050624730000000005,-0.002757144,-0.0032791374,-0.0008436328,5.225,0,0
