bandpass 1,bandpass 2,bandpass 3,bandpass 4,bandpass 5,time,onset,mark
-0.007002100000000001,0.007476480000000001,0.005778908000000001,0.00849184,-0.00646089,3.66,1,1
-0.009294420000000001,0.01021832,0.008204208000000001,0.01122214,-0.008234112,3.661,0,0
-0.011495680000000001,0.012362340000000001,0.009192016,0.013070096,-0.009574428,3.662,0,0
-0.010703034,0.011116552,0.0075378732,0.011271472,-0.0076178800000000005,3.663,0,0
-0.008655816,0.008450277999999999,0.0051772132,0.008484598999999999,-0.0050461260000000015,3.664,0,0
-0.00583992,0.0042822780000000005,0.0016967792,0.004868487,-0.0020816180000000004,3.665,0,0
-0.002593046,-0.0007775820000000002,-0.0007195689200000001,0.00014407299999999977,0.001213262,3.666,0,0
0.001228662,-0.005306182,-0.0015045789200000001,-0.004378763,0.004298440000000001,3.667,0,0
0.005849016,-0.007546462000000001,-0.00284838212,-0.007772299,0.007019652000000001,3.668,0,0
0.009566618,-0.008287728000000001,-0.00460175012,-0.010544786,0.008982738,3.669,0,0
0.011232342000000001,-0.008554456,-0.00523400412,-0.012041613999999999,0.009231536000000002,3.67,0,0
0.011651636000000002,-0.006920022,-0.005498924,-0.011497306,0.007671156200000001,3.671,0,0
0.010387900000000002,-0.004802618000000001,-0.004512574,-0.009311449999999999,0.005435134200000001,3.672,0,0
0.006615046000000001,-0.00377757,-0.0011150379999999994,-0.005846694000000001,0.0024843762,3.673,0,0
0.002278612,-0.002202154,0.001985848,-0.0008050740000000002,-0.0002868898000000001,3.674,0,0
-0.001108748,0.00012378999999999992,0.0038593026000000004,0.0043524060000000005,-0.0017735166,3.675,0,0
-0.0041921120000000004,0.001971468,0.0053249866,0.008506772,-0.0029912008000000006,3.676,0,0
-0.006684044,0.003928424,0.0060663366000000005,0.011737276000000001,-0.0043402928,3.677,0,0
-0.0075679860000000005,0.005700266000000001,0.005990196600000001,0.01296736,-0.0053118568000000005,3.678,0,0
-0.006779736000000001,0.006006222,0.006393400600000001,0.011840622,-0.0055653648,3.679,0,0
-0.005765036,0.005350074000000001,0.007292062,0.009545393999999999,-0.004965908000000001,3.68,0,0
-0.0040975012,0.00389205,0.0063153820000000005,0.0066160740000000004,-0.0030255600000000005,3.681,0,0
-0.0007207732000000001,0.001275886,0.0038099819999999995,0.002531266,-0.00014187999999999983,3.682,0,0
0.0024192368000000002,-0.0016802860000000002,0.0004192740000000001,-0.0017720340000000002,0.0025613780000000004,3.683,0,0
0.004383948800000001,-0.003954020000000001,-0.004480156,-0.005361076,0.0041193340000000005,3.684,0,0
0.006203866800000001,-0.0056451340000000004,-0.009267084,-0.008719848,0.004282826,3.685,0,0
0.007568776,-0.006997458000000001,-0.012184760000000001,-0.011212508,0.0042647200000000005,3.686,0,0
0.007348876000000001,-0.007044354000000001,-0.013260536,-0.011314354,0.00391298,3.687,0,0
0.006359582000000001,-0.0055208888,-0.012768148,-0.009716116,0.0031878760000000005,3.688,0,0
0.0048138692,-0.0036417088,-0.010133887999999999,-0.00766372,0.0023092356000000004,3.689,0,0
0.0019473152,-0.0015015828000000003,-0.005980664,-0.003917865999999999,0.0010816116,3.69,0,0
-0.0014740728,0.0014895052,-0.0019625419999999994,0.0005206360000000003,-8.880440000000008e-05,3.691,0,0
-0.0051354608,0.0037872252000000005,0.0012440840000000003,0.0035490100000000004,-0.0015471624,3.692,0,0
-0.0089121408,0.004885678,0.004749674000000001,0.005788794000000001,-0.0033139184,3.693,0,0
-0.011764496,0.00605957,0.008562474,0.007598424,-0.004499048,3.694,0,0
-0.011960472,0.006925862000000001,0.01056499,0.008008518000000001,-0.004327888,3.695,0,0
-0.0096817964,0.006558488000000001,0.011487648,0.0068418820000000005,-0.0036824974000000004,3.696,0,0
-0.005896302400000001,0.005534868,0.011194186,0.005212329200000001,-0.0025637134,3.697,0,0
-0.0009359664000000005,0.0038407180000000008,0.007446368,0.0032340372,-0.0002610513999999999,3.698,0,0
0.0036732655999999995,0.0006611860000000005,0.0021393880000000003,0.00041803519999999983,0.0023077466000000005,3.699,0,0
0.0066055396,-0.002584296,-0.0023952920000000003,-0.0024830088000000004,0.0042658746,3.7,0,0
0.007784562,-0.005011448,-0.006736072000000001,-0.004406128800000001,0.005694610000000001,3.701,0,0
0.008072992000000001,-0.007124092,-0.009986852000000001,-0.006452356,0.006535606,3.702,0,0
0.007534374,-0.00825207,-0.010242378,-0.008578866000000001,0.005913166000000001,3.703,0,0
0.006343958,-0.007451972,-0.00881622,-0.009170608,0.004201344000000001,3.704,0,0
0.005230292,-0.005571310800000001,-0.007788286000000001,-0.008550744,0.0019753120000000008,3.705,0,0
0.004231742,-0.0032749148,-0.0060600820000000005,-0.006938490000000001,-0.0005673820000000002,3.706,0,0
0.0026116176000000003,-0.00013988879999999996,-0.0033450320000000004,-0.003886970000000001,-0.003097326,3.707,0,0
0.0006933316000000001,0.0030949352,-0.0008437500000000001,0.0003521140000000006,-0.005108312,3.708,0,0
-0.0007714904,0.005272219200000001,0.001782398,0.004367772000000001,-0.005968968000000001,3.709,0,0
-0.0025552244,0.006376692000000001,0.004616574,0.007182432000000001,-0.006033948000000001,3.71,0,0
-0.0046621064,0.006886336,0.006797264000000001,0.008809404,-0.005632338000000001,3.711,0,0
-0.006026928000000001,0.006289224000000001,0.007593984000000001,0.009109468000000003,-0.004564258000000001,3.712,0,0
-0.0065847380000000014,0.004547962200000001,0.007991694,0.007731920000000001,-0.0029284264,3.713,0,0
-0.00645987,0.0029250861999999996,0.00815067,0.005263964,-0.0013597064,3.714,0,0
-0.0051918266,0.0013532742,0.007061732,0.0026242760000000005,0.0004539755999999999,3.715,0,0
-0.0029199906,-0.0008326018000000001,0.005131924,-0.0006663299999999998,0.0024963996,3.716,0,0
-4.1765999999996035e-06,-0.0022633137999999997,0.0030828120000000003,-0.003704152,0.0038548636000000002,3.717,0,0
0.0028894374,-0.0025652840000000006,0.0010631260000000002,-0.005443482,0.00459181,3.718,0,0
0.005541261400000001,-0.0023053954400000004,-0.000985936,-0.006832614000000001,0.004829676000000001,3.719,0,0
0.007429942,-0.0015097914400000003,-0.002384408,-0.007462542,0.004132862,3.72,0,0
0.007990106,-0.00072125904,-0.0036543220000000006,-0.0064424,0.0029940120000000003,3.721,0,0
0.00693974,-0.0004099610400000001,-0.005173166,-0.0046101574,0.002332486,3.722,0,0
0.004176176,-0.00011908103999999994,-0.005996326,-0.0024948994,0.001298762,3.723,0,0
0.0006082699999999997,-0.0002290662,-0.005848542799999999,0.0006995346000000001,-0.00066095,3.724,0,0
-0.0030011640000000006,-0.0012162082,-0.004487532799999999,0.0039824266,-0.0022532280000000003,3.725,0,0
-0.005926626000000001,-0.0014220426,-0.0021234568000000004,0.006187826600000001,-0.00325149,3.726,0,0
-0.007734382000000001,-0.0009012576,0.0015885592,0.007954014,-0.004674946,3.727,0,0
-0.0076335,-0.000640198,0.005614597200000001,0.008771424,-0.005185824,3.728,0,0
-0.005463676000000001,-0.0004285448,0.007616376,0.007804964,-0.0039672102,3.729,0,0
-0.0025535719999999996,0.00014245680000000006,0.00781695,0.0056898044,-0.0027619042,3.73,0,0
-0.00013627799999999999,0.0005950508,0.006528346,0.0033494503999999996,-0.0018464522000000002,3.731,0,0
0.001880984,0.0003049578,0.0035263100000000004,0.0002682983999999994,-9.331219999999998e-05,3.732,0,0
0.0035868420000000002,-0.0003798418,5.52520000000001e-05,-0.0031863716000000005,0.0014526678000000002,3.733,0,0
0.004115034,-0.0009888404,-0.002574288,-0.0055374816000000006,0.0014522642,3.734,0,0
0.0039052500000000003,-0.001902884,-0.004272642,-0.007294262,0.0019077622,3.735,0,0
0.004028168,-0.0034565100000000003,-0.004799734,-0.008232572,0.0031271142000000004,3.736,0,0
0.0043179080000000005,-0.004071372,-0.005178422,-0.00736642,0.0036047062,3.737,0,0
0.004346928,-0.003220882,-0.006861584,-0.0056098625999999995,0.0037765422,3.738,0,0
0.0038765600000000002,-0.0018340880000000002,-0.008270406,-0.0037096574000000005,0.003921426,3.739,0,0
0.002556146,6.079400000000008e-05,-0.007790294,-0.0015093134000000001,0.0025316420000000006,3.74,0,0
0.0009416600000000003,0.002464174,-0.0054351519999999995,0.0003507146,-0.0007082239999999999,3.741,0,0
-0.0006049599999999999,0.004423000000000001,-0.0016040240000000003,0.0012471746,-0.004346364,3.742,0,0
-0.0025954999999999997,0.0052009380000000004,0.0025626800000000003,0.0019216232,-0.007672108,3.743,0,0
-0.00447465,0.00533263,0.0060863620000000005,0.00252198,-0.009898167999999999,3.744,0,0
-0.0050274740000000005,0.005152992,0.007460208,0.003019186,-0.010022676000000001,3.745,0,0
-0.0052397960000000006,0.004276387600000001,0.0062789000000000005,0.003966072,-0.007346094,3.746,0,0
-0.006074418000000001,0.0028898436,0.004699892000000001,0.005237252,-0.002563934000000001,3.747,0,0
-0.005994346000000001,0.0012724836,0.0033281704000000007,0.006009572,0.0027322460000000002,3.748,0,0
-0.005001566000000001,-0.0006812064000000001,0.0018037164000000005,0.0057771160000000005,0.006942338,3.749,0,0
-0.0042081639999999995,-0.0024743004,0.0004826364000000001,0.0047898042,0.0088956,3.75,0,0
-0.0031350150000000005,-0.0038385980000000004,-0.0006674515999999999,0.0027466382,0.008484014000000002,3.751,0,0
-0.0011518230000000002,-0.004904402,-0.0024560456,7.798200000000118e-06,0.006449586000000001,3.752,0,0
0.0016738669999999999,-0.004697208,-0.00404749,-0.0023738038,0.0036130140000000003,3.753,0,0
0.0043625090000000005,-0.0037085054000000005,-0.004351128,-0.0038144498,0.00135083,3.754,0,0
0.005624051000000001,-0.0036151074000000004,-0.0041816482,-0.004454116,0.0009246879999999999,3.755,0,0
0.005866791200000001,-0.0026722814000000004,-0.0037545562000000005,-0.004218854,0.001078922,3.756,0,0
0.006126953200000001,0.0002114106000000002,-0.0025739488000000002,-0.002849406,0.0006782098,3.757,0,0
0.0050619511999999995,0.0022916926,0.00018384919999999989,-0.0014553420000000003,0.0006655618,3.758,0,0
0.0027056022,0.003273214,0.0027784792,6.41960000000003e-05,0.0011004200000000002,3.759,0,0
0.0016798656,0.005082408000000001,0.0041747674,0.0021309460000000003,0.000375174,3.76,0,0
0.0015434492,0.0062500920000000005,0.0066947374,0.0038018540000000003,-0.000628476,3.761,0,0
0.0007927652,0.005255234000000001,0.009132712000000001,0.004508096,-0.0004027172,3.762,0,0
-0.0002594708,0.0037212406000000004,0.008156882,0.00466292,-0.0006071971999999999,3.763,0,0
-0.0008602298000000001,0.0027936522,0.005111732,0.0041926812,-0.0013485774,3.764,0,0
-0.0009355184000000001,0.0016942246000000005,0.0026031239999999996,0.0026392092,-0.0011082658,3.765,0,0
-0.00102988,0.0002472266,-0.0006327760000000003,0.0008462172000000001,-0.0009968098,3.766,0,0
-0.0011333018,-0.0008935274,-0.004082326000000001,-0.0007471428,-0.0016369684,3.767,0,0
-0.0009535518000000001,-0.00216045,-0.00527022,-0.0024913608,-0.0014315484,3.768,0,0
-0.0005752138,-0.0041247196,-0.004829786000000001,-0.0042781500000000005,-0.00039258440000000005,3.769,0,0
-0.0006523758,-0.00547292,-0.0038455399999999997,-0.0051539540000000005,-3.112200000000007e-05,3.77,0,0
-0.001184759,-0.005474168000000001,-0.0024643919999999997,-0.005310382000000001,-0.00014412200000000005,3.771,0,0
-0.0017065692,-0.005241462,-0.0014054216000000002,-0.005191672000000001,-0.00011654600000000009,3.772,0,0
-0.0025473112,-0.00409499726,-0.0004275826,-0.0037810660000000005,-0.0009045560000000002,3.773,0,0
-0.0038825572000000005,-0.00191197926,0.0008989674000000001,-0.0012509060000000004,-0.0021461020000000004,3.774,0,0
-0.0036944811400000006,6.910074000000002e-05,0.0015988094000000002,0.0010646759999999999,-0.0024010420000000004,3.775,0,0
-0.0016354471400000005,0.0018451147400000002,0.0020193954000000004,0.0025878760000000002,-0.0020329336600000006,3.776,0,0
-0.0007084791400000004,0.0032556047400000006,0.0029142029999999998,0.0034931140000000003,-0.0019695796600000003,3.777,0,0
-0.00011367314000000021,0.0041312580000000005,0.003036022,0.0038133159999999998,-0.00141599166,3.778,0,0
0.00151340906,0.004150874000000001,0.001971494,0.0034174220000000003,-0.0005727826599999999,3.779,0,0
0.0009445142000000001,0.0027472780000000006,0.000584148,0.002292653136,-0.0008608906600000001,3.78,0,0
-0.0013226657999999998,0.0009777840000000002,-0.001601832,0.001065121136,-0.0010227894000000002,3.781,0,0
-0.0017658577999999999,-0.0002569429999999999,-0.003796786,0.000113349136,-0.00018349939999999997,3.782,0,0
-0.0013275592,-0.0016683190000000001,-0.0049260779999999995,-0.000644782864,0.0006227846,3.783,0,0
-0.0010662234,-0.002600933,-0.005362072,-0.0013405568640000001,0.0012560015999999999,3.784,0,0
9.603260000000011e-05,-0.002538157,-0.0047742240000000005,-0.0018316900000000002,0.0023500936,3.785,0,0
0.0015016586,-0.002635319,-0.0032519698000000002,-0.00184679,0.0031409100000000002,3.786,0,0
0.0022816906,-0.0027152282,-0.0017336548000000001,-0.001844118,0.002971084,3.787,0,0
0.003016252,-0.0022404806,-0.0011481128000000002,-0.001858812,0.002534076,3.788,0,0
0.00306541,-0.0018155378000000002,-0.0007901028,-0.0019267120000000001,0.0017578997999999999,3.789,0,0
0.00211741,-0.0010700178,-0.0004610056,-0.00215983,0.0005701077999999999,3.79,0,0
0.0013826031999999997,-3.490980000000007e-05,-0.0005429445999999999,-0.0020681920000000004,-0.0006227202,3.791,0,0
0.0009329973999999998,0.0004066384,6.2324000000001404e-06,-0.0015613620000000002,-0.0016075122,3.792,0,0
-4.0977600000000134e-05,0.0006948487999999999,0.0011841944,-0.0010989880000000002,-0.0021934062000000002,3.793,0,0
-0.0007657676000000001,0.001410036,0.0025372744,-0.000220404,-0.0017045239999999998,3.794,0,0
-0.000596515,0.0017652920000000001,0.0037574292000000006,0.0010478380000000002,-0.0005542000000000001,3.795,0,0
-0.0007363702,0.0010950640000000002,0.004477798,0.0012754405999999999,0.00012818659999999996,3.796,0,0
-0.0011654404,0.000424208,0.004645334,0.0008686945999999999,0.000937199,3.797,0,0
-0.001176177,-0.00015403799999999995,0.004029584,0.0005285115999999999,0.002247949,3.798,0,0
-0.0007678672,-0.0014305960000000001,0.0022274720000000003,-0.00018502860000000007,0.002788937,3.799,0,0
-0.00017837180000000003,-0.0025264740000000003,7.881400000000018e-05,-0.0009063484000000001,0.0022051792000000003,3.8,0,0
0.00021038599999999993,-0.0027999120000000003,-0.001362418,-0.001220619,0.0018106586,3.801,0,0
0.0007011348,-0.0031393000000000003,-0.002711132,-0.001519299,0.0020124822,3.802,0,0
0.0011130684,-0.0032577940000000005,-0.003270922,-0.001701032,0.0020789802000000003,3.803,0,0
0.0007914514,-0.0023461388000000005,-0.0024161422,-0.0015250583999999998,0.0016478002000000001,3.804,0,0
0.0003066032000000001,-0.0012459328,-0.0013068028,-0.0016233565999999998,0.0014902248,3.805,0,0
0.00030040260000000006,-0.0003218328,-0.0006043619999999999,-0.0016857146000000003,0.0016576596000000001,3.806,0,0
0.0005172358000000001,0.0012122212,-6.670460000000002e-05,-0.0014286966000000001,0.0006551975999999999,3.807,0,0
-1.2906200000000043e-05,0.0025046952000000004,-0.00022756459999999997,-0.0012860228,-0.0011458163999999997,3.808,0,0
-0.0010378829999999999,0.003184162,-0.0016987064,-0.00131607826,-0.0024595264,3.809,0,0
-0.0019008048000000001,0.004440648,-0.0033072338,-0.0009573364600000002,-0.0035088472,3.81,0,0
-0.002368698,0.005793402000000001,-0.0043588646,0.00029874154000000016,-0.003680184,3.811,0,0
-0.001381406,0.006615958,-0.004470610000000001,0.00200689354,-0.0015931119999999998,3.812,0,0
0.0008894560000000003,0.006986588000000001,-0.0019758320000000003,0.0038477597400000006,0.001388574,3.813,0,0
0.0032300800000000006,0.00698757,0.0029533000000000003,0.0054470678,0.003510328,3.814,0,0
0.005021620000000001,0.0054811161999999995,0.0073375160000000005,0.006082212000000001,0.0050283,3.815,0,0
0.005750628000000001,0.0021625482000000003,0.009562248,0.0052607446,0.0054547986000000005,3.816,0,0
0.0043484990000000005,-0.0008230618,0.008181616000000001,0.0036704446000000003,0.0036844026,3.817,0,0
0.002344425,-0.0029473658,0.0032979560000000008,0.0017555346000000004,0.0005470086000000003,3.818,0,0
0.0013570066,-0.0051610478000000005,-0.001832622,-0.0006039594,-0.0019082594,3.819,0,0
0.00050317264,-0.006059490000000001,-0.005131562000000001,-0.0019542774,-0.0035209954,3.82,0,0
-0.00020799536,-0.0048307720000000005,-0.006048934,-0.0018181970000000001,-0.004781574,3.821,0,0
-0.00068733636,-0.003763806,-0.004381356,-0.0016230890000000003,-0.005371952,3.822,0,0
-0.00154205036,-0.0028693259999999997,-0.0013305499999999996,-0.0012122436000000002,-0.00542141,3.823,0,0
-0.0028491379600000004,-0.0012751500000000003,7.506799999999997e-05,0.0002597744000000001,-0.00542656,3.824,0,0
-0.0035175780000000004,0.00013683199999999998,-0.0004298000000000002,0.0014113464,-0.004927898,3.825,0,0
-0.0032573768000000005,0.000946826,-0.0006835014000000002,0.0015058664,-0.004222028,3.826,0,0
-0.0026223366000000005,0.0016238840000000001,-0.00020129540000000013,0.0017625364,-0.003938944000000001,3.827,0,0
-0.0016910530000000003,0.002253354,0.00037457060000000006,0.002050565,-0.0032668040000000003,3.828,0,0
-0.0007407314000000001,0.002446474,0.0021809506000000003,0.0012979775999999998,-0.0023601740000000005,3.829,0,0
-0.0004100494,0.002128102,0.0049591946,0.00024472359999999996,-0.00172910972,3.83,0,0
-0.0005702766,0.0016962034,0.0058876480000000005,-0.00019522340000000004,-0.00125658312,3.831,0,0
-0.0005289991999999999,0.0011832834,0.005491874000000001,-0.0006717574,-0.00070807632,3.832,0,0
-0.00040502920000000007,6.763940000000001e-05,0.003607062000000001,-0.0013264768,-0.00021773912,3.833,0,0
-0.0006967128,-0.0011893886000000002,-0.0005565180000000002,-0.00128706732,0.00020467588,3.834,0,0
-0.0012472488,-0.0026150506,-0.005053834,-0.0007971621200000001,0.0010183736000000001,3.835,0,0
-0.0017402628,-0.00392271,-0.008808822000000001,-0.0005850963199999999,0.0023188090000000002,3.836,0,0
-0.0025619324,-0.004521586,-0.010110375999999999,-0.00022499512,0.0032671422,3.837,0,0
-0.003351502,-0.004111132000000001,-0.007708921999999998,3.676008e-05,0.003569545,3.838,0,0
-0.003392354,-0.002744562,-0.003714987999999999,-0.000248404,0.0038252220000000005,3.839,0,0
-0.0034281719999999997,-0.0008082639999999999,0.0006240560000000002,-0.0003543882,0.0032010764000000003,3.84,0,0
-0.003535904,0.0017491580000000002,0.004797676000000001,0.00016414800000000003,0.0022525264,3.841,0,0
-0.00314059,0.003552454,0.006590854,0.0004720028,0.0023528363999999998,3.842,0,0
-0.0032680120000000003,0.0038054660000000004,0.006264558000000001,0.000637821,0.0022264344,3.843,0,0
-0.0030485160000000002,0.0035730899999999997,0.005270114,0.001310861,0.0014357804000000001,3.844,0,0
-0.0008276119999999999,0.0025776740000000003,0.003494115,0.0015112382,0.0009559159999999998,3.845,0,0
0.0015388299999999997,-0.000444704,0.001958965,0.0009653750000000002,4.41999999999988e-06,3.846,0,0
0.003149632,-0.00276545,0.00041885100000000014,0.00040929939999999993,-0.0016988000000000003,3.847,0,0
0.005764864,-0.002367792,-0.0016623150000000001,1.740999999999955e-06,-0.0023818680000000005,3.848,0,0
0.008117378,-0.00226872,-0.002377719,-0.0007934109999999999,-0.002159812,3.849,0,0
0.008009974,-0.0021043878,-0.0015155960000000001,-0.0012360972,-0.0016235900000000003,3.85,0,0
0.007035814,0.00010265820000000011,0.0004884640000000001,-0.000981122,-0.00022838200000000006,3.851,0,0
0.006242878,0.0016984322000000002,0.003082678,-0.0012637124,0.0012372900000000003,3.852,0,0
0.004688566,0.0013682782000000002,0.00421212224,-0.001563456,0.0022051580000000005,3.853,0,0
0.0029201040000000006,0.0013566602,0.0035163142399999995,-0.000895158,0.0024937216,3.854,0,0
0.0024483960000000003,0.0016080748,0.0015961882399999994,-0.0001824319999999999,0.0019310556000000003,3.855,0,0
0.0026846300000000003,0.0009188547999999999,-0.00124670576,-0.0003843392,0.0009278654000000002,3.856,0,0
0.002448404,0.000405222,-0.00362499576,-0.00022691119999999996,5.898199999999988e-05,3.857,0,0
0.0019175540000000001,7.140319999999993e-05,-0.0042199360000000005,8.240419999999991e-05,-0.000782428,3.858,0,0
0.0008158720000000001,-0.0007279668000000001,-0.00323507964,-0.0005685378000000001,-0.0013454696000000002,3.859,0,0
-0.0012502799999999999,-0.0012199676000000002,-0.00175072964,-0.0012047198000000002,-0.0011046424,3.86,0,0
-0.0035219440000000004,-0.0014061196000000001,-0.00073073424,-0.0012676418000000002,-0.0009066330000000001,3.861,0,0
-0.00460625,-0.0015513988000000003,-0.00063400024,-0.0013956118,-0.0007693309999999999,3.862,0,0
-0.0045060502,-0.0012200700000000004,-0.00049662624,-0.0016298012000000002,-0.00044333782,3.863,0,0
-0.004615800200000001,-0.0006660960000000001,-0.00019059459999999997,-0.0010445728,0.00012033117999999998,3.864,0,0
-0.004259196200000001,-0.0006448000000000001,-0.0003609206,-0.0005075567999999999,0.00107266998,3.865,0,0
-0.0028325436,-9.452100000000005e-05,-0.00017267539999999998,-0.0007996476,0.00173210678,3.866,0,0
-0.0020387960000000003,0.000991119,0.00013890200000000002,-0.0007966636,0.00152875218,3.867,0,0
-0.0018322882000000001,0.0013024170000000002,0.0003787860000000001,-0.0004916414,0.0007827629999999999,3.868,0,0
-0.0012735642,0.0014727990000000003,0.00020138120000000003,-0.0008515714,-0.0002780599999999999,3.869,0,0
-0.0013513042,0.0017017356,-0.0001308676,-0.0012597454,-0.0018417160000000002,3.87,0,0
-0.0023949747999999996,0.001527316,-9.075099999999997e-05,-0.0004531454,-0.002136022,3.871,0,0
-0.0030792044,0.0008099230000000002,-0.00024735639999999993,0.0005920586000000001,-0.0006439019999999998,3.872,0,0
-0.00280268,0.00022816460000000003,-0.00036102639999999994,0.0011134584,0.0006963540000000003,3.873,0,0
-0.0013588899999999998,0.0006904286000000002,-0.0008068596,0.0019311680000000003,0.00191951,3.874,0,0
0.0006580840000000002,0.0014188640000000001,-0.0012988728,0.0025150240000000003,0.0029688640000000003,3.875,0,0
0.00274904,0.0014511802400000002,-0.001737676,0.0020419572,0.0025581880000000003,3.876,0,0
0.00467516,0.00175130724,-0.0017708420000000003,0.0013353512,0.0009047840000000003,3.877,0,0
0.005211602,0.00234137964,-0.0015137748000000003,0.0009661940000000001,-0.0004355880000000001,3.878,0,0
0.004727179999999999,0.0017558796400000002,-0.0012974748000000001,0.00015805259999999998,-0.001197252,3.879,0,0
0.004020401999999999,0.00099907784,-0.00036584479999999994,-0.0007148854000000001,-0.00233914,3.88,0,0
0.0030044060000000003,0.0009892164822000002,0.0005181132,-0.0008785426,-0.003344414,3.881,0,0
0.00231342,0.0007095990822,0.0014261712,-0.0006098046000000001,-0.0029061864,3.882,0,0
0.00198223,-0.00020918491780000002,0.0022250760000000003,-0.00035955740000000007,-0.0012173723999999997,3.883,0,0
0.0009161640000000001,-0.0007506529178,0.002427251,-3.7754200000000046e-05,0.00018178560000000005,3.884,0,0
-0.000585286,-0.0010208951178,0.0019668975999999998,0.00048675179999999995,0.0012380456000000003,3.885,0,0
-0.002033922,-0.0021509474000000004,0.0005176335999999999,0.0004272617999999999,0.0021589522,3.886,0,0
-0.003920052,-0.0030040360000000003,-0.0009946324,-0.0002629882000000001,0.0019291686,3.887,0,0
-0.005352232,-0.002807526,-0.0018047834,-0.0008854702000000001,0.0007225786000000001,3.888,0,0
-0.005170564000000001,-0.00297227,-0.0016367904,-0.0011523804000000003,-0.00022752046000000002,3.889,0,0
-0.0039288940000000005,-0.003180456,-0.000676293,-0.0010481752000000002,-0.00039973906000000006,3.89,0,0
-0.0026738816,-0.001928777,0.0008838490000000001,-0.00020015120000000015,-0.00036427146,3.891,0,0
-0.0013276606000000002,-0.001071317,0.001977095,0.0008984488,-0.00021055486,3.892,0,0
0.0006696114,-0.0013411950000000003,0.001051336,0.0017580987999999999,-8.010746000000003e-05,3.893,0,0
0.0020603574,-0.0007140574000000001,-0.00079674,0.0025776291999999998,-0.0005597084,3.894,0,0
0.0019871482,0.00041212460000000003,-0.003483204,0.002824854,-0.0011476438,3.895,0,0
0.0014222457999999998,0.0010147936000000001,-0.0051929820000000005,0.002558052,-0.000768702,3.896,0,0
0.00028359279999999945,0.0017735776000000003,-0.0031269320000000002,0.0023730940000000005,-0.0002892945999999998,3.897,0,0
-0.0011970732,0.0029263976,-0.00020993199999999948,0.0018736078,-0.00012455559999999987,3.898,0,0
-0.0018864431999999999,0.0030524719999999997,0.0015642604000000004,0.0007094937999999999,0.0007865844,3.899,0,0
-0.0017395728,0.0023779105999999998,0.0035691080000000005,-0.0002647542,0.0014012426000000002,3.9,0,0
-0.001008953,0.0014273286,0.004157372,-0.0011897262,0.0009498809999999999,3.901,0,0
0.000575465,-0.00022140340000000014,0.001294688,-0.0025526422,0.0007602769999999998,3.902,0,0
0.0019236570000000003,-0.0019622054,-0.000640278,-0.00334361,0.0011481606,3.903,0,0
0.002184011,-0.0032196214,-8.195640000000003e-05,-0.003159914,0.0010419566000000001,3.904,0,0
0.0025635378,-0.003596544,8.180999999999998e-05,-0.0027607514,0.0009976094000000001,3.905,0,0
0.002979918,-0.003454838,0.00022281400000000005,-0.0023807074000000003,0.0009206242,3.906,0,0
0.0024152602,-0.0026739389999999997,0.0007657780000000002,-0.0018312153999999999,1.855020000000006e-05,3.907,0,0
0.0014893500000000002,-0.0011534149999999999,0.0015094400000000003,-0.00108251854,-0.0007812818,3.908,0,0
0.0008566762000000001,0.00019199099999999997,0.0013503480000000001,-0.00063328054,-0.0008265218,3.909,0,0
4.602199999999995e-06,0.0007298690000000001,0.0008663312000000002,-0.00042952094,-0.0004903608000000001,3.91,0,0
-0.0007572478,0.0008516582000000001,0.0017026632000000002,0.00018374306000000008,0.00023417799999999993,3.911,0,0
-0.001034382,0.0010378788000000002,0.001745866,0.0010557350600000001,0.001587098,3.912,0,0
-0.0016823457999999999,0.0007955808000000001,0.00049442,0.0016111302,0.002283244,3.913,0,0
-0.002086436,0.0007511588000000001,0.000541124,0.0020488282,0.001673448,3.914,0,0
-0.0009797120000000002,0.0009667028000000001,0.0012049348,0.0024116380000000002,0.0009699220000000001,3.915,0,0
0.00085989,0.0009291236,0.0008915228000000001,0.0020964140000000004,0.0006798240000000001,3.916,0,0
0.001854596,0.0010733720000000002,0.00107692,0.0017066824,7.088700000000004e-05,3.917,0,0
0.0021318319999999997,0.0013346900000000001,0.0011251280000000002,0.0014371424000000001,-0.0001713465999999999,3.918,0,0
0.0023852205999999997,0.001198551,-0.000615198,0.0008419612000000001,0.0008357434000000003,3.919,0,0
0.001503378,0.0010114334,-0.0013601160000000002,0.00016853320000000002,0.0014051074000000002,3.92,0,0
-0.0004771440000000001,0.0013846474,-0.0003990240000000002,1.7659199999999934e-05,0.0007208674000000003,3.921,0,0
-0.0016835580000000001,0.0007585794,0.0014283160000000002,-0.0003560312000000001,0.0002626344000000001,3.922,0,0
-0.0018188700000000002,-0.0005016206,0.005697632000000001,-0.0014187292000000002,-0.0006337619999999998,3.923,0,0
-0.0014778946000000002,-0.00024701359999999996,0.009280332000000002,-0.0020255280000000004,-0.002823926,3.924,0,0
-0.001145618,0.0002423240000000001,0.008056884,-0.002349296,-0.00417209,3.925,0,0
-0.001086808,-0.00038703200000000015,0.003929836000000001,-0.002813154,-0.004136844,3.926,0,0
-0.00015183200000000002,-0.00026175199999999997,-0.0003119839999999995,-0.002835778,-0.004461262,3.927,0,0
0.000808876,0.0006409180000000001,-0.0055322240000000005,-0.0021318566,-0.004129646,3.928,0,0
0.0003463180000000001,0.000450684,-0.009464428,-0.0014333442,-0.0020242140000000003,3.929,0,0
-0.00024766999999999986,0.0003322980000000001,-0.008446328,-0.00012303020000000006,0.00018059800000000013,3.93,0,0
-0.000679128,0.0007923760000000001,-0.0053488954,0.0017501698,0.0021500720000000003,3.931,0,0
-0.0016983699999999998,0.000741724,-0.0031820216000000004,0.0026521698,0.0038652600000000006,3.932,0,0
-0.002967052,0.0003051320000000001,-0.0018670286,0.0031079884000000005,0.004587296,3.933,0,0
-0.0034999619999999997,0.00023560580000000012,-0.0006986405999999999,0.0033436720000000002,0.0040945202,3.934,0,0
-0.0031302718000000003,-0.00016298980000000002,-1.0486599999999995e-05,0.002410792,0.0030259282000000003,3.935,0,0
-0.0022692002000000004,-0.0012626918,0.00022841880000000006,0.000832984,0.0015180827999999999,3.936,0,0
-0.0010195482,-0.0012196178000000002,0.0005358050000000001,0.00016208919999999999,3.016880000000007e-05,3.937,0,0
0.0013623598000000003,-0.00030980380000000004,0.0007109902,-0.00019709040000000003,-0.0005436032,3.938,0,0
0.0038595078,-0.0004871636000000001,0.0008895456,-0.0007211636,-0.00044548539999999994,3.939,0,0
0.004475369600000001,-0.0011158780000000003,0.0010078776000000001,-0.00030650139999999996,-0.0004558705999999999,3.94,0,0
0.004288162,-0.0009116360000000001,0.0010124696,0.0004818886000000001,-0.0010028991999999999,3.941,0,0
0.0035385826000000004,-0.0011099360000000002,-0.0002265664,0.0006012350000000001,-0.0006361002,3.942,0,0
0.0010236206,-0.0020305740000000003,-0.0023896846,0.0005569346000000001,-0.00029418258,3.943,0,0
-0.0019649654,-0.0023201700000000003,-0.003630892,0.0008060298000000002,-0.00092764458,3.944,0,0
-0.0027503894,-0.0015800152000000002,-0.004542918,0.0002524456000000001,-0.00126136938,3.945,0,0
-0.0019726014,-0.0005195751999999998,-0.005762314,-0.0006434864000000001,-0.00126052538,3.946,0,0
-0.0018003044,0.00020524680000000002,-0.005599370000000001,-0.0006489398,-0.0017035963800000001,3.947,0,0
-0.0012104564,0.0009857708,-0.0034009744000000003,-0.0008957798,-0.002493958,3.948,0,0
-2.737280000000001e-05,0.0013881134000000002,-0.0004884484000000002,-0.0015191418000000002,-0.0027622079999999995,3.949,0,0
-1.2190799999999951e-05,0.001189071,0.0016913636,-0.0013082115999999999,-0.0033486800000000006,3.95,0,0
-0.0008875228,0.0015422950000000002,0.0031391316,-0.0005780696,-0.0037327360000000004,3.951,0,0
-0.0006653804000000001,0.0024158670000000004,0.004411505600000001,-0.0001829017999999999,-0.0029078460000000004,3.952,0,0
0.0003717076,0.0030972230000000005,0.004535428,0.0002866202000000001,-0.001336628,3.953,0,0
0.00026880980000000006,0.0039839084000000006,0.0036574160000000006,0.0009136676,0.0001697319999999998,3.954,0,0
0.0006310244,0.004993474000000001,0.002774594,0.0012022844,0.0016245539999999998,3.955,0,0
0.0021938104,0.005042668,0.0019778602,0.0010337984,0.002840638,3.956,0,0
0.0025140924,0.0037915082,0.001415657,0.0006540114,0.00234615,3.957,0,0
0.0018667228,0.0014434622,0.0012596858,0.00020326540000000005,0.0012982840000000002,3.958,0,0
0.002433019,-0.0012613618000000002,0.0004971294,-0.00034207599999999997,0.000779294,3.959,0,0
0.0026158804000000003,-0.0036420418,-0.0004640626000000001,-0.000433506,0.00041915,3.96,0,0
0.0009586983999999999,-0.0054615338000000005,-0.00030897920000000004,-0.00015878599999999995,0.0002548364,3.961,0,0
0.0003768824,-0.006088034000000001,-0.00032402040000000003,-1.0394999999999957e-05,0.0006695506000000001,3.962,0,0
0.00077147,-0.005527166000000001,-0.0006432412,0.00016018559999999996,0.0009714132000000001,3.963,0,0
0.0004470912,-0.004235962,-0.00045451960000000006,0.0004498506000000001,0.0002603672000000001,3.964,0,0
0.00013058119999999996,-0.002748986,-0.00022747360000000008,0.00016799960000000004,-0.00015448359999999995,3.965,0,0
0.00031393519999999996,-0.0017433200000000002,5.495480000000002e-05,-0.0006581644,-8.332800000000003e-05,3.966,0,0
-0.00045917280000000004,-0.0011605242,0.000312601,-0.0011613664,-0.0001730786,3.967,0,0
-0.0025334788,-0.0007818582000000001,-0.00010148099999999995,-0.0012193511999999999,-0.00014331800000000003,3.968,0,0
-0.004054692,-0.0009794262,-0.0007097422,-0.0012887622,9.07006e-05,3.969,0,0
-0.004803358000000001,-0.0010806134,-0.0010379702,-0.0011152262,-0.0002764146,3.97,0,0
-0.004303088000000001,-0.0004826994,-0.0015423012000000001,-0.0006053164000000001,-0.0014025726000000001,3.971,0,0
-0.0019090000000000003,-0.00024493400000000004,-0.0017209688,-0.00022522479999999997,-0.0021782482,3.972,0,0
0.0010193420000000001,-0.000248724,-0.0013071087999999998,3.867059999999997e-05,-0.0025737134000000006,3.973,0,0
0.002830092,0.00045336400000000005,-0.0007276784000000001,0.0005707726,-0.0030981820000000005,3.974,0,0
0.004473174,0.0010470192000000002,-0.0007042524,0.0009759126,-0.0032889060000000003,3.975,0,0
0.005678186,0.0011309952000000002,-0.0017524974,0.0005557828000000002,-0.002629008,3.976,0,0
0.004747402,0.002323124,-0.0026578176,0.00038974600000000006,-0.0012742220000000002,3.977,0,0
0.0037079760000000004,0.00424459,-0.0029368156,0.0005955328,0.0006116900000000001,3.978,0,0
0.0034670778,0.00507342,-0.0024714560000000003,0.0003355634,0.0023540920000000003,3.979,0,0
0.0017566118000000002,0.004897592,0.0004907660000000001,-0.00033133660000000004,0.00307057,3.98,0,0
-0.0011855622000000003,0.004049068,0.005323322,-0.0006274626000000001,0.0026877360000000005,3.981,0,0
-0.0029201142000000006,0.0016392619999999998,0.008957946,-0.0012099654,0.0011115019999999999,3.982,0,0
-0.0038461222000000005,-0.001437758,0.0096401388,-0.0021332894,-0.0012338060000000005,3.983,0,0
-0.004837852000000001,-0.003662294,0.0072977148000000006,-0.0018022200000000002,-0.0024603194,3.984,0,0
-0.0048008980000000005,-0.005665674,0.0030652768000000007,-0.0010226340000000001,-0.0018369674000000003,3.985,0,0
-0.0030659380000000007,-0.006223368,-0.0018112272000000004,-0.00020780000000000006,-0.0003718254,3.986,0,0
-0.0007835360000000003,-0.00447845,-0.005373745200000001,0.0010764160000000002,0.0018659586000000002,3.987,0,0
0.00045538799999999993,-0.002252622,-0.006046800000000001,0.002185632,0.004912346600000001,3.988,0,0
0.0007950300000000001,-0.0005372499999999998,-0.00479781,0.0021686360000000003,0.007269224000000001,3.989,0,0
0.000690038,0.0011544564,-0.0030161758,0.001973208,0.007631530000000001,3.99,0,0
-0.00031768399999999994,0.0021815204000000003,-0.0013511978,0.0020489820000000004,0.006817177600000001,3.991,0,0
-0.0019475220000000001,0.0015843434,-0.00026453580000000015,0.001403316,0.0053478247999999996,3.992,0,0
-0.002811234,0.0007445672,0.0008495082000000002,0.0008388356000000001,0.0030728048,3.993,0,0
-0.0024573134,0.0005204024,0.0023608622,0.0007256056000000001,0.0011838988000000001,3.994,0,0
-0.0011916554000000002,0.0006759560000000001,0.0028287720000000002,0.0001780576,0.0003211104,3.995,0,0
0.0006513606,0.000707984,0.0021793920000000005,-0.0006699964000000001,-1.8165200000000014e-05,3.996,0,0
0.0022217326,0.0008291918,0.0016350980000000004,-0.0008298056000000001,-0.0006980624000000001,3.997,0,0
0.0025730531999999997,0.00108923,0.0003700280000000001,-0.0007016192000000001,-0.0017462384000000004,3.998,0,0
0.0019575965999999996,0.0008011732,-0.002231416,-0.0006819712,-0.0023336064,3.999,0,0
0.0009466525999999994,0.0006434142,-0.003964518,-0.00018195520000000004,-0.002684474,4.0,0,0
-0.00028004700000000006,0.0010693642,-0.0038775792000000004,0.0003199312,-0.00293659,4.001,0,0
-0.0004940149999999999,0.0016712934,-0.0036207476,0.00012425639999999992,-0.0025136460000000005,4.002,0,0
0.0006871503999999999,0.0019210374000000001,-0.0027772932,-0.0005098856000000001,-0.0021266540000000004,4.003,0,0
0.0018209244,0.0019500350000000001,-0.0005393632,-0.0009941936000000002,-0.002630294,4.004,0,0
0.0025581787999999998,0.00142709,0.0010051188,-0.0009281976,-0.0028479340000000003,4.005,0,0
0.0027435403999999997,0.00015161999999999977,0.001546876,-0.0007254634,-0.0022232264,4.006,0,0
0.0013460444,-0.0012149160000000001,0.0024079864,-0.00048029379999999997,-0.0016934852,4.007,0,0
-0.0004869596,-0.0027418720000000002,0.002922896,6.327619999999998e-05,-0.0009797561999999999,4.008,0,0
-0.0009974024,-0.00340486,0.0020759940000000003,0.00014369920000000002,0.00010721579999999997,4.009,0,0
-0.0008070508000000001,-0.002471502,0.0008011959999999999,-0.0005392608,0.0007938238,4.01,0,0
-0.0008437286,-0.0010448120000000004,0.00019436999999999997,-0.0009847013999999999,0.0008937084,4.011,0,0
-0.0008006166000000001,0.0001814779999999999,-0.0007293902,-0.001224477,0.00075053166,4.012,0,0
-0.0006413466000000001,0.001542182,-0.0017413302000000002,-0.001741243,0.0006427288600000001,4.013,0,0
-0.0011732958000000003,0.002864244,-0.0018574682000000002,-0.0016726538,0.00035089626,4.014,0,0
-0.0022844198,0.0030339060000000003,-0.0014570842,-0.0011482838,-0.00025981574,4.015,0,0
-0.002642796,0.0020674438000000002,-0.0013115706,-0.0007522481999999999,-0.0008770879400000001,4.016,0,0
-0.0017615000000000005,0.0015567822,-0.0014399144,-0.0001393462,-0.000982884,4.017,0,0
-0.0003477719999999999,0.0014253948,-0.0010810354,0.0007611478,-0.0007801222,4.018,0,0
0.0010005640000000002,0.00027339079999999993,0.0013019986000000002,0.0013522016000000001,-0.00019767160000000005,4.019,0,0
0.0019729316000000005,-0.0006874312,0.004923466600000001,0.0016864316000000002,0.0006657744,4.02,0,0
0.0017632816000000004,-0.0008470130000000002,0.006633821000000001,0.00211442,0.0009516174000000001,4.021,0,0
0.0008525216000000002,-0.0014200794,0.006836930400000001,0.002176196,0.0010842598000000002,4.022,0,0
0.0003092296000000001,-0.0014792504,0.006327655400000002,0.0019842080000000003,0.0008232722,4.023,0,0
5.651760000000011e-05,-0.0005059104,0.0032226634,0.0019541520000000002,-0.00020475980000000005,4.024,0,0
0.000394216,4.904000000000453e-07,-0.0014311925999999997,0.0016172926000000002,-0.0007414624,4.025,0,0
0.0008287826000000001,-0.00015112159999999998,-0.0042396066,0.0006326766,-0.00047683160000000003,4.026,0,0
0.0006164066,-0.0003792476,-0.005522224,7.834459999999998e-05,-0.0006756296000000001,4.027,0,0
-0.0001164114,-0.0010503892000000002,-0.006321694000000001,1.5376399999999943e-05,-0.0009267920000000001,4.028,0,0
-0.0008191114,-0.0021726552,-0.005862508,-0.0006555526,-0.0004797700000000001,4.029,0,0
-0.0011711526,-0.002950624,-0.003182364,-0.0009803652,-0.00038224380000000005,4.03,0,0
-0.0008611032,-0.002743464,-0.00020304600000000013,-0.0002821472,-0.0006309079999999999,4.031,0,0
-0.00016928340000000003,-0.002292282,0.0007693840000000001,0.00024437879999999996,-0.0005675910000000001,4.032,0,0
-0.00026214939999999996,-0.0019004442000000001,0.001157138,0.00012517839999999993,-0.000457773,4.033,0,0
-0.00034382940000000006,-0.00043532020000000007,0.0009427039999999998,0.0002797808,-0.00041984756000000003,4.034,0,0
0.0005943438,0.0014587618,-0.0005874680000000003,0.0004730348,-0.00021142916000000002,4.035,0,0
0.0017164158,0.0023222998,-0.001642362,-0.0005879732000000002,0.00012390524000000002,4.036,0,0
0.002219816,0.0028911458,-0.0002153299999999997,-0.0015377852000000001,7.753439999999995e-06,4.037,0,0
0.00278991,0.0035768040000000003,0.001826176,-0.001659584,-0.00022283656000000006,4.038,0,0
0.003441508,0.0029763996000000004,0.0031420600000000003,-0.0021463694,0.00046877400000000004,4.039,0,0
0.002779868,0.0016146442,0.003887118,-0.0018020854000000003,0.001260274,4.04,0,0
0.0015451756000000002,0.00095613696,0.0032530562,-0.0003064274000000002,0.0017271080000000002,4.041,0,0
0.000884317,0.00025838896,0.0020399560000000003,0.00040495559999999996,0.002695438,4.042,0,0
0.0005237198,-0.00080561104,0.0007892912000000001,0.0003890667999999999,0.0033846312000000004,4.043,0,0
-3.383819999999997e-05,-0.00114873264,0.0004379484000000001,0.0007411905999999997,0.0024978216,4.044,0,0
-0.0010491922,-0.0009471510399999999,-0.0003852816,0.0002470595999999999,0.0011702396,4.045,0,0
-0.0017056898,-0.0005453158,-0.0025979418,-0.0010693424000000002,0.0003413038000000001,4.046,0,0
-0.0017083236,0.00025484420000000007,-0.004054255600000001,-0.0013013116,-0.0007285182,4.047,0,0
-0.0016734770000000003,0.0013851722000000001,-0.004788898800000001,-0.001060504,-0.0017677133999999999,4.048,0,0
-0.0013943066000000003,0.0024070862,-0.0048956906000000005,-0.0011751958,-0.0027536238000000005,4.049,0,0
-0.0007051819999999999,0.002540902,-0.0023644545999999995,-0.0011134882,-0.0036131938000000005,4.05,0,0
-0.0008487200000000001,0.0016763720000000002,0.0023553854000000003,-0.0001953941999999999,-0.0030869060000000004,4.051,0,0
-0.0018485576,0.0003600840000000001,0.0043680754,0.0007660920000000001,-0.0013820740000000003,4.052,0,0
-0.0028446570000000004,-0.0007229560000000001,0.0026882074000000003,0.0010932126,3.899800000000016e-05,4.053,0,0
-0.0041228394,-0.0019474420000000002,0.0008898979999999999,0.0012996646,0.0008900160000000001,4.054,0,0
-0.005068042000000001,-0.0026578080000000002,-0.0007738519999999998,0.0010958360000000002,0.0014465419999999999,4.055,0,0
-0.004949794,-0.0024353560000000005,-0.0022199640000000005,0.000528262,0.0008963578,4.056,0,0
-0.004483152000000001,-0.001262804,-0.0009046880000000001,-0.00022312622000000002,-0.0004822195000000001,4.057,0,0
-0.0039059700000000004,0.0008115000000000004,0.002457368,-0.0004254342199999999,-0.0008813105,4.058,0,0
-0.0017127300000000002,0.002535022,0.0043484584,-0.0001529906199999999,-0.00016582050000000007,4.059,0,0
0.0011522360000000003,0.0039036500000000003,0.004537288400000001,0.00010251318,0.0009930655000000002,4.06,0,0
0.0026068520000000006,0.004599086,0.0040629704,0.00063511918,0.0019428257000000003,4.061,0,0
0.0036849840000000005,0.004293236000000001,0.0015533124,0.0008223454000000001,0.0026042910000000003,4.062,0,0
0.0043992860000000005,0.0020149119999999998,-0.0008199756000000002,0.0005872674000000001,0.0026094658000000003,4.063,0,0
0.0031610020000000004,-0.0016410740000000002,-0.0011861500000000002,0.0007591638,0.0020479046000000003,4.064,0,0
0.0008757440000000001,-0.004898338,-0.002309944,0.0012828079999999999,0.001300853,4.065,0,0
0.00016333620000000005,-0.007246974,-0.003914108,0.00131249,-4.486300000000002e-05,4.066,0,0
0.0006506282,-0.008072138,-0.004375048,0.0015597419999999998,-0.001563857,4.067,0,0
0.0013499682,-0.0072401396,-0.004218496,0.00218929,-0.0027935988000000003,4.068,0,0
0.0022646802,-0.0047595924,-0.004293122000000001,0.002040988,-0.0029552636000000003,4.069,0,0
0.0023044802000000003,-0.0019154804000000004,-0.0037282784000000004,0.001809084,-0.0025647120000000002,4.07,0,0
0.0012555280000000001,0.0005175355999999999,-0.0019703244000000004,0.001883062,-0.0016123880000000002,4.071,0,0
-0.000331314,0.0016809296,7.149360000000026e-05,0.0013213532,0.00022511000000000005,4.072,0,0
-0.0017218060000000002,0.0016202784,0.0019293896,1.5043199999999917e-05,0.0016932040000000002,4.073,0,0
-0.003131422,0.0016436008,0.0029372076,-0.0010213828000000002,0.0022463120000000003,4.074,0,0
-0.004167054,0.0012789916000000001,0.0031890060000000003,-0.0018625768000000002,0.002330846,4.075,0,0
-0.0036486840000000006,0.0007919676,0.0027676940000000002,-0.0029312328,0.0023836480000000004,4.076,0,0
-0.0020203400000000007,9.942559999999998e-05,0.0020893124000000004,-0.003470286,0.001967384,4.077,0,0
-0.00010208600000000036,-0.0008199696,0.0017231295999999999,-0.003156468,0.0016930598,4.078,0,0
0.002529064,-0.0006361431999999999,0.0009722394000000001,-0.0028795220000000002,0.0018169598,4.079,0,0
0.00565629,0.0003644640000000001,0.00014502740000000013,-0.003155496,0.0013709204,4.08,0,0
0.006797172000000001,0.000962548,-0.00016237520000000004,-0.00306822,0.0003471583999999999,4.081,0,0
0.006002008600000001,0.0014370522,-1.3451599999999978e-05,-0.002807946,-0.0005275956,4.082,0,0
0.0048192266000000004,0.0024781022000000003,-0.00015060480000000004,-0.0022749584000000002,-0.0012077214000000003,4.083,0,0
0.0029308446000000004,0.0030380682,-0.00047299860000000007,-0.0007807563999999999,-0.0019090814000000001,4.084,0,0
0.0011204324,0.0027243282,-0.0003966446,0.0012023896,-0.0016190486000000003,4.085,0,0
0.0004577238,0.0025300102,-0.0009168160000000001,0.0028371556000000003,-0.0009639308,4.086,0,0
5.893119999999998e-05,0.0027123660000000003,-0.0015208740000000002,0.0037289056000000004,-0.0011316048,4.087,0,0
-0.0005563208000000001,0.00251933568,-0.0013349766,0.0036335178000000004,-0.0010116387999999999,4.088,0,0
-0.0010103248000000002,0.0012605836800000001,-0.0010091254000000002,0.0026296046000000004,-0.0007590618,4.089,0,0
-0.0015183786000000001,0.00032836128,-0.0006797602,0.0016885016000000002,-0.0008835568,4.09,0,0
-0.001935384,0.00022272528000000003,-0.000192261,0.0009359376,-0.0007187446000000001,4.091,0,0
-0.002116102,-0.00035658272000000003,5.457319999999998e-05,0.0005287592,-7.4525999999999835e-06,4.092,0,0
-0.00223675,-0.0008406184000000001,2.439999999999997e-06,0.000388183,0.0008877594,4.093,0,0
-0.002384534,-0.0009868084,0.00033832080000000003,4.829220000000003e-05,0.0015445203999999999,4.094,0,0
-0.0029308,-0.002106368,0.0008094476,-0.0007333908,0.0014897812,4.095,0,0
-0.003354708,-0.00378802,0.0008261438000000002,-0.0014763728,0.0004928892000000002,4.096,0,0
-0.003118594,-0.0044655300000000005,0.0013319696000000001,-0.0016959924000000003,-0.0008696508000000002,4.097,0,0
-0.0024718128,-0.004180496400000001,0.0019447354,-0.0015646092000000003,-0.0027424048,4.098,0,0
-0.0010781828000000003,-0.0034111804000000003,0.0016970206000000002,-0.0009468092000000001,-0.0046005308000000005,4.099,0,0
0.0006184792,-0.0020040884000000004,0.0013064808000000001,-0.0003954732,-0.005237194000000001,4.1,0,0
0.001538694,-0.00016225640000000008,0.001166558,0.0003206768,-0.004169138000000001,4.101,0,0
0.002167204,0.0013129276,0.0008939318,0.0013440548000000002,-0.002199734,4.102,0,0
0.0030930168,0.002032746,0.0003046192,0.0018260339999999998,-0.0006633340000000002,4.103,0,0
0.0034600947999999998,0.0028091780000000003,0.0004959200000000001,0.00206563,0.00015201000000000006,4.104,0,0
0.0033700828,0.0036677880000000004,0.0009488218000000001,0.0028132800000000005,0.0007877946000000003,4.105,0,0
0.00332486,0.0033018852,0.0012165772000000002,0.0031387820000000006,0.0014350746000000001,4.106,0,0
0.0028947542,0.0021276152000000003,0.0015593794000000002,0.002479788,0.0012868326000000001,4.107,0,0
0.0016114181999999997,0.0011575092000000004,0.0015650214000000003,0.0017779654000000004,0.0012265542,4.108,0,0
-0.00033556579999999996,9.279999999999477e-07,0.0012952120000000002,0.0006195514,0.0022056262,4.109,0,0
-0.0021483878,-0.0011187432000000002,-0.000262986,-0.0008700786,0.0027588216,4.11,0,0
-0.0039142198,-0.0013421368000000003,-0.00233301,-0.0019754226,0.0019957916,4.111,0,0
-0.005462984000000001,-0.0008462446000000002,-0.003587792,-0.0028045066000000002,0.0012210982,4.112,0,0
-0.006440084,-0.0008396806,-0.0040918174,-0.003104146,0.0008777825999999999,4.113,0,0
-0.006401760000000001,-0.0006169938,-0.00405413,-0.002745914,0.0001237646,4.114,0,0
-0.00442218,0.00039381940000000014,-0.0029340236,-0.002255052,-0.0006175174000000001,4.115,0,0
-0.0007119080000000002,0.0009648938000000001,-0.0009859597999999998,-0.0019069940000000002,-0.0008165534000000001,4.116,0,0
0.002406032,0.0013501856,2.4608200000000006e-05,-0.0012230528000000001,-0.000940394,4.117,0,0
0.004319426,0.0018036234000000002,0.00046723820000000004,-0.0006151092,-0.0006012768,4.118,0,0
0.005918558,0.0009727837999999999,0.0003058038,-0.00046279519999999996,0.0005948452,4.119,0,0
0.005354485200000001,-0.0010466562,-0.00022044059999999996,-0.0004922792,0.0012668132000000002,4.12,0,0
0.0029495392000000002,-0.0021043262,-9.506399999999974e-06,-0.000312768,0.0012154676,4.121,0,0
0.0012101234000000002,-0.002482276,-0.00026740639999999995,-0.0003715516,0.0012549884000000002,4.122,0,0
0.0002965778000000002,-0.0027742958000000002,-0.0008131983999999999,-0.0008079292,0.0006448092,4.123,0,0
-0.0006761042,-0.0020578378,-0.0005615832,-0.0004655618,-0.0008379488000000001,4.124,0,0
-0.0007043276,-0.0009764210799999999,-0.0003742712,-0.00012430379999999998,-0.0018896148000000002,4.125,0,0
0.00038362640000000006,-0.00082906508,-0.0006281954,-0.000301567,-0.0021565932,4.126,0,0
0.0011236802000000002,-0.0011197612800000001,-0.0003099114,-0.00014835499999999997,-0.0021743226,4.127,0,0
0.0013801880000000003,-0.0008134900799999999,0.0005235886000000001,0.0002569436,-0.0018073594000000003,4.128,0,0
0.001160122,-0.00061698248,0.0006529778000000001,8.695620000000001e-05,-0.0010015174,4.129,0,0
0.0002839482000000001,-0.0005827572,0.0007450612000000001,4.7001200000000013e-05,-0.0003950841200000001,4.13,0,0
-0.0015676518,1.3038800000000022e-05,0.0011746614000000002,0.0008449172000000001,-0.00010260292000000007,4.131,0,0
-0.0036573018,0.0006994588,0.0011952474000000001,0.0014039876,0.00069253168,4.132,0,0
-0.005360956,0.0007260776,0.0016526454,0.0018234470000000002,0.0018096344799999999,4.133,0,0
-0.0056625619999999995,0.000804562,0.0025297214000000005,0.002584411,0.00201267048,4.134,0,0
-0.0043701239999999995,0.00146698,0.002240306,0.0028341760000000003,0.0016984011999999998,4.135,0,0
-0.003021406000000001,0.001524746,0.00045315600000000035,0.002045748,0.001478422,4.136,0,0
-0.0016819598000000005,0.0014424262000000002,-0.00130702,0.001466204,0.0007125377999999999,4.137,0,0
0.00015471219999999992,0.0020561722000000003,-0.0022418978,0.0011616600000000001,-0.0004361546000000001,4.138,0,0
0.0016647422,0.0022771302,-0.0015775998000000001,0.0005291618,-0.0010105974000000002,4.139,0,0
0.0021151962,0.0022516482000000003,0.0008252942000000001,0.00022868900000000002,-0.0009856794,4.14,0,0
0.0027936642,0.0028768882000000003,0.0033639962000000002,0.0003031974000000001,-0.0011368714,4.141,0,0
0.003584164,0.002989338,0.0059230462,-7.50746e-05,-0.0012076232,4.142,0,0
0.003644172,0.001882874,0.006381206,-0.0009248726000000001,-0.0009463735999999999,4.143,0,0
0.0029110284000000005,0.00106588,0.0029699600000000007,-0.0013640264,-0.0007275634,4.144,0,0
0.0021171904000000003,0.00036321,-0.0013895619999999998,-0.0014156438000000001,-0.0005069168,4.145,0,0
0.0017477724000000002,-0.0012037620000000001,-0.0041190260000000005,-0.0017154922000000004,-1.4582799999999992e-05,4.146,0,0
0.0011527594,-0.0026589400000000003,-0.0054833780000000006,-0.0017515262000000003,0.0007165851999999999,4.147,0,0
0.0005275974,-0.003069196,-0.006120216,-0.0005242842,0.00167228,4.148,0,0
0.0005391188,-0.0033195900000000003,-0.004748616000000001,0.0004586458000000001,0.0027711666,4.149,0,0
0.0008714388,-0.0034223534,-0.0022315186000000002,0.0008410100000000001,0.003427756,4.15,0,0
0.0003968832,-0.0023882694000000003,-0.0008139182000000001,0.0017202920000000002,0.0031662218,4.151,0,0
-5.058180000000001e-05,-0.0010877802,-0.0003244442,0.0018217894,0.0022112518000000003,4.152,0,0
-2.3945800000000044e-05,-0.0001912096,0.00019026180000000003,0.0007348494,0.0012426126,4.153,0,0
-0.0008794756,0.000533368,0.0007579258000000001,-1.6895000000000047e-05,9.854700000000008e-05,4.154,0,0
-0.0024244216,0.0009632614,0.0010937844000000001,-0.0006416470000000002,-0.000802539,4.155,0,0
-0.003185504,0.0005029366,0.0014467120000000002,-0.0015288390000000002,-0.0007260582,4.156,0,0
-0.0029447358000000002,0.00010723339999999995,0.001492854,-0.0014202106,-0.0008182202,4.157,0,0
-0.0014802338,0.00046463080000000006,0.0013267974,-0.0011304462,-0.0017378150000000002,4.158,0,0
0.0009584482,0.0004336588,0.001012329,-0.0016572598000000002,-0.0023278714,4.159,0,0
0.0025878642,0.000236593,0.0006718849999999999,-0.0021108758,-0.0025158914000000003,4.16,0,0
0.003528576200000001,0.0011924178000000001,0.000770281,-0.0020358158,-0.0029042200000000003,4.161,0,0
0.0037310934,0.0022925338,0.001149255,-0.0022603836,-0.001799676,4.162,0,0
0.0021475694,0.0022710437999999998,0.0014873216,-0.0021048972,0.0005315900000000001,4.163,0,0
-0.00031909859999999985,0.0025338482,0.0009197659999999998,-0.0007662452000000002,0.0015819220000000004,4.164,0,0
-0.0023438546000000005,0.0024232817199999995,-0.000276084,0.0005743528000000001,0.0020856142200000004,4.165,0,0
-0.0036365966,0.00120566572,-0.00047798780000000025,0.0012207288000000002,0.00254106482,4.166,0,0
-0.004073214,0.0004236539199999999,-0.0004706298,0.0015049592000000002,0.00118930482,4.167,0,0
-0.003812976,0.00015959652,-0.0010147760000000002,0.0014381412000000003,-0.0011103851800000001,4.168,0,0
-0.0035649680000000004,-0.00060320548,-0.0006430040000000001,0.0006999252000000001,-0.00127887918,4.169,0,0
-0.0026345619999999996,-0.0009802992,5.5091999999999967e-05,0.0005633232,5.9260599999999986e-05,4.17,0,0
-0.0010385819999999997,-0.00027392719999999994,-0.0007456982,0.0010086952,0.00139885,4.171,0,0
8.589799999999994e-05,-0.0004425522000000001,-0.0025886442000000003,0.0011793428000000002,0.003228494,4.172,0,0
0.0009452780000000002,-0.0016031108,-0.003483964,0.0012075254000000002,0.004111383,4.173,0,0
0.0017247088000000002,-0.0021636728,-0.0033225422,0.0012599634000000001,0.0031695130000000005,4.174,0,0
0.0025296888000000003,-0.0024986388000000003,-0.0027330526,0.0009385164000000002,0.0015476970000000002,4.175,0,0
0.0031499248000000004,-0.0033795768,-0.001939546,5.798980000000002e-05,8.330779999999997e-05,4.176,0,0
0.0034719268000000005,-0.0036959080000000004,-0.001041818,-0.000180041,-0.0010833618000000002,4.177,0,0
0.0038620828,-0.0026854220000000002,-0.000330702,1.8317200000000022e-05,-0.0013060286,4.178,0,0
0.004499618,-0.0018583764,-0.0004101812,-0.00010728659999999999,-0.0007664274000000001,4.179,0,0
0.004009792,-0.0019093364,-0.00046271960000000004,-0.0001129158,-0.0007232354,4.18,0,0
0.002030908,-0.001477917,-0.0004588818,0.0005292268000000001,-0.0007209224000000001,4.181,0,0
0.00037558800000000005,-0.000715357,-0.000262055,0.0012144116,-0.0003708788000000001,4.182,0,0
-0.0005918926,-0.0005957218000000001,0.000836137,0.0013050700000000002,-0.0004549890000000001,4.183,0,0
-0.0011590845999999999,-0.00015060540000000014,0.0025146464,0.0015475792000000002,-0.0009990242000000001,4.184,0,0
-0.0010532145999999998,0.0010191046,0.0038352912000000003,0.0018832034000000003,-0.0012275082,4.185,0,0
-0.0002850146,0.0015242292,0.004294072800000001,0.0014140546,-0.0012104986,4.186,0,0
2.1109399999999978e-05,0.0017968292,0.004725600000000001,0.0007504706,-0.0015683802,4.187,0,0
-0.0006016260000000001,0.0025793640000000002,0.00478459,0.0006344328,-0.0018563222,4.188,0,0
-0.0015445340000000002,0.0023493494,0.0039830479999999995,0.000322913,-0.0013860102,4.189,0,0
-0.0022323800000000004,0.0018058720000000002,0.003417008,-0.00044148699999999996,-0.001112219,4.19,0,0
-0.002495064,0.002298502,0.003392076000000001,-0.0010811062,-0.0017184664000000002,4.191,0,0
-0.0023324324000000003,0.002188184,0.0027383800000000008,-0.0018413622,-0.0016365994000000002,4.192,0,0
-0.0024184864,0.0010906520000000001,0.001169122,-0.0027487443999999997,-0.0007608654,4.193,0,0
-0.0030252124000000003,0.0008470838000000003,-0.00046627400000000003,-0.003239036,-0.0004582646000000001,4.194,0,0
-0.0030228224000000002,0.0006311012000000002,-0.003081626,-0.003493934,0.00015131619999999999,4.195,0,0
-0.002565606,-0.0007413328,-0.005841229999999999,-0.0035359060000000006,0.0010452654,4.196,0,0
-0.0020164316,-0.0014488388,-0.006226894,-0.0030627700000000002,0.00062857,4.197,0,0
-0.0011300696,-0.0014807008000000002,-0.005028506,-0.0023373102000000005,-0.0002479139999999999,4.198,0,0
-0.00016385160000000006,-0.0025291439999999997,-0.0033429780000000004,-0.0012641802000000002,-0.0006284738,4.199,0,0
0.0003211784000000001,-0.0028708880000000003,-0.0010707379999999997,-2.1022200000000058e-05,-0.0007831278,4.2,0,0
0.00034672400000000013,-0.0013189879999999999,0.000799924,0.0005383984,-0.0007828192000000001,4.201,0,0
0.00035259000000000006,-0.0005970119999999998,0.00116522,0.0009379976000000001,-0.0006643312,4.202,0,0
0.0008295740000000001,-0.0005136015999999998,0.00042211399999999996,0.0014288598000000003,-0.00033101319999999997,4.203,0,0
0.001544014,0.0010201624000000002,-0.0004831102,0.0012119758000000002,-0.00036761020000000005,4.204,0,0
0.001473502,0.0017702578000000002,-0.0005405442000000001,0.0010989058000000001,-0.0007725142,4.205,0,0
0.0013445592,0.00034501780000000004,0.00019147579999999993,0.0015904551999999998,-0.00043779400000000003,4.206,0,0
0.0018497912,5.853840000000004e-05,0.0008967198000000001,0.0018868740000000002,0.0004704379999999999,4.207,0,0
0.0025916632,0.000873948,0.0015029498,0.001990278,0.00112101,4.208,0,0
0.0038864312,0.0004073808,0.0018212884000000003,0.0016097338000000002,0.0016107679999999998,4.209,0,0
0.005426271200000001,0.00011215740000000002,0.0012360236000000004,0.0006012878,0.001976306,4.21,0,0
0.005764738,0.00039968320000000003,0.0005223736000000001,-0.00032683820000000004,0.0019261740000000001,4.211,0,0
0.004194444,-0.0001110854,0.0004074196,-0.0011181302000000002,0.00209792,4.212,0,0
0.0012121240000000004,-0.0005577834000000001,-0.00042290440000000007,-0.0017713698000000001,0.002465124,4.213,0,0
-0.002228138,0.0005515138,-0.0018125248,-0.0017778978000000001,0.0021051142000000004,4.214,0,0
-0.005125838000000001,0.0020800798,-0.001973888,-0.0012679696000000003,0.0016466082000000004,4.215,0,0
-0.007000534000000001,0.0031922060000000004,-0.0007571400000000002,-0.0007935418,0.0010426788,4.216,0,0
-0.0075211980000000015,0.003916518,0.0004370559999999999,-0.0003189974,-0.00023614320000000003,4.217,0,0
-0.006466290000000001,0.002838632,0.00177912,0.00014116820000000001,-0.001123791,4.218,0,0
-0.003845930000000001,0.0005023219999999999,0.0030340868,0.0004266104,-0.0012807132,4.219,0,0
-0.0005015800000000002,-0.001057002,0.0027806728,0.000516974,-0.0017436892000000002,4.22,0,0
0.0015959,-0.0018793654000000004,0.0010622447999999996,0.0007637502,-0.0023093278,4.221,0,0
0.0021029000000000004,-0.0024853552000000004,-0.0015952672,0.0008022070000000001,-0.0024159698000000003,4.222,0,0
0.0015292420000000003,-0.0021029212000000003,-0.0034909812,0.0004088320000000001,-0.0024500878000000004,4.223,0,0
-0.000690406,-0.0011075632,-0.004067688,0.0008431280000000001,-0.0018216178000000005,4.224,0,0
-0.003047146,-0.001015068,-0.004273766,0.0015742942000000002,-0.0006047158000000001,4.225,0,0
-0.0022863600000000003,-0.0013619366,-0.0039965800000000004,0.0016280902,0.00044698819999999996,4.226,0,0
0.0006378779999999997,-0.0010241748,-0.0031919220000000007,0.0017124452000000004,0.0011205438000000002,4.227,0,0
0.003046916,-0.00014562680000000005,-0.00238951,0.0022615022000000004,0.0009204456000000001,4.228,0,0
0.004997872,0.0005291292,-0.0019079494,0.0020668102,-3.008039999999985e-05,4.229,0,0
0.005454999000000001,0.000972952,-0.0007343933999999998,0.0010114442,-0.0008191464000000001,4.23,0,0
0.0033007550000000007,0.0018514340000000001,0.0009142926000000002,0.0008526482000000002,-0.0012540312000000001,4.231,0,0
8.439700000000016e-05,0.0025780760000000003,0.0020642926000000003,0.001121582,-0.001307374,4.232,0,0
-0.0023669249999999998,0.0027344080000000002,0.0029756946000000003,0.0008299726,-0.0010578004000000002,4.233,0,0
-0.0039116129999999995,0.0030103960000000003,0.0034796020000000005,0.000316459,-0.0008515884000000002,4.234,0,0
-0.003941774,0.0034306540000000004,0.0036677800000000003,0.00010511500000000003,-0.0008955224000000001,4.235,0,0
-0.0019207600000000003,0.0030915400000000003,0.003396806,-0.000385601,-0.0008647988,4.236,0,0
0.000329228,0.0018875620000000004,0.003124658,-0.001496861,-0.0005012976,4.237,0,0
0.001731658,0.0006344720000000001,0.00302398,-0.0022584356,-0.0005205786,4.238,0,0
0.0029110580000000002,-0.0008598420000000001,0.0025052788,-0.00260576,-0.0005358346000000001,4.239,0,0
0.0033366158,-0.002407076,0.0016843312,-0.003221546,-0.0007830326000000001,4.24,0,0
0.0021590728000000004,-0.003289428,0.0007337352,-0.0036357439999999998,-0.0010565334,4.241,0,0
0.0013490608,-0.0038534020000000006,3.6628600000000044e-05,-0.0028995412000000003,-0.0005298153999999999,4.242,0,0
0.0017626548,-0.004317554,-0.000636829,-0.0016619532,0.0010719080000000003,4.243,0,0
0.0020799848000000003,-0.004272228,-0.0009102398000000001,-6.214519999999985e-05,0.0036402360000000003,4.244,0,0
0.0022832110000000003,-0.00401674,-0.0008136854000000001,0.0017167528,0.005843434000000001,4.245,0,0
0.002517096,-0.00409432,-0.0004548374,0.0026945424000000004,0.006880898,4.246,0,0
0.0021113048000000003,-0.0033322356000000004,0.00046152320000000005,0.0030870476,0.0061581154,4.247,0,0
0.0006341028,-0.0012867796000000003,0.0011960848,0.0030468456,0.0042827834,4.248,0,0
-0.0011696652,0.0005409583999999998,0.001724583,0.0024915216000000002,0.0017522674000000002,4.249,0,0
-0.0027839432,0.0018333804,0.0017797738,0.0021822956,-0.00018967059999999995,4.25,0,0
-0.003909767200000001,0.0034326964,0.0012276578,0.0022264158,-0.0010661198,4.251,0,0
-0.004261936000000001,0.00477349,0.0005439082,0.0017888188000000002,-0.0016960632000000001,4.252,0,0
-0.0036743842,0.004500502,6.266219999999999e-05,0.0009506888000000002,-0.0013100806000000001,4.253,0,0
-0.0020252942,0.0036005316000000003,0.00019667999999999994,0.00019086079999999995,-0.0007952212000000001,4.254,0,0
-0.0002930321999999999,0.0027216408,0.0005072164,-6.976240000000004e-05,-0.0008544272,4.255,0,0
0.0005662448000000001,0.0010473208,0.0007705065444000001,-3.4256200000000047e-05,-0.001064494,4.256,0,0
0.0008943524000000001,-0.0004355172000000001,0.0008674531444,-0.00018949420000000003,-0.0011716360000000002,4.257,0,0
0.0010125586,-0.0009695745999999999,0.0004239311444,-0.0004920202,-0.0013620924000000002,4.258,0,0
0.0009956746,-0.0013325002000000002,-0.0003051208556,-0.0011552662000000001,-0.0010881338000000003,4.259,0,0
0.0012246346,-0.0016973654,-0.0007685688556,-0.0020902230000000004,-0.00023904180000000011,4.26,0,0
0.0013145712000000001,-0.0017376494,-0.000774865,-0.0030559849999999998,0.0003070268,4.261,0,0
0.0010136196,-0.0020250614,-0.0017682280000000002,-0.003943048,0.0010732758000000001,4.262,0,0
0.0004545075999999999,-0.002688938,-0.0035674620000000004,-0.0043836560000000005,0.0014419556000000002,4.263,0,0
-0.0005270184000000001,-0.0025320900000000003,-0.004284840000000001,-0.00424487,0.0009210018,4.264,0,0
-0.0014653200000000002,-0.0014801740000000003,-0.004398362,-0.0037764,2.0233799999999982e-05,4.265,0,0
-0.0021797476000000003,-0.001008128,-0.0044692594,-0.0031228410000000003,-0.0007674728000000001,4.266,0,0
-0.0023071176000000002,-0.0003252060000000001,-0.0035195794000000002,-0.0019389984000000005,-0.0015627158000000002,4.267,0,0
-0.0012292215999999997,0.0016432600000000003,-0.0016598634000000003,-0.0001816843999999999,-0.0023825578000000003,4.268,0,0
-0.00025707359999999985,0.0022633,-0.000509514,0.0013655436,-0.002560194,4.269,0,0
-0.00014480879999999988,0.0011734760000000001,-0.00028399740000000005,0.0021991716,-0.0027574519999999996,4.27,0,0
-0.00010599679999999986,0.00099337,-0.00063908,0.0027310406,-0.0030591640000000005,4.271,0,0
-0.0006679227999999999,0.0008354584000000001,-0.0014375680000000002,0.0030212200000000007,-0.0024142166200000004,4.272,0,0
-0.0019912628,-0.0008805036,-0.0018027100000000001,0.002887806,-0.0011542386199999998,4.273,0,0
-0.0027552588000000003,-0.0017664456000000002,-0.0018713750000000002,0.00273083,-0.00016307461999999983,4.274,0,0
-0.0024020020000000003,-0.0007983835999999999,-0.0016403770000000002,0.002513334,0.00140752538,4.275,0,0
-0.0007407099999999999,6.0248400000000024e-05,-0.0006288050000000001,0.0019477722,0.0032485713800000002,4.276,0,0
0.0015448060000000001,0.0005000919999999999,0.000854701,0.0011093482,0.004179374,4.277,0,0
0.003591982,0.0013167600000000002,0.002041447,0.00016132819999999993,0.00445301,4.278,0,0
0.005325660000000001,0.002253376,0.001966238,-0.0007845758000000001,0.004076464,4.279,0,0
0.005835584,0.0020680286,0.0016388346,-0.0012309214,0.0032092552,4.28,0,0
0.0051649519999999996,0.0013523145999999998,0.0016484706,-0.0009340163999999999,0.0022646084,4.281,0,0
0.004066592,0.00045098459999999986,0.001042185,-0.0003061204,0.0010722024,4.282,0,0
0.0025672480000000003,-0.0007573613999999999,0.00045744499999999995,0.00029290760000000006,-0.00023169160000000006,4.283,0,0
0.0005318859999999999,-0.0015124634,0.0006405836,0.0007937192,-0.0009457196,4.284,0,0
-0.001270932,-0.0015954468,0.0011131344000000001,0.0010212138,-0.0012211622,4.285,0,0
-0.002153112,-0.0006142348000000001,0.0013189244,0.0005679166,-0.0012214656000000001,4.286,0,0
-0.003129504,0.0009685152000000003,0.002349414,-6.449340000000008e-05,-0.0010932964,4.287,0,0
-0.004420334,0.0026118812,0.0037847220000000008,-0.0005051542,-0.0009760084,4.288,0,0
-0.00489663,0.0034906812000000003,0.004338720000000001,-0.000784514,-0.0006833692,4.289,0,0
-0.004134184000000001,0.003581898,0.004394304000000001,-0.000858523,-0.0009865338,4.29,0,0
-0.0022403420000000006,0.0027621712,0.0036942826000000003,-0.0008453290000000001,-0.0018189876000000002,4.291,0,0
0.00021860400000000028,0.00034033519999999984,0.0022345466000000007,-0.001257993,-0.0022071048,4.292,0,0
0.0017778246800000002,-0.0032181748,0.0005711386000000001,-0.0021787382,-0.0024677868000000003,4.293,0,0
0.0021784406800000006,-0.0064777508,-0.0008409334,-0.00288246,-0.0029380180000000006,4.294,0,0
0.00208279868,-0.007983032800000001,-0.0032764454000000004,-0.0034799059999999996,-0.0029983400000000004,4.295,0,0
0.0013432206800000003,-0.008350830000000002,-0.005654442000000001,-0.0038570540000000004,-0.0021959022000000005,4.296,0,0
0.0007320786800000001,-0.007143426800000002,-0.0055121094,-0.0029715614,-0.0010129402,4.297,0,0
0.001297384,-0.003966622800000001,-0.0043744174,-0.0011591574,-0.00018274420000000005,4.298,0,0
0.0024280960000000002,-0.0004999828,-0.0028221334000000002,-0.00014642740000000005,0.0002631182,4.299,0,0
0.003011124,0.0017693131999999999,-8.573940000000029e-05,0.0004339674000000001,0.000620161,4.3,0,0
0.0023931846000000002,0.0032408012,0.0025859126,0.0017028974000000002,0.0005630147999999998,4.301,0,0
0.0011715494,0.004303886,0.003166786,0.0028010368,5.3850599999999996e-05,4.302,0,0
0.00022962539999999993,0.004275162000000001,0.0021030429999999998,0.0027728128,-0.00018178879999999998,4.303,0,0
-0.0004756466,0.004074428000000001,0.0010123830000000002,0.0030118048,-0.0006791852,4.304,0,0
-0.0007734167999999999,0.003913216000000001,9.352699999999999e-05,0.0035755640000000007,-0.001245452,4.305,0,0
-0.0007960334,0.0031023440000000004,-0.0008382070000000001,0.0029520034400000003,-0.0011162276,4.306,0,0
-0.0011502221999999999,0.0022887766000000004,-0.001782111,0.00244211544,-0.0007411634000000001,4.307,0,0
-0.0015574662,0.0018551752,-0.0025932920000000005,0.00262608144,-3.926599999999993e-05,4.308,0,0
-0.0016060402,0.0008505172000000001,-0.003065538,0.00202577064,0.001107608,4.309,0,0
-0.0016879026,-0.00024144279999999997,-0.00304865,0.00123135664,0.002561458,4.31,0,0
-0.001803712,-0.0006665388,-0.0024595658,0.0013100275999999998,0.0038095,4.311,0,0
-0.0012583085999999999,-0.0011272954,-0.0014666058,0.0002920136,0.004221548,4.312,0,0
-0.0004327922000000001,-0.0015865520000000002,-8.814779999999985e-05,-0.0009912544000000001,0.003962418,4.313,0,0
-0.00030966820000000004,-0.001617872,0.0012842942000000001,-0.0007078738,0.003306961,4.314,0,0
-0.0004273756,-0.001345888,0.0020883582000000003,-0.00032962440000000007,0.0024375488,4.315,0,0
-0.00031412759999999997,-0.0009511624000000001,0.0024310580000000003,-0.00018936080000000002,0.001381447,4.316,0,0
-0.00015991099999999994,0.0002632356,0.0024541460000000004,0.0001876232,7.301699999999993e-05,4.317,0,0
-0.00011520479999999998,0.0021186816,0.002712946,0.00021480719999999998,-0.000830075,4.318,0,0
-0.00023523479999999997,0.0033687896000000003,0.0025300220000000003,-0.0004353466,-0.0008019374000000001,4.319,0,0
-0.0005580248,0.0037622116,0.0019200410000000002,-0.0007265912,-0.0005669808000000001,4.32,0,0
-0.0007009532,0.004022162,0.0016559005999999999,-0.0005993372,-0.000871931,4.321,0,0
-0.00013888920000000007,0.0035465439999999996,0.0008315266,-0.0005000982000000001,-0.000778803,4.322,0,0
0.0002883161999999999,0.001658206,-0.0003680674,-0.0001840761999999999,-0.0004312926,4.323,0,0
0.0002488502,-3.5839999999999874e-05,-0.0007118032,0.0004289328,-0.0007851892,4.324,0,0
0.00022921619999999993,-0.0012966560000000002,-0.00045252279999999996,0.00033582799999999993,-0.0011753056,4.325,0,0
-0.000419786,-0.003120536,-0.0006612183999999999,-0.0006550740000000001,-0.0012985616,4.326,0,0
-0.002072158,-0.0042781,-0.0004664117999999999,-0.001251091,-0.0016051616,4.327,0,0
-0.0036173200000000003,-0.0038766416000000003,0.0003134302,-0.0015726150000000003,-0.0022622420000000002,4.328,0,0
-0.00401843,-0.0037506216000000006,0.0007221040000000001,-0.001892294,-0.002703366,4.329,0,0
-0.0032392972,-0.0038829776000000003,0.0004069706,-0.001921816,-0.0033926620000000003,4.33,0,0
-0.0017376372000000003,-0.0030081536,-0.0007348754,-0.0016375740000000001,-0.004035742,4.331,0,0
-0.0004061132000000002,-0.0025165216,-0.001552904,-0.001443854,-0.0034544432800000004,4.332,0,0
0.0005781855999999998,-0.002781432,-0.001351728,-0.001379898,-0.0023719892800000003,4.333,0,0
0.0013665603999999999,-0.002445384,-0.001282376,-0.001006721,-0.0016218636800000002,4.334,0,0
0.0017286035999999998,-0.0013781242000000002,-0.001427708,-0.00029923100000000006,-0.0005028734800000001,4.335,0,0
0.0018743396,-0.0005440821999999999,-0.0007888160000000001,0.00032886300000000004,0.00114235052,4.336,0,0
0.0016372755999999999,-0.0008965622000000001,-0.00011225800000000006,0.0008315610000000001,0.0017604098,4.337,0,0
0.0014483107999999998,-0.0016403882,-0.0005054442,0.0012844528,0.0017467718,4.338,0,0
0.0020139,-0.0011755796000000002,-0.0016415262,0.00112995032,0.0021003842000000003,4.339,0,0
0.002548458,-0.0005680614,-0.0019942802000000003,0.00085100032,0.0020268050000000004,4.34,0,0
0.002105646,-0.00046437340000000016,-0.0016116682000000002,0.00069010892,0.001383115,4.341,0,0
0.0018106010000000002,0.0001924012,-0.0013289534000000003,0.00040800132000000003,0.0009004656,4.342,0,0
0.002309989,0.00122961724,-0.0006863552,0.00014613912,0.0005779490000000001,4.343,0,0
0.002350445,0.0018806366400000002,0.0005300788000000001,9.901999999999974e-06,0.00015822860000000002,4.344,0,0
0.002262367,0.00208248664,0.0014688688000000002,-3.721439999999999e-05,-0.0001237544,4.345,0,0
0.0026950130000000004,0.00247254464,0.0017041636000000003,-0.000501785,-0.0002391424,4.346,0,0
0.002943554,0.0034228880400000005,0.0021057448,-0.0006832634,-0.000124621,4.347,0,0
0.0026060924000000005,0.0045331980000000004,0.0022739568,-0.000278827,0.0005179096000000001,4.348,0,0
0.0020097046000000004,0.004647124000000001,0.0016541907999999999,-5.3507799999999976e-05,0.0013399380000000002,4.349,0,0
0.0009322194000000001,0.0041949560000000006,0.0010947748,-0.00012308356,0.0019236300000000002,4.35,0,0
-0.0002577446,0.0036969940000000003,0.0011806858,0.00013829224000000005,0.0021783220000000003,4.351,0,0
-0.0008796406,0.002434852000000001,0.0011609358,0.00020736944,0.0019901932000000004,4.352,0,0
-0.0018178110000000001,0.00044387600000000017,0.0003229524,-4.846896000000001e-05,0.0014794174000000002,4.353,0,0
-0.0028644132,-0.0008026219999999998,-6.959760000000006e-05,0.00047329444,0.0006352874000000001,4.354,0,0
-0.0032240180000000004,-0.0008815820000000001,0.00022088419999999998,0.0008639726000000001,7.64834e-05,4.355,0,0
-0.0031001174,-0.0012215168000000002,-0.00014364560000000007,0.000789802,-0.00011851660000000002,4.356,0,0
-0.0025798030000000003,-0.0010411572,-0.0008440436,0.0009139507999999999,-0.0008209518000000002,4.357,0,0
-0.0019573209999999997,-5.8662000000000015e-06,-0.0010223062,0.0007564286000000002,-0.0017587540000000004,4.358,0,0
-0.0016912270000000002,2.2161799999999927e-05,-0.0010835742,-0.0003754974,-0.0021538240000000004,4.359,0,0
-0.0020956110000000003,-0.0009950982,-0.000844852,-0.0012985613999999999,-0.002488264,4.36,0,0
-0.0032305956000000004,-0.0014591674,-0.00023018999999999996,-0.0017062525999999999,-0.002886038,4.361,0,0
-0.004595852,-0.001736301,-0.0003469439999999999,-0.0024129446000000004,-0.001704082,4.362,0,0
-0.004835478,-0.002234606,0.0005674340000000001,-0.0022578460000000004,0.0005373460000000003,4.363,0,0
-0.00429577,-0.0019517802,0.0030269340000000002,-0.0011646780000000002,0.002081986,4.364,0,0
-0.0030998379999999997,-0.0010933474,0.003623086,-0.00036253199999999983,0.003178934,4.365,0,0
-0.0006439039999999998,-0.0004781868000000001,0.0039013940000000007,0.00021011798000000002,0.003830676,4.366,0,0
0.001767898,0.0005376792000000001,0.006404838000000001,0.00105938018,0.003214045,4.367,0,0
0.003754448,0.0024415672,0.006871458000000001,0.00115471318,0.0017884677999999998,4.368,0,0
0.004894722000000001,0.0040073614,0.004330592,0.0005749991799999999,0.0008725248,4.369,0,0
0.004287596,0.004874714600000001,0.003022192,4.914517999999999e-05,0.0005152646,4.37,0,0
0.0021441299999999997,0.005493914,0.0017532799999999999,-0.0001974328,0.0005721726,4.371,0,0
-2.0684000000000414e-05,0.005242666,-0.001871442,-0.00014965020000000002,0.0010102736,4.372,0,0
-0.0018219,0.002650296,-0.004157886,-0.0004111432,0.0010202606,4.373,0,0
-0.002473732,-0.0006458719999999998,-0.0036603806000000006,-0.0006036252000000001,0.0005449036000000001,4.374,0,0
-0.000857488,-0.002440074,-0.0038282886,-0.0004224862,-5.3274199999999924e-05,4.375,0,0
0.0014712140000000002,-0.0038341460000000005,-0.0039865306,-0.0002735028,-0.0007485362,4.376,0,0
0.003473088,-0.0050867199999999994,-0.0030147526,-0.0004257958,-0.0011338642,4.377,0,0
0.004946632,-0.004526786,-0.0025650886000000003,-0.00017552059999999996,-0.0011057024,4.378,0,0
0.00555156,-0.0029331652000000002,-0.0029542860000000004,0.00013287060000000004,-0.0010107763999999998,4.379,0,0
0.004709898,-0.0024550292000000006,-0.0026009080000000003,0.00023659660000000004,-0.0014503244,4.38,0,0
0.0034113182000000005,-0.001622619,-0.0015589619999999999,0.0009660952000000001,-0.0022903844,4.381,0,0
0.0026308902000000004,-0.000580774,-0.0008997325999999999,0.0019000514000000002,-0.0026194104,4.382,0,0
0.0014142801999999998,-0.000655152,-0.0001718386,0.0023483022,-0.0028847172,4.383,0,0
-0.00042246380000000015,-0.0006222930000000001,-0.0006531945999999999,0.0025446710000000005,-0.0034149092000000003,4.384,0,0
-0.0016263358,-0.000300601,-0.0018292826,0.0028902340000000006,-0.0031688192000000003,4.385,0,0
-0.0016634468000000001,-0.0005113262,-0.002170294,0.0028856820000000005,-0.0017127092000000003,4.386,0,0
-0.0021977908,-0.0006780106600000001,-0.0013900474000000003,0.0027734340000000004,-0.0009189452000000002,4.387,0,0
-0.0029723608,8.072133999999996e-05,-0.00029880339999999997,0.0028642800000000003,-0.0008008304000000001,4.388,0,0
-0.0025625608,0.00041754674,0.0005730660000000002,0.0027145904000000004,0.0005844636,4.389,0,0
-0.0024203028,0.00026784914,0.0016942939999999998,0.0026371924,0.0023154516000000003,4.39,0,0
-0.003226412,0.00037066614000000006,0.0018497621999999999,0.0025279204000000005,0.0034057136000000005,4.391,0,0
-0.0034824400000000003,0.00027495680000000003,0.0007514161999999999,0.0018033632,0.0040732156,4.392,0,0
-0.0027156280000000003,-6.381039999999999e-05,-0.0009677758000000001,0.0008605312000000002,0.004950568000000001,4.393,0,0
-0.0015002040000000002,-7.613600000000025e-06,-0.0017933552000000002,0.00032857479999999994,0.005221664000000001,4.394,0,0
-3.841800000000024e-05,0.00079695,-0.0016500400000000002,-0.0003303152000000001,0.004219828000000001,4.395,0,0
0.001278984,0.001607336,-0.0014810128000000001,-0.0012752052,0.0028562349600000005,4.396,0,0
0.0018588099999999998,0.0026016728,-0.0010158308000000002,-0.001592773,0.0012874169600000003,4.397,0,0
0.0018758752,0.003770756,-0.0001403888000000002,-0.0013272631599999998,-0.00028489304000000004,4.398,0,0
0.0014186391999999998,0.004323396,0.0009726452000000001,-0.0011093663600000002,-0.0013606810400000001,4.399,0,0
0.0005984486000000001,0.003940528,0.0017389100000000002,-0.00101569436,-0.0017199490400000002,4.4,0,0
3.0220599999999983e-05,0.0030734187000000003,0.002315114,-0.0008532323600000001,-0.002009916,4.401,0,0
-0.0002425014,0.0014832907000000002,0.0025091900000000006,-0.00121900536,-0.0019083260000000003,4.402,0,0
-9.709339999999997e-05,-0.0010657752999999998,0.0019338040000000003,-0.0020587492,-0.0015543800000000002,4.403,0,0
0.0003199346,-0.0029799952999999997,0.0011586440000000001,-0.002134644,-0.0015994700000000002,4.404,0,0
0.0004988972000000001,-0.0036941393,0.00020717000000000006,-0.0019870744,-0.0017160720000000001,4.405,0,0
0.0010510932,-0.0038061484000000002,-0.0012553300000000002,-0.0023599664,-0.0015564408,4.406,0,0
0.0020906132,-0.0029875670000000004,-0.002209432,-0.0024062404,-0.0014020024000000002,4.407,0,0
0.0022399902,-0.001263903,-0.0022532260000000005,-0.0020312084,-0.0016961504000000001,4.408,0,0
0.0014876414,-0.000349555,-0.002076384,-0.0022552164,-0.0017108024000000001,4.409,0,0
0.0010429722,-0.000497923,-0.0021210020000000003,-0.00262697,-0.0014759958000000002,4.41,0,0
0.00036182519999999993,-0.0006863546000000001,-0.002056444,-0.002212174,-0.0012958332000000002,4.411,0,0
-0.0006843228000000001,-0.001275754,-0.0016895297999999998,-0.0016339216,-0.0008370316,4.412,0,0
-0.0012149650000000001,-0.002033336,-0.0014407838,-0.0017156016000000002,-0.00018771619999999998,4.413,0,0
-0.0012602462,-0.0016786691999999999,-0.0006643058000000001,-0.0020105436000000003,-7.402619999999995e-05,4.414,0,0
-0.0005716950000000002,-0.0006736191999999999,0.00047338820000000006,-0.0018470716,-0.00029115879999999997,4.415,0,0
0.0002180760000000001,-0.00019669459999999974,0.0016416442000000001,-0.0019112776,-0.00024629179999999994,4.416,0,0
0.00035412500000000006,0.0006742714000000001,0.0029206379999999997,-0.0018413748,-3.5657799999999976e-05,4.417,0,0
0.000663781,0.0016041994,0.004586074,-0.0007907128,8.48992e-05,4.418,0,0
0.000622643,0.0010612606,0.00574683,-0.0001692952,-0.00012717879999999998,4.419,0,0
-0.00038090100000000006,0.0002095186,0.004744456,-0.00022917320000000004,-0.0002458968,4.42,0,0
-0.001356601,0.00037298400000000014,0.0027622360000000004,0.00040324279999999995,-0.000471218,4.421,0,0
-0.00148696,0.00019028800000000007,0.0008970559999999999,0.0006039655999999999,-0.000593532,4.422,0,0
-0.000659906,-0.00075217,-0.0008472928000000002,-8.318800000000067e-06,-6.629439999999997e-05,4.423,0,0
8.084399999999989e-05,-0.000700698,-0.0019925108,0.00010381559999999998,0.0002548806000000001,4.424,0,0
-0.00017752200000000005,-2.8308000000000055e-05,-0.00173409366,0.000507521,0.0007768286,4.425,0,0
-0.000888098,-0.00022947460000000017,-0.0010814016600000002,0.000647865,0.001759455,4.426,0,0
-0.0019958420000000003,-0.0007710086000000001,-0.0010367696600000003,0.001279979,0.002039307,4.427,0,0
-0.004063556,-0.0005551666,-0.0011535680600000002,0.0022049514,0.0018897550000000001,4.428,0,0
-0.004660004999999999,0.00029492139999999994,-0.00203028206,0.0024885834,0.0019315504,4.429,0,0
-0.002479735,0.0004773533999999999,-0.0025552392000000004,0.0024434500000000002,0.0016391844000000003,4.43,0,0
6.185500000000042e-05,8.744599999999987e-05,-0.0017845658,0.002313484,0.00018779440000000005,4.431,0,0
0.002406403,0.00017821199999999986,-0.0012877842,0.001748664,-0.0013171056000000003,4.432,0,0
0.004512379,-0.00015242800000000013,-0.001394665,0.0011866360000000002,-0.0020053196000000004,4.433,0,0
0.00465179066,-0.0013159540000000003,-0.0010581308,0.001498284,-0.0022882200000000005,4.434,0,0
0.00297719466,-0.0023627100000000005,-0.0004680516,0.0021157840000000003,-0.0022005352,4.435,0,0
0.00120735466,-0.0027179940000000005,-0.00040689259999999994,0.002112306,-0.0013656372000000003,4.436,0,0
-0.0002759953399999999,-0.0023224726,-6.810299999999997e-05,0.0018862038000000002,2.9478800000000047e-05,4.437,0,0
-0.0011499233400000001,-0.0009611326,0.000659111,0.0014618902000000003,0.0006383868,4.438,0,0
-0.0012255098,0.00046684539999999983,0.0008652948000000001,0.0009413310000000002,0.0013200508,4.439,0,0
-0.0013411818000000002,0.0014558794,0.0012751156,0.0004604524,0.0018844200000000004,4.44,0,0
-0.0012325934,0.0024868534,0.0018480472000000003,-1.4437400000000025e-05,0.0014448378,4.441,0,0
-0.00030700339999999995,0.002606878,0.00197602,-0.00031374720000000003,0.0012624318000000001,4.442,0,0
0.0005134286,0.0020212192,0.00211386,-0.0005953056,0.0012108538,4.443,0,0
0.0016434624000000002,0.0016751352,0.002562304,-0.0007428732000000001,0.0004544818000000001,4.444,0,0
0.0034730604,0.0017996652000000003,0.0026329780000000002,-0.0004720666000000001,-0.00023128019999999995,4.445,0,0
0.003977392,0.0012813734000000003,0.0017019880000000002,-8.042800000000044e-06,3.643360000000004e-05,4.446,0,0
0.0027638160000000005,0.00039977740000000006,0.00035899800000000013,0.00044511720000000004,-0.000272398,4.447,0,0
0.00113285,0.0003998786000000001,-0.001294408,0.0010965872,-0.0008024100000000001,4.448,0,0
-0.0003642099999999998,0.00023067260000000009,-0.002802466,0.0009571240000000001,-0.0004917478,4.449,0,0
-0.0017309394,-0.00037099960000000005,-0.0034398534,0.00020366200000000002,-0.0008648818,4.45,0,0
-0.0028346714,-0.0004349,-0.0028876414000000004,-0.000117397,-0.0018977534,4.451,0,0
-0.0027238654,0.00021418720000000003,-0.0016885307999999998,-0.000739127,-0.0024749818,4.452,0,0
-0.0011948454,0.00045865880000000003,-0.0006216483999999998,-0.0017885970000000003,-0.002327287,4.453,0,0
-0.00023866739999999994,0.0005664068,0.0005446896000000001,-0.002529095,-0.0020371284,4.454,0,0
-0.00045982300000000005,0.0007926346000000001,0.001083497,-0.002719785,-0.0013200056000000002,4.455,0,0
-0.00018796699999999993,0.0005737708000000001,0.0009543078,-0.0027065264,0.0008323104000000001,4.456,0,0
-1.6164999999999734e-05,7.242360000000016e-05,0.0009379172000000001,-0.0021017684,0.0034095764000000002,4.457,0,0
-0.000285847,-0.00029766839999999993,0.0008393926000000001,-0.0013249414000000002,0.0049180256000000006,4.458,0,0
0.0004080109999999999,-0.0003187583999999999,0.00037063860000000005,-0.0010178594,0.005449826800000001,4.459,0,0
0.0013334059999999997,-0.0004910199999999999,-0.00022145119999999996,-0.0009920114000000002,0.005380902260000001,4.46,0,0
0.002070714,-0.00022965679999999996,-0.0002632337999999999,-0.0014068210000000002,0.0038696642600000004,4.461,0,0
0.002773817,0.0007663652,-0.00024148619999999997,-0.001964817,0.0014237882599999999,4.462,0,0
0.001976345,0.0017093351999999998,-6.0569399999999935e-05,-0.0020945717999999998,-0.00020398814000000004,4.463,0,0
-0.00021505500000000013,0.0023196272,0.0009817726,-0.0013305084,-0.00136523214,4.464,0,0
-0.002125835,0.0029118292,0.0017785264,-0.0002637144,-0.0020772224000000002,4.465,0,0
-0.0033284850000000004,0.003333746,0.0019175802000000002,0.0004413056,-0.0019522430000000002,4.466,0,0
-0.004142666000000001,0.0026794342,0.0020104666,0.0012017116,-0.0014298818,4.467,0,0
-0.00445524,0.0004946941999999998,0.0019962086000000004,0.0025001154,-0.00048819740000000014,4.468,0,0
-0.0037510060000000003,-0.0017840978000000002,0.0009669866,0.0033044960000000005,0.0007947206,4.469,0,0
-0.0023464320000000003,-0.0034017098,-0.00042409340000000014,0.0032096860000000002,0.0016902146000000002,4.47,0,0
-0.00136448,-0.0050762298,-0.0011272214,0.003233248,0.0016890252000000003,4.471,0,0
-0.0009174564000000001,-0.005764114000000001,-0.0019462894,0.0026236736,0.0013266960000000003,4.472,0,0
-0.00019611320000000005,-0.005191874,-0.0026796679999999996,0.0010032416,-0.00016112799999999997,4.473,0,0
6.051879999999997e-05,-0.004350568,-0.0026243514,-0.0002305704,-0.0021607460000000003,4.474,0,0
-0.00019174020000000002,-0.0034131354,-0.0023195054,-0.0011475464,-0.0026082,4.475,0,0
0.0002550798,-0.0019702394000000005,-0.0022255714,-0.0023658324,-0.002344632,4.476,0,0
0.0005939752,-0.0004885254000000002,-0.0015613882,-0.0028758320000000005,-0.0021052880000000003,4.477,0,0
0.0007351024000000001,0.0009090346,-0.0007616596,-0.0025393204000000004,-0.0013039404000000003,4.478,0,0
0.0012486144,0.0020780266000000004,-0.0006698374000000001,-0.0024027926,-9.218581999999999e-05,4.479,0,0
0.0013950662,0.00297005,-4.687539999999999e-05,-0.0018416636,0.00038313618,4.48,0,0
0.0009787108,0.003792142,0.0011969406000000003,3.5874399999999895e-05,-8.795182000000004e-05,4.481,0,0
0.0009680138,0.0032160396000000006,0.0016664794000000004,0.0015055224,-0.0006807398200000001,4.482,0,0
0.0014914094,0.0023246350000000007,0.0015102496,0.0018350194,-0.00081078442,4.483,0,0
0.0016980874000000002,0.0019443650000000002,0.0014055247999999998,0.0024192076000000002,-0.0012538710000000002,4.484,0,0
0.0019732906,0.0015109189999999999,0.00120145724,0.0030029566,-0.0025380210000000005,4.485,0,0
0.0020867408000000004,0.0004577740000000001,0.00100089324,0.0025821006,-0.003161665,4.486,0,0
0.0014538408000000001,-0.0008848255999999999,0.00149633724,0.0019116612000000001,-0.003462703,4.487,0,0
0.0009453201999999998,-0.000997239,0.00129284444,0.0019576906,-0.0036621440000000004,4.488,0,0
0.0008923162,-0.000848969,-0.0005555135600000005,0.0019050045999999998,-0.0020183740000000003,4.489,0,0
0.0006750301999999999,-0.001616689,-0.0011447140000000002,0.0013673182000000002,0.0006053319999999997,4.49,0,0
0.000398463,-0.002278962,-0.0007324880000000005,0.0007938938,0.002423868,4.491,0,0
0.0008835229999999998,-0.001785724,-0.0021726680000000004,0.00030604720000000006,0.003596674,4.492,0,0
0.0011451456,-0.002057474,-0.0034026280000000004,-0.0004454208000000001,0.0039558722,4.493,0,0
0.0005535936000000001,-0.003167758,-0.0020310040000000003,-0.0013882108000000002,0.0027374522,4.494,0,0
6.549760000000007e-05,-0.0032343140000000003,-0.0016153526,-0.0021196104,0.0009024261999999999,4.495,0,0
-0.00018687199999999998,-0.00303985,-0.0037793225999999997,-0.00259926,-0.0001848838,4.496,0,0
-0.000879772,-0.002601354,-0.004730396600000001,-0.0024161580000000003,-0.0009504238,4.497,0,0
-0.00204086,-0.0014695740000000002,-0.0036543126,-0.0017778892000000002,-0.001691858,4.498,0,0
-0.00277842,-0.00012795599999999982,-0.0024773526,-0.0010541618000000001,-0.0020321540000000004,4.499,0,0
-0.0024447578000000004,0.0016377700000000002,-0.0003543099999999998,-9.061780000000014e-05,-0.0017503236200000002,4.5,0,0
-0.0011414538000000004,0.004177712,0.004462532000000001,0.0013945962,-0.00098309762,4.501,0,0
8.832220000000012e-05,0.005831364,0.009584638,0.0027930842,0.00013367038000000007,4.502,0,0
0.0008871121,0.0056452460000000005,0.01139579,0.0031555554000000006,0.00127798838,4.503,0,0
0.0011189621,0.005287722000000001,0.010343355999999998,0.0031995976000000004,0.00148726538,4.504,0,0
0.00046984390000000004,0.004128488400000001,0.007799640000000001,0.002912563000000001,0.0009166469999999999,4.505,0,0
-0.0007233001000000001,0.0012336844,0.0036396760000000005,0.0014578250000000003,1.0290000000000472e-06,4.506,0,0
-0.0015415681000000001,-0.0012287615999999999,-0.00047121400000000013,-3.4157000000000046e-05,-0.001169561,4.507,0,0
-0.0012307659999999999,-0.0019278556,-0.00216362,-0.0007716450000000001,-0.002001061,4.508,0,0
-4.798999999999971e-05,-0.0023882613999999997,-0.002350932,-0.0015539386,-0.001543344,4.509,0,0
0.0009194720000000002,-0.0027828618,-0.0028626660000000003,-0.0021343020000000002,-2.770400000000014e-05,4.51,0,0
0.0012927890000000001,-0.0017428152,-0.0032432220000000005,-0.0017827962,0.001323622,4.511,0,0
0.0012435350000000003,-0.0012239911999999999,-0.003019767,-0.0014749172199999998,0.00254375,4.512,0,0
0.0008909950000000002,-0.0012173812,-0.002394609,-0.00166222722,0.003380862,4.513,0,0
0.0010682250000000001,0.00032247860000000016,-0.001025485,-0.00120738722,0.0031693482000000003,4.514,0,0
0.001358823,0.0017821226000000003,0.0011255470000000002,-0.00032213122,0.0025996642000000003,4.515,0,0
0.0011709924000000002,0.0022364000000000004,0.003235951,-0.00018679442000000006,0.0021409062,4.516,0,0
0.0009012584000000001,0.0030792100000000006,0.0035592780000000004,-0.00027152160000000003,0.0015844578000000001,4.517,0,0
0.00017341839999999986,0.0035585788000000004,0.001810636,0.0002991496,0.0013377538000000002,4.518,0,0
-0.0014976416000000003,0.0023507928000000003,-0.00029425799999999993,0.0006108574,0.0014282656,4.519,0,0
-0.0029612536000000003,0.0010932758,-0.002108978,0.00045522940000000006,0.0009807428,4.52,0,0
-0.0029791308000000002,0.000626712,-0.00282492,0.00037023660000000007,-0.00019987119999999997,4.521,0,0
-0.0011215828,0.0007526519999999999,-0.00205864,1.390800000000041e-06,-0.0011381708,4.522,0,0
0.0016703692000000004,0.0007751464,-0.0009201439999999999,-0.0006316464000000001,-0.0019664148,4.523,0,0
0.0034626512000000007,0.00046267,4.932999999999999e-05,-0.0013751482000000002,-0.0032577388000000003,4.524,0,0
0.004366983800000001,0.00042081879999999994,0.0003975120000000001,-0.0021228482,-0.004082452,4.525,0,0
0.0044733484,-0.00021620540000000005,-0.00045617600000000014,-0.00275318,-0.0036946279999999997,4.526,0,0
0.0028491624,-0.0015296234,-0.0013841376000000001,-0.003126524,-0.0032164679999999997,4.527,0,0
0.00044835839999999975,-0.0023815426,-0.0012941110000000001,-0.0025408182,-0.0023692839999999997,4.528,0,0
-0.0009801476,-0.0026589662,-0.001453021,-0.0011363362,-2.3783999999999784e-05,4.529,0,0
-0.0016904042000000002,-0.00330144,-0.0015707590000000001,-7.680200000000103e-06,0.0019254460000000001,4.53,0,0
-0.0017133743000000002,-0.003032658,-0.001264689,0.0012000577999999999,0.0031736600000000005,4.531,0,0
-0.0009232423000000002,-0.0016434599999999998,-0.0011835082,0.0025986418000000003,0.004468358,4.532,0,0
-0.0006853483000000001,-0.001082862,-0.0006463928,0.0024699616000000003,0.004620028,4.533,0,0
-0.0013474303000000003,-0.0008496664,0.0003244812,0.0012788396000000001,0.0033386396000000002,4.534,0,0
-0.0022533083,-0.000119091,0.0010718632,0.0004745171999999999,0.0021356444000000005,4.535,0,0
-0.003090434,0.00012325020000000003,0.001083143,-0.00025191499999999996,0.0013618236,4.536,0,0
-0.00422593,-0.00023543840000000003,0.0007065077999999999,-0.000574001,8.332560000000002e-05,4.537,0,0
-0.005068191999999999,-1.7244600000000028e-05,0.00044398680000000006,-0.0001416305999999999,-0.0011051464000000001,4.538,0,0
-0.0036308060000000003,0.00032195780000000005,-0.00013823119999999996,0.0003857792,-0.001499186,4.539,0,0
-0.0011106100000000002,0.0006741404000000001,-0.0008713552,0.0005076557999999999,-0.0013176330000000001,4.54,0,0
0.00012412999999999997,0.0011767272,-0.0011137734000000001,0.0007774843999999999,-0.0009853742,4.541,0,0
0.0011595340000000003,0.0012027010000000002,-0.0011114594,0.0009980304000000001,-0.0001894962,4.542,0,0
0.0021852042000000006,0.0008306632,-0.001288893,0.0005280878,0.0008089318000000001,4.543,0,0
0.0016387858,0.0003536152,-0.0010028662400000002,0.00036385000000000003,0.0010798238000000002,4.544,0,0
0.00032283580000000016,-0.0003692808,-0.00039855304000000006,0.0008026238,0.000568136,4.545,0,0
0.0005208698000000001,-0.0013538028000000001,-0.00064684664,0.0008852624,-0.0005386800000000001,4.546,0,0
0.0019494498,-0.0015828826,-0.0007433486400000001,0.0004323694,-0.0019543480000000003,4.547,0,0
0.0034558576000000003,-0.0008538786000000003,-6.658203999999998e-05,0.0005730636,-0.0030210000000000002,4.548,0,0
0.004820134,0.0004324954,0.00045271920000000004,0.0009699936,-0.002980621,4.549,0,0
0.005319036,0.0020628774,0.000912614,0.000796631,-0.0022374010000000004,4.55,0,0
0.00435136,0.0041489154,0.0017078940000000002,0.0007907664000000001,-0.0015018132,4.551,0,0
0.0022509820000000003,0.006245314,0.0016390700000000003,0.0010116793999999998,-0.0010256672000000001,4.552,0,0
-0.00024087000000000002,0.007452383999999999,0.00023169800000000023,0.0008530585999999998,-0.0005912932000000001,4.553,0,0
-0.0025920680000000003,0.007470196,-0.00013300539999999995,0.00041173079999999996,-0.00025632020000000005,4.554,0,0
-0.0038113080000000002,0.005602264000000001,0.0003058166000000001,0.0002324432,-0.0006552864000000001,4.555,0,0
-0.004379584000000001,0.002080908000000001,8.751280000000026e-05,-0.00030753120000000006,-0.0011491362,4.556,0,0
-0.004639788000000001,-0.0018350320000000001,0.0002449908000000001,-0.0008523792000000001,-0.0009634322,4.557,0,0
-0.004379158,-0.005188942,0.0008954580000000002,-0.0006596344000000001,-0.0004688064,4.558,0,0
-0.0033765078000000002,-0.007825552000000001,0.00048083539999999996,-0.0009978566000000003,0.0001010036000000001,4.559,0,0
-0.0009590298,-0.008697528,-0.0008281166,-0.0017118864,0.0006294538000000001,4.56,0,0
0.0012773622000000003,-0.007683250000000001,-0.0010880426000000002,-0.0020780924000000003,0.0005872258000000001,4.561,0,0
0.0020828282,-0.006810368000000001,-0.0006914245999999999,-0.0026106524000000003,0.0006453638000000002,4.562,0,0
0.0021064742,-0.006368784000000001,-0.0005160715199999999,-0.0029590460000000003,0.0008139480000000002,4.563,0,0
0.0008849900000000002,-0.0052951759999999995,-0.00015979312,-0.002062332,0.00043040800000000007,4.564,0,0
-0.0019696659999999997,-0.0037684106000000005,-0.00026638911999999997,-0.0004611060000000002,0.0004129200000000001,4.565,0,0
-0.004317188,-0.0027688134000000003,-0.00123710732,0.0007723539999999999,0.0010403514,4.566,0,0
-0.0045104939999999994,-0.0012676374000000002,-0.00193376332,0.0017959767999999997,0.0013090690000000002,4.567,0,0
-0.0029574499999999995,0.0011815206,-0.0019623476,0.0023285128,0.0008931898,4.568,0,0
-0.0009080979999999997,0.0030184466000000004,-0.001858438,0.0019730022,0.0006345468000000002,4.569,0,0
0.0010142060000000001,0.0041579792,-0.0010980839999999998,0.0009326946,0.0004629928,4.57,0,0
0.0026032320000000005,0.005325842000000001,0.000660264,0.00040318260000000007,0.00020827020000000005,4.571,0,0
0.0031395120000000006,0.005957422,0.001857474,0.0006080158,0.00036216400000000005,4.572,0,0
0.0029407500000000002,0.0054361819999999995,0.002226004,0.0002545978,0.0008151332000000001,4.573,0,0
0.0024616902,0.0043174298000000005,0.0030317820000000002,-0.0002302316,0.0007446908000000001,4.574,0,0
0.0019905661999999997,0.0032679040000000003,0.0029429260000000002,-0.0004537140000000001,0.00028917080000000005,4.575,0,0
0.0022020502,0.0022656620000000003,0.0011377360000000005,-0.0010612300000000002,0.00024627,4.576,0,0
0.0024322062,0.001454468,-0.0004335919999999998,-0.0017187820000000003,-0.00022563740000000002,4.577,0,0
0.0022001862,0.001440426,-0.0010513679999999998,-0.0014955790000000001,-0.0011846734,4.578,0,0
0.002217472,0.0014063848,-0.002394068,-0.0012095970000000002,-0.0013956938000000002,4.579,0,0
0.0018224579999999999,0.0009039225999999999,-0.00385459,-0.0012784310000000002,-0.0012854002,4.58,0,0
0.00012624800000000014,0.0004665365999999998,-0.002984134,-0.0006277176000000001,-0.0015033302,4.581,0,0
-0.001225814,-0.0003515274000000001,-0.0014536039999999998,-0.0002448668,-0.0010834946000000002,4.582,0,0
-0.0015046273999999998,-0.0018730174,-0.0017900120000000001,-0.0004074868,1.1895400000000022e-05,4.583,0,0
-0.0021051053999999996,-0.003312476,-0.001914506,8.923919999999998e-05,0.0005652392,4.584,0,0
-0.0019399234000000002,-0.004207852,8.255000000000014e-05,0.0008460652000000001,0.0007970780000000001,4.585,0,0
-0.00036078940000000017,-0.0047662880000000005,0.0013457280000000002,0.0010413098,0.0012795074,4.586,0,0
0.0005068086000000001,-0.0043710264,0.0017464100000000003,0.0012861990000000002,0.0013384868,4.587,0,0
0.0003884294,-0.0034543618000000002,0.0035103700000000005,0.0018012920000000003,0.000748778,4.588,0,0
0.000730067,-0.0025638918,0.004382744000000001,0.001681512,0.00023825880000000004,4.589,0,0
0.0008484654000000001,-0.0016425118000000002,0.003487000200000001,0.0013799620000000002,8.564319999999998e-05,4.59,0,0
0.00016994220000000003,-0.0008840726000000002,0.0027669502000000007,0.0010906820000000002,-0.00023210540000000003,4.591,0,0
-0.0001375766,-0.00045467620000000006,0.0024191662,0.0005740288000000001,-0.0004888516,4.592,0,0
-0.0002814374,-0.0003260828000000001,0.0020265682000000004,-0.0004269411999999999,-0.0002806512,4.593,0,0
-0.000674509,0.00012637099999999996,0.0027186882000000004,-0.0014690471999999999,-0.00040642399999999996,4.594,0,0
-0.0012695674000000002,0.0008250449999999999,0.0037010579999999997,-0.0016219866,-0.0011496188,4.595,0,0
-0.0022170042000000004,0.0010889598,0.00261124,-0.0014512461999999999,-0.0017895236,4.596,0,0
-0.0032015634000000003,0.0009172334,0.001076386,-0.000993331,-0.0019458924,4.597,0,0
-0.0036345320000000006,0.0010136194,3.626000000000063e-06,5.340499999999997e-05,-0.0017666580000000004,4.598,0,0
-0.0034008660000000002,0.0007643936,-0.0016527900000000003,0.0009387042,-0.0014839444,4.599,0,0
-0.00269716976,0.0007784836,-0.00344141,0.0011688532,-0.000541134,4.6,0,0
-0.0016777835600000003,0.0018356676000000002,-0.0049029780000000005,0.0015922747999999997,0.00099753,4.601,0,0
-0.0007331527600000002,0.002315412,-0.006195558,0.0015820888000000002,0.0017510200000000003,4.602,0,0
-0.00028037876,0.0018158302000000003,-0.007429574000000001,0.00045982880000000007,0.0018953060000000002,4.603,0,0
-0.00012779016,0.0017698762000000002,-0.007407156000000001,-0.0003600703999999998,0.0021921944000000003,4.604,0,0
0.0011014236,0.0014607228,-0.0052902240000000005,-0.000969276,0.0019989082,4.605,0,0
0.0034461274000000004,-0.0003329431999999999,-0.001479182,-0.002346732,0.0009090362000000002,4.606,0,0
0.0054395666,-0.0016226592,0.0018994680000000003,-0.003374564,-7.934180000000008e-05,4.607,0,0
0.0068582166000000005,-0.0019856474000000002,0.0034304960000000003,-0.0029950660000000002,-0.0005317028000000001,4.608,0,0
0.00759265,-0.0025491274,0.0031944179999999997,-0.0022735420000000004,-0.00015129279999999998,4.609,0,0
0.006386828400000001,-0.0032085720000000002,0.001443472,-0.0013285860000000005,0.000840467,4.61,0,0
0.0039142556,-0.002852912,-0.00039981399999999996,0.000412224,0.0015642310000000001,4.611,0,0
0.0020704774000000004,-0.001663642,-0.0014284412,0.001789142,0.002308477,4.612,0,0
0.000767072,-0.00034776399999999997,-0.0008278132,0.0025823620000000004,0.0026104080000000003,4.613,0,0
-0.000374646,0.001067468,0.0012175608000000002,0.003428338,0.0016952522,4.614,0,0
-0.0013889804,0.00205625,0.0031847888000000003,0.003664838,0.00026576820000000006,4.615,0,0
-0.0025834116,0.0022326008000000002,0.0043540328,0.003398186,-0.0006418698,4.616,0,0
-0.0039384754000000004,0.0016743974000000003,0.005285322,0.0033006540000000005,-0.0014292378000000001,4.617,0,0
-0.004215144,0.0015664154,0.0059282580000000005,0.0031318680000000003,-0.0019034878000000002,4.618,0,0
-0.0030192660000000005,0.0019821774,0.005348506,0.002519244,-0.0010029400000000001,4.619,0,0
-0.0022198832000000003,0.0021960454000000003,0.0040966126000000005,0.0016376399999999997,0.0004078160000000002,4.62,0,0
-0.0020122592000000003,0.0024850666000000004,0.0029758186,0.00035549599999999985,0.0008580440000000001,4.621,0,0
-0.0014729272000000002,0.00256639224,0.0013105605999999999,-0.0009696339999999999,0.0013403339999999999,4.622,0,0
-0.0018703832000000003,0.0012410602400000003,0.00022338500000000007,-0.002197188,0.0016792216,4.623,0,0
-0.0032807152000000005,-0.0003629617600000001,0.0005193110000000001,-0.00336635,0.0003218056,4.624,0,0
-0.0037394660000000003,-0.0012383917600000001,-0.00017372959999999995,-0.003804254,-0.0012520284000000002,4.625,0,0
-0.00235887,-0.0018777237600000002,-0.0027938756,-0.003717566,-0.0015846424000000002,4.626,0,0
-0.0005796359999999999,-0.002210262,-0.005082509600000001,-0.00329044,-0.0019086884,4.627,0,0
0.0011595960000000002,-0.0016319356000000001,-0.006219626000000001,-0.0018673639999999998,-0.00252815,4.628,0,0
0.0035688900000000003,-0.0005617155999999999,-0.0075394780000000005,-0.00046814800000000004,-0.0023866580000000003,4.629,0,0
0.005265080000000001,6.928639999999992e-05,-0.006855315,-0.00015547199999999998,-0.00219511,4.63,0,0
0.0050665196000000004,0.0014609744000000002,-0.0033297590000000003,0.001411934,-0.00127005,4.631,0,0
0.0039319,0.0027590724,0.0004315869999999999,0.002791932,-0.00033373400000000003,4.632,0,0
0.0025720760000000004,0.00310081,0.002038539,0.002854518,0.00046216200000000007,4.633,0,0
0.00017577400000000018,0.0027112716,0.003287213,0.002563356,0.002869252,4.634,0,0
-0.001302226,0.0023149544,0.00356762,-0.00030983200000000034,0.005072416,4.635,0,0
-0.0016847776000000001,0.00026309840000000016,-9.316000000000099e-06,-0.004894148000000001,0.005477956,4.636,0,0
-0.0013588100000000002,-0.0039880336,-0.0036152420000000003,-0.008273464000000001,0.005270488,4.637,0,0
0.0007647600000000002,-0.005970969600000001,-0.006132208000000001,-0.010793452,0.004833810399999999,4.638,0,0
0.0023228500000000004,-0.0056762732,-0.008391200000000001,-0.011772436,0.0024416643999999998,4.639,0,0
0.0021190180000000003,-0.0043013,-0.007998406000000001,-0.007653234,-0.0004025576,4.64,0,0
0.0008901100000000004,-0.0006945800000000002,-0.003813022,-0.0015120939999999994,-0.0028381936000000003,4.641,0,0
-0.0014609659999999997,0.0053339600000000004,0.0008336279999999997,0.0037175460000000004,-0.005295255600000001,4.642,0,0
-0.0053756080000000005,0.010147482,0.00524159,0.009369002,-0.007347188000000001,4.643,0,0
-0.008796948,0.011193031999999999,0.009601032,0.014154882,-0.008913856000000001,4.644,0,0
-0.010413264000000002,0.0097457244,0.011651154,0.016158600000000002,-0.009055598000000002,4.645,0,0
-0.010032834000000003,0.0073075002,0.012348566000000002,0.015169954,-0.007764480000000001,4.646,0,0
-0.0077406346,0.0042652422,0.012623596000000003,0.012666342,-0.005440522,4.647,0,0
-0.0043117366,-0.0001286598,0.011756898000000002,0.008086313999999999,-0.0023734620000000007,4.648,0,0
0.00048252340000000003,-0.0036048798000000003,0.008376993999999999,0.0021786139999999997,0.001325818,4.649,0,0
0.0052905034,-0.0059330442,0.003505914,-0.0031257060000000007,0.004084344,4.65,0,0
0.009099317400000001,-0.00949488,-0.0011200020000000006,-0.007688640000000001,0.005406108000000001,4.651,0,0
0.011475738000000003,-0.013103102000000002,-0.006641882000000001,-0.011276808,0.006154332,4.652,0,0
0.011906644000000001,-0.0144781,-0.012072964000000002,-0.013309660000000001,0.005916654,4.653,0,0
0.011002122,-0.013665992,-0.014844300000000001,-0.013027862000000001,0.004703726,4.654,0,0
0.009299634000000001,-0.011612392000000001,-0.015281880000000001,-0.010914006000000002,0.003560474,4.655,0,0
0.006364840000000001,-0.0076756279999999994,-0.013907038,-0.007027670000000001,0.0025734346,4.656,0,0
0.0022926599999999998,-0.0024315920000000006,-0.010382548,-0.0017702700000000009,0.0007782285999999999,4.657,0,0
-0.001410084,0.001998476,-0.005130422000000001,0.002984946,-0.0010949414000000005,4.658,0,0
-0.004609878,0.005665768000000001,-8.21299999999997e-05,0.006671428,-0.0028623034000000006,4.659,0,0
-0.007634730000000001,0.009071268,0.004221856,0.009610592000000001,-0.004389365400000001,4.66,0,0
-0.009464736,0.011559044000000001,0.007631614,0.010888016000000002,-0.005065018000000001,4.661,0,0
-0.009797578000000001,0.012610748,0.009139434000000002,0.010145210000000002,-0.005138954000000001,4.662,0,0
-0.009388388000000001,0.012526456,0.009267752,0.008998876,-0.004429978,4.663,0,0
-0.00793365,0.011124834000000002,0.008471532,0.007023947800000001,-0.003077666,4.664,0,0
-0.004942698000000001,0.007573636000000001,0.0065935460000000005,0.0035828718000000003,-0.0010634340000000003,4.665,0,0
-0.0014766379999999995,0.003017768000000001,0.003821648000000001,0.00021493779999999995,0.001433278,4.666,0,0
0.0020734559999999996,-0.0010487720000000003,0.0007588939999999995,-0.0030169902000000003,0.004089250000000001,4.667,0,0
0.005761686,-0.005155288,-0.002636294,-0.006356752200000001,0.006556638000000001,4.668,0,0
0.008789484,-0.009021326,-0.005770426,-0.008861624000000002,0.008329584000000001,4.669,0,0
0.010570712,-0.010436708000000001,-0.007363014000000001,-0.010186848000000002,0.008497300000000001,4.67,0,0
0.011236592,-0.009786304,-0.00792901,-0.010445500000000002,0.00706014,4.671,0,0
0.010593002,-0.008896602,-0.007200814,-0.009622492000000002,0.005001966,4.672,0,0
0.008470115600000001,-0.0066000668,-0.004603234,-0.00738101,0.0018253160000000007,4.673,0,0
0.005137525600000001,-0.0025763968,-0.002672852,-0.003708262,-0.001722814,4.674,0,0
0.0005347956,0.0010564072000000002,-0.001684906,-3.831400000000001e-05,-0.004699316,4.675,0,0
-0.004350644400000001,0.0037859432000000004,0.000963844,0.003040194,-0.006606818,4.676,0,0
-0.0084772864,0.0065480132,0.004882412,0.006220959999999999,-0.006781820000000001,4.677,0,0
-0.01146724,0.00831216,0.008072496,0.008576098,-0.005274944,4.678,0,0
-0.012681058,0.008234758,0.011509254,0.00888753,-0.0026899280000000003,4.679,0,0
-0.011511402000000002,0.008048828000000001,0.014682456,0.00808157,-0.00035682399999999994,4.68,0,0
-0.0084800944,0.007084426000000001,0.015061444,0.006441594000000001,0.0014831780000000001,4.681,0,0
-0.0039471324,0.003934760000000001,0.01205895,0.0033646900000000005,0.0030689840000000003,4.682,0,0
0.0016484075999999997,0.0005275659999999999,0.00586271,-0.0002663600000000002,0.0037625040000000003,4.683,0,0
0.006089515600000001,-0.002827762,-0.0014600500000000005,-0.0038508880000000002,0.003450728,4.684,0,0
0.008373999600000001,-0.007394096000000001,-0.00813519,-0.007070736,0.0034850580000000005,4.685,0,0
0.00876081,-0.010953965999999999,-0.013025234000000002,-0.009283982,0.0031564526,4.686,0,0
0.0073614574,-0.011511436000000002,-0.014975968000000003,-0.009861100000000001,0.0016865646,4.687,0,0
0.0046190486,-0.010728960000000001,-0.013658348000000002,-0.009093158,0.00035408659999999986,4.688,0,0
0.0021703928,-0.008408650200000001,-0.009997658,-0.007343154,-0.0011098074000000001,4.689,0,0
0.0007943448,-0.003964498200000001,-0.0057576674,-0.003936918,-0.0029602034,4.69,0,0
-0.0005992552,0.00015600580000000035,-0.0019357293999999999,-1.7674000000000292e-05,-0.00423233,4.691,0,0
-0.0024075605999999998,0.0032479278,0.0014346146,0.003148616,-0.004862062,4.692,0,0
-0.0044445718,0.0062510438,0.0042435546,0.005910256000000001,-0.0055398,4.693,0,0
-0.006757036,0.008296214,0.0060937466,0.00837358,-0.005440878,4.694,0,0
-0.008939478,0.008472558,0.006935028,0.009449764,-0.0036666599999999995,4.695,0,0
-0.010047594000000002,0.007767546,0.006737666000000001,0.0091505,-0.0015939640000000002,4.696,0,0
-0.008711698,0.006790134,0.00567155,0.0083709,-9.094000000000018e-05,4.697,0,0
-0.004644618,0.005077459999999999,0.004080692,0.006039,0.0017284239999999999,4.698,0,0
7.418200000000033e-05,0.002667158,0.0027986960000000003,0.0024861540000000004,0.0033391220000000004,4.699,0,0
0.004257342000000001,0.0008239159999999998,0.0008880020000000001,-0.0008072899999999998,0.003549912,4.7,0,0
0.00825238,-0.0003909400000000001,-0.0023010940000000005,-0.00398362,0.003256894,4.701,0,0
0.011326260000000001,-0.0020398440000000003,-0.005723574,-0.006795948,0.0036936200000000003,4.702,0,0
0.011605380000000002,-0.0033192580000000003,-0.008798256,-0.008005264,0.0040053300000000005,4.703,0,0
0.009857742,-0.0037718800000000005,-0.010412478000000003,-0.007729354,0.0034815420000000002,4.704,0,0
0.00736274,-0.00441131,-0.009238522,-0.00669498,0.0027839163999999997,4.705,0,0
0.0036584520000000004,-0.004816298,-0.005853904,-0.004366008,0.0018037163999999996,4.706,0,0
-0.0006785159999999999,-0.00401676,-0.0019385080000000002,-0.0011029020000000002,0.0002385684,4.707,0,0
-0.004462048000000001,-0.0032466660000000005,0.0023092019999999998,0.0019535460000000004,-0.0012732016,4.708,0,0
-0.006884368000000001,-0.0023308666000000002,0.005301844,0.00461559,-0.0019809756,4.709,0,0
-0.00816384,-0.00016971059999999977,0.006477170000000001,0.006682962000000001,-0.002560148,4.71,0,0
-0.0077904440000000005,0.0021745234,0.00671793,0.0075961,-0.0032186840000000003,4.711,0,0
-0.0059475528,0.0038859934,0.006083418,0.007292104,-0.0034122,4.712,0,0
-0.0038613148000000005,0.005171349400000001,0.005567932,0.006491336,-0.003510254,4.713,0,0
-0.0020099110000000005,0.005610614000000001,0.004636444,0.005148224000000001,-0.0031506904,4.714,0,0
-0.00010899100000000015,0.0038241020000000002,0.003031886,0.0027196819999999997,-0.0019421384,4.715,0,0
0.001586335,0.0010128160000000002,0.0013566740000000002,8.383799999999971e-05,-0.00033919440000000005,4.716,0,0
0.0019892918,-0.001245636,-0.0006156919999999999,-0.0022476560000000002,0.0006373936,4.717,0,0
0.0022527438,-0.003746558,-0.002945988,-0.00469706,0.0013167138,4.718,0,0
0.0028502040000000003,-0.006026340000000001,-0.004345638,-0.006493512000000001,0.0024016802,4.719,0,0
0.002872064,-0.006406760000000001,-0.0034459780000000006,-0.006761016000000001,0.0027767221999999998,4.72,0,0
0.0029617260000000005,-0.0055945080000000015,-0.0018364840000000002,-0.006214844000000001,0.0025406642,4.721,0,0
0.003166314,-0.005274740000000001,-0.0013145560000000001,-0.005615598000000001,0.0026892502,4.722,0,0
0.0024905905999999998,-0.00383766,-0.001357506,-0.004617708000000001,0.0027133,4.723,0,0
0.0012802485999999999,-0.0009171979999999997,-0.0014646380000000003,-0.0030951646200000006,0.0015054499999999998,4.724,0,0
0.0007056126,0.001210834,-0.0020723116,-0.0016332886200000002,-6.872999999999992e-05,4.725,0,0
-6.973740000000008e-05,0.0030123199999999998,-0.0022645916,-0.0001023026200000002,-0.0010091,4.726,0,0
-0.0019617054,0.005502434,-0.0004834975999999997,0.00210384738,-0.0020758499999999997,4.727,0,0
-0.003446586,0.006560992,0.0022534964000000004,0.00415108138,-0.00284572,4.728,0,0
-0.00394638,0.006065192,0.0046150564,0.005001482,-0.0029993520000000003,4.729,0,0
-0.00450812,0.006462116,0.006548528000000001,0.005412322,-0.0029550920000000003,4.73,0,0
-0.004650586,0.006586341999999999,0.006298162,0.004916686,-0.0023265030600000004,4.731,0,0
-0.003229206,0.0054198020000000005,0.003722122,0.002589946,-0.0011834710600000002,4.732,0,0
-0.001521634,0.004570583800000001,0.0010510519999999994,8.4228e-05,-0.0006231436600000001,4.733,0,0
-0.00010090599999999989,0.0030907578,-0.0014945100000000005,-0.0020303120000000003,-0.0004091366600000001,4.734,0,0
0.001884922,-0.0013131662000000007,-0.004507280000000001,-0.004244962,0.00099282934,4.735,0,0
0.0031863959999999998,-0.006881966200000001,-0.0064762280000000005,-0.0048779539999999995,0.0027789024,4.736,0,0
0.0035062039999999997,-0.0105151862,-0.006677948,-0.0035748560000000004,0.0037717124,4.737,0,0
0.0037785040000000002,-0.012334538000000003,-0.007227802000000001,-0.0021538366000000003,0.004432133,4.738,0,0
0.003838262,-0.012378480000000002,-0.007618246000000001,-0.0007001108000000002,0.0046822712,4.739,0,0
0.003339148,-0.0090164,-0.006688058200000001,0.0011981592,0.0034027032,4.74,0,0
0.0025411944000000002,-0.0037169320000000013,-0.004636250200000001,0.0026964852000000003,0.0009046011999999998,4.741,0,0
0.0017329888000000002,0.00042685399999999973,-0.0017524222000000003,0.0036010032000000003,-0.0009855028,4.742,0,0
0.0009363024000000001,0.0038390180000000005,0.0012775738,0.0048744578,-0.0022644528,4.743,0,0
-3.9903599999999975e-05,0.006635126000000001,0.0037995078,0.006079192,-0.003414642,4.744,0,0
-0.0010564396000000002,0.007523050000000001,0.004857576,0.00612723,-0.0034897719999999995,4.745,0,0
-0.0015414880000000001,0.007273892000000001,0.005305888,0.005152758,-0.0028121381999999997,4.746,0,0
-0.0021162544,0.006672862000000001,0.005324096,0.003973478000000001,-0.0022881316000000003,4.747,0,0
-0.002352944,0.0050105948,0.004113565,0.002129742,-0.0012771776,4.748,0,0
-0.0016680000000000002,0.0024978488000000003,0.002654209,-0.0006129419999999998,8.588440000000002e-05,4.749,0,0
-0.0009743660000000002,0.00013602280000000002,0.0016252864,-0.002819508,0.0006073210000000001,4.75,0,0
2.1582000000000133e-05,-0.0019928192,0.00017667639999999988,-0.004504434,0.0006413512200000001,4.751,0,0
0.00158792,-0.0037567772000000007,-0.0014216996000000002,-0.006006340000000001,0.0008173486200000001,4.752,0,0
0.0023152620000000002,-0.004747464000000001,-0.0019165786000000001,-0.006715540000000001,0.00011174462000000001,4.753,0,0
0.0020159016000000003,-0.004467286,-0.0021292526,-0.006202,-0.0011498933800000001,4.754,0,0
0.0016361056,-0.0036094078000000005,-0.002521794,-0.00562934,-0.0020015379800000003,4.755,0,0
0.0005543016000000001,-0.002336886400000001,-0.0020005216000000005,-0.005061142,-0.002648058,4.756,0,0
-0.0007844384000000001,-0.00019958839999999992,-0.0007237296,-0.0030842179999999997,-0.0027343336000000005,4.757,0,0
-0.0013011344,0.0015225356000000002,0.0005804664,-0.0008952499999999996,-0.0019370036000000003,4.758,0,0
-0.0015806220000000003,0.0026307016000000003,0.0016574964,0.000614002,-0.0007691095999999999,4.759,0,0
-0.002282368,0.0037235674000000007,0.0026570524,0.002879556,0.000293312,4.76,0,0
-0.00257193,0.0044385760000000005,0.00315634,0.005140124,0.001147212,4.761,0,0
-0.0018712459999999996,0.004849864000000001,0.0029408940000000003,0.00504746,0.0013722196,4.762,0,0
-0.0011679639999999999,0.005431436,0.0030595140000000006,0.003747206,0.0010900874000000001,4.763,0,0
-0.00056084,0.0047356246,0.0031004580000000004,0.0029289294000000004,0.0011455154,4.764,0,0
0.000619526,0.0027562166,0.0026902732,0.0018419394000000005,0.0016699498000000003,4.765,0,0
0.0014587056000000002,0.0008017445999999998,0.0020711492,4.692139999999998e-05,0.0017608158,4.766,0,0
0.0009673356000000001,-0.0017132733999999999,0.0009799232000000002,-0.0011334026000000001,0.0015743632000000001,4.767,0,0
5.152560000000006e-05,-0.0044467094,-0.00035299279999999995,-0.0013557186,0.0021598234,4.768,0,0
-0.0008951964,-0.00598311,-0.0012516448,-0.002183768,0.0026354254,4.769,0,0
-0.0011437024,-0.0056934659999999995,-0.001427138,-0.00334357,0.0020862192000000003,4.77,0,0
-0.00043245799999999993,-0.004704772000000001,-0.0014698723999999998,-0.003515382,0.0016682090000000004,4.771,0,0
-0.0004965619999999999,-0.004025642,-0.0011871504000000002,-0.0031552840000000004,0.0016067380000000001,4.772,0,0
-0.001187402,-0.003006678,-0.0007029618000000002,-0.0025120518000000002,0.0005716580000000001,4.773,0,0
-0.0006738237999999998,-0.0015999496,-0.00020617980000000005,-0.0009512317999999999,-0.001069042,4.774,0,0
-3.4525799999999716e-05,-0.000798739,-0.00012644720000000003,0.0005412202000000001,-0.0018791338000000001,4.775,0,0
-0.0011406998,0.000161715,-0.0014592448,0.0015387902000000002,-0.0021895556000000004,4.776,0,0
-0.0012373958,0.0019351790000000002,-0.0028675668,0.0028444542000000002,-0.0027674500000000003,4.777,0,0
0.0010166422000000002,0.0027957670000000002,-0.0030641346,0.0036879260000000002,-0.0027086260000000004,4.778,0,0
0.002018948,0.0025297740000000003,-0.0027955006,0.00368517,-0.0018314800000000001,4.779,0,0
0.0008317620000000002,0.0021734614000000004,-0.0022448372,0.0038813620000000006,-0.0016619080000000001,4.78,0,0
0.0006709740000000002,0.0008717614000000002,-0.00015255919999999977,0.003992334,-0.001692178,4.781,0,0
0.0009618320000000001,-0.0010891826,0.0023197088000000005,0.0029624012,-0.000812812,4.782,0,0
-0.0003198604,-0.0014709266000000002,0.0030821760000000003,0.0018633582000000001,-0.0001228559999999999,4.783,0,0
-0.0011027138000000002,-0.001012954,0.0027932446,0.0009546702,0.00036841600000000005,4.784,0,0
9.089820000000002e-05,-0.001184722,0.0018705865999999998,-0.0008106538000000002,0.0015519580000000004,4.785,0,0
0.0020133362,-0.0007143034,0.0008045366,-0.0022425118000000003,0.0021150858,4.786,0,0
0.0030526422,0.00010433819999999998,0.00037753659999999997,-0.0027009210000000007,0.0013038218,4.787,0,0
0.0038165806,-5.371600000000002e-05,0.0001785046,-0.002993594,0.0006474358,4.788,0,0
0.0037189849999999997,-0.000612572,0.0005164160000000001,-0.002932426,0.000264998,4.789,0,0
0.002049659,-0.0007025380000000001,0.0012952480000000001,-0.0019260208000000001,-0.0005216388000000001,4.79,0,0
0.0005035432000000001,-0.0007091692,0.0018289340000000004,-0.0004376587999999999,-0.0009632086000000001,4.791,0,0
-0.00024030879999999984,-0.0010183082,0.002020104,0.0005665852,-0.0005582208000000001,4.792,0,0
-0.0005639728000000001,-0.0004502219999999999,0.0014338938000000002,0.0012093952000000001,-0.00017910560000000008,4.793,0,0
-0.0004863802000000001,0.001398986,0.0005734517999999999,0.0016539142,3.7614199999999956e-05,4.794,0,0
-0.0002539342000000001,0.0027902160000000003,7.719660000000004e-05,0.001541038,0.000992281,4.795,0,0
-0.0008399664000000001,0.0031647266000000003,-1.4926000000000338e-06,0.0009772668000000001,0.001941393,4.796,0,0
-0.0021155224,0.0035415760000000003,-0.0004809518400000001,0.000558601,0.0019939180000000003,4.797,0,0
-0.0034812984,0.0028408866,-0.00174230764,0.00010949560000000002,0.00182150474,4.798,0,0
-0.003979508,0.0010938818000000002,-0.00281706964,-0.0005483394,0.00172174674,4.799,0,0
-0.003619198,0.00014208400000000006,-0.0037054164400000004,-0.0007788884000000001,0.00086427594,4.8,0,0
-0.0029676722000000003,-0.000628036,-0.00473319924,-0.0012058932,-0.00020735805999999997,4.801,0,0
-0.0015064701999999998,-0.0019736520000000002,-0.005176308,-0.0020349474,-0.00036354325999999996,4.802,0,0
0.00011760980000000013,-0.0026432806000000002,-0.003483414,-0.0020817279999999997,-0.00048312679999999996,4.803,0,0
0.0012577338000000003,-0.0022599902000000004,-0.0014921920000000003,-0.0014632044,-0.0011102988,4.804,0,0
0.0024520038,-0.0020512120000000006,-0.0007508502,-0.0013787344,-0.0012505026000000001,4.805,0,0
0.0030173900000000004,-0.0014798426,0.0008878798,-0.0012725524,-0.0011423526000000001,4.806,0,0
0.0024643660000000004,0.0001797754,0.0028212278,-0.0004838774,-0.0016175922000000002,4.807,0,0
0.001455114,0.0014533674000000003,0.0037248538000000005,-0.00014566119999999996,-0.0016549226000000003,4.808,0,0
2.6317999999999784e-05,0.0017290838,0.004535693800000001,0.00011880720000000003,-0.0003720346,4.809,0,0
-0.0006651966,0.0023065814,0.0051245660000000005,0.0011611532000000001,0.0008045959999999999,4.81,0,0
-2.026660000000011e-05,0.0030602,0.00362407,0.0017685412,0.0012742606000000001,4.811,0,0
0.0005877813999999999,0.0027341462000000003,0.0008685339999999996,0.001605028,0.0019589,4.812,0,0
0.0007078554000000002,0.0020469096,-0.001089006,0.0016061484,0.0019696666,4.813,0,0
0.0009290934000000001,0.0011397636,-0.00298876,0.0010844976000000002,0.0008382166000000001,4.814,0,0
0.0004753700000000002,-0.0007886003999999999,-0.00408705,4.7758800000000014e-05,-2.0466799999999965e-05,4.815,0,0
-0.0005617828,-0.0024818524000000002,-0.0031685516,-0.00026131300000000005,1.917040000000005e-05,4.816,0,0
-0.0011501928,-0.0028745866,-0.0014860556,-0.0005186488000000001,-9.095665999999999e-05,4.817,0,0
-0.0010831508,-0.0025953792000000006,-0.0003481516000000001,-0.0014796374000000001,-0.00019376725999999995,4.818,0,0
-0.0002001808,-0.0021026390000000008,0.0002474174,-0.0022010006,0.00012078674,4.819,0,0
0.0003798092,-0.0007904984000000001,0.0011141268,-0.0023682958,3.3310340000000035e-05,4.82,0,0
0.0003775604,0.0003241696,0.0015472264000000002,-0.0024412946,-0.00029383006,4.821,0,0
0.0006267884,9.877760000000002e-05,0.0015579104000000002,-0.0022908525999999997,-0.0002850286,4.822,0,0
0.0006075864000000002,-0.0003829912000000001,0.0015211004000000002,-0.001406617,0.00024216939999999998,4.823,0,0
-0.0002354036,-0.00010837539999999999,6.652140000000008e-05,9.4667e-05,0.0006157434,4.824,0,0
-0.00039145520000000004,0.00056642,-0.00216038,0.000958951,0.0005684472,4.825,0,0
-3.924959999999998e-05,0.001167248,-0.0033721819999999996,0.0013899756,9.725800000000089e-06,4.826,0,0
-0.00038535759999999995,0.003019396,-0.0032811759999999994,0.0022882396000000003,-0.001168184,4.827,0,0
-0.00044458959999999994,0.005018186000000001,-0.0025534819999999997,0.002498304,-0.0021877760000000002,4.828,0,0
-0.00020715759999999998,0.0055620439999999995,-0.0006102759999999994,0.0017250388000000002,-0.0031163920000000004,4.829,0,0
-0.001170314,0.0048598287999999995,0.002141248,0.0013964398,-0.00409926,4.83,0,0
-0.0025107000000000003,0.0027700028,0.003341022,0.0007968237999999999,-0.003817508,4.831,0,0
-0.0021011493999999998,-0.00048766520000000004,0.002597246,-0.0002859882,-0.0019180220000000001,4.832,0,0
-0.0013185954000000002,-0.0037135932000000003,0.001214208,7.375980000000012e-05,0.000217664,4.833,0,0
-0.0008126174000000004,-0.0059002352,0.000357156,0.0009030130000000003,0.002164264,4.834,0,0
0.00019224259999999985,-0.0077270360000000005,-0.000649466,0.0007444996600000002,0.004390514,4.835,0,0
0.0014794105999999998,-0.007335766,-0.00192021,0.0007986396600000001,0.005753652000000001,4.836,0,0
0.002396832,-0.004358294,-0.0024887060000000003,0.0011260690600000004,0.0051984169999999994,4.837,0,0
0.0025160960000000002,-0.002113188,-0.002774282,0.00019927706000000001,0.0035817770000000004,4.838,0,0
0.0023949080000000003,-0.0008637781999999996,-0.002792414,-0.0011972549400000002,0.0017225110000000004,4.839,0,0
0.0018914799999999999,0.0011738498,-0.0025525153999999997,-0.0016407726000000002,0.00018302900000000003,4.84,0,0
0.001199004,0.0026175838,-0.0023528973999999998,-0.0014927806,-0.000505321,4.841,0,0
