bandpass 1,bandpass 2,bandpass 3,bandpass 4,bandpass 5,time,onset,mark
-0.001844862,-0.0030918560000000005,-0.001534524,0.0002918284,-3.34498e-05,4.146,0,0
-0.0028965040000000003,-0.0036661820000000005,-0.001709284,0.0006647104000000001,3.091680000000001e-05,4.147,0,0
-0.0030687058000000004,-0.00445988,-0.00228064,0.0009898884,-0.00032128920000000006,4.148,0,0
-0.0030091958000000004,-0.0052988720000000005,-0.00207462,0.0020133724,-0.0005536602,4.149,0,0
-0.0026805098,-0.004873364,-0.00209747,0.002337178,-0.0003801894000000001,4.15,0,0
-0.0019090881999999998,-0.0029310939999999995,-0.0029520200000000005,0.0015843416,-0.000513415,4.151,0,0
-0.0017451162000000002,-0.0021570439999999995,-0.003237176,0.0009413376,-0.0008090276000000001,4.152,0,0
-0.0022011164,-0.0013372849999999997,-0.0024932531999999996,0.00011470760000000001,-0.00013547560000000001,4.153,0,0
-0.0020185824000000002,0.0001160494000000001,-0.0022369931999999997,-0.0010760563999999999,0.0004082784,4.154,0,0
-0.0016391618,0.00070757096,-0.0018076492,-0.0017922924,0.00017752799999999998,4.155,0,0
-0.0004943894000000002,0.00072867296,-0.0005356752000000001,-0.0017831468,0.0013305436,4.156,0,0
0.0013162466000000003,0.0007491809600000001,0.0001273868,-0.0015759804,0.0026364736,4.157,1,1
0.0019073900000000001,0.00124526396,0.000273446,-0.0014518964000000002,0.0023146216000000004,4.158,0,0
0.0022699732000000003,0.00176434356,0.001904644,-0.0014501944000000003,0.0020703914,4.159,0,0
0.0024356206000000005,0.0019667919999999998,0.0039032,-0.0016326344000000001,0.0018886678,4.16,0,0
0.0024235446,0.00308934,0.004704178,-0.0019823736,0.00041766179999999995,4.161,0,0
0.0028148906,0.004314806,0.00523891,-0.0021446840000000004,-0.0012406942000000002,4.162,0,0
0.0033228832000000005,0.004444962,0.005790653999999999,-0.002215786,-0.0016802482000000001,4.163,0,0
0.0034054946000000004,0.0046231,0.00546115,-0.0022599660000000004,-0.001672234,4.164,0,0
0.0031012768000000003,0.004424089400000001,0.004658256,-0.002131186,-0.0015131588,4.165,0,0
0.0020476936,0.0023726494000000002,0.0031549840000000004,-0.0022919560000000004,-0.0013691308000000001,4.166,0,0
5.217959999999995e-05,0.00025982740000000005,-0.0002309139999999996,-0.0022647706000000004,-0.0007174512,4.167,0,0
-0.0011508924,-0.0005177664000000002,-0.0038539840000000004,-0.0016898678000000003,0.00025755079999999995,4.168,0,0
-0.0014555130000000003,-0.0007696284000000001,-0.006461548000000001,-0.0008837958000000002,0.0005466268,4.169,0,0
-0.0019272292,-0.0005834958,-0.008416156,-0.00010257380000000001,0.0008422576,4.17,0,0
-0.0025416980000000002,0.00043310020000000013,-0.008460422,0.0004663798000000001,0.0009656244000000001,4.171,0,0
-0.002427756,0.0023184422000000005,-0.0056132937999999995,0.0007753480000000001,0.00043472679999999976,4.172,0,0
-0.001957744,0.0036532000000000005,-0.0022915198,0.0008375564000000001,-0.0008264412000000001,4.173,0,0
-0.002093562,0.004089670000000001,-0.0004983248,0.0008605204,-0.0014555392000000001,4.174,0,0
-0.002231948,0.004066738800000001,0.000546079,0.0009405264,-0.0020595812,4.175,0,0
-0.002119972,0.0033559168000000003,0.001085077,0.0015528768000000002,-0.002302202,4.176,0,0
-0.002531776,0.0013489707999999997,0.0013641008,0.0020061792,-0.00033704200000000007,4.177,0,0
-0.003533648,-0.0015753092,0.0013165928,0.00137903,0.001813636,4.178,0,0
-0.004167738000000001,-0.0036422452,0.0007787677999999999,0.0003430820000000001,0.002807766,4.179,0,0
-0.0037930740000000004,-0.004926142,0.00065105,-0.0006281460000000001,0.0032846178000000004,4.18,0,0
-0.0026678100000000005,-0.0060669980000000005,0.0013061260000000001,-0.0016752820000000002,0.0033423438000000005,4.181,0,0
-0.0007279580000000003,-0.006618126,0.002307638,-0.00248312,0.0015902698000000005,4.182,0,0
0.001656294,-0.006165858,0.0036223180000000002,-0.0022883540000000003,-0.0009651401999999998,4.183,0,0
0.00377525,-0.005520858000000001,0.0057554,-0.0011539859999999999,-0.0033199101999999998,4.184,0,0
0.005131792,-0.005090392000000001,0.0075141900000000005,0.00029277800000000005,-0.005421202,4.185,0,0
0.005021856,-0.004427568000000001,0.007708706,0.001820404,-0.0069888039999999995,4.186,0,0
0.003986207,-0.003102332,0.006506486,0.003548382,-0.00802095,4.187,0,0
0.002466323,-0.0021314100000000002,0.004223132,0.005079466,-0.0068323661999999995,4.188,0,0
0.0006976790000000001,-0.00175559,0.0014875820000000005,0.005674080000000001,-0.0037712562000000007,4.189,0,0
-0.0010176970000000001,-0.00044631399999999996,-0.0011761479999999997,0.005465046,-0.00023123820000000021,4.19,0,0
-0.002298357,0.001049734,-0.0037640620000000003,0.004446735,0.0029289638,4.191,0,0
-0.003112248,0.002268,-0.006311986,0.0025873630000000005,0.005469905800000001,4.192,0,0
-0.004214042,0.0038160060000000003,-0.008140338,0.0006561790000000001,0.0071386800000000005,4.193,0,0
-0.005064966000000001,0.005505858000000001,-0.009111988,-0.001259375,0.007115514000000001,4.194,0,0
-0.004878994,0.006756643999999999,-0.008864522,-0.002913155,0.006226994000000001,4.195,0,0
-0.003855886,0.0075510560000000004,-0.006692394,-0.004350976,0.005333436,4.196,0,0
-0.0022775620000000003,0.007444334,-0.003268272,-0.00583054,0.003868748,4.197,0,0
8.420400000000005e-05,0.0058210679999999996,0.00020222400000000041,-0.00656407,0.0020145902,4.198,0,0
0.002087582,0.0029261599999999997,0.0033797340000000006,-0.006539876,0.0008633008,4.199,0,0
0.002871848,-0.0003983939999999996,0.00576558,-0.006016936,-0.0001021552,4.2,0,0
0.0038133740000000005,-0.003514716,0.006900514,-0.004463528,-0.0015762212000000001,4.201,0,0
0.005339502,-0.005834706,0.00718852,-0.001795636,-0.0029942472000000003,4.202,0,0
0.00653218,-0.006365382,0.006501688,0.0007136020000000002,-0.0040855814,4.203,0,0
0.0072654320000000005,-0.006263164,0.005466474,0.002803278,-0.0044105346,4.204,0,0
0.007347374000000001,-0.00649186,0.0039521164000000004,0.004553308000000001,-0.0039961288,4.205,0,0
0.005663308000000001,-0.0062642900000000005,0.0010476744,0.005208842,-0.0029041158,4.206,0,0
0.002535962,-0.005505788,-0.0019935176,0.0051496400000000005,-0.0009808578000000002,4.207,0,0
-0.0005120280000000002,-0.0044529482,-0.0039720976,0.004854178,0.0007314422000000001,4.208,0,0
-0.0025711740000000003,-0.0022446541999999996,-0.0057499536,0.0038887730000000003,0.0016959948000000002,4.209,0,0
-0.003466564,0.0007876758000000003,-0.007410522,0.002451749,0.0027712410000000007,4.21,0,0
-0.0032168392000000005,0.0034362358000000004,-0.007299162,0.00158407262,0.004500428000000001,4.211,0,0
-0.0023128932,0.0056141538000000005,-0.00608868,0.00070516862,0.005389140000000001,4.212,0,0
-0.0012787778000000003,0.006885464000000001,-0.0046655224,-0.00054762338,0.00457116,4.213,0,0
-6.723800000000093e-06,0.007133246000000001,-0.0024541063999999994,-0.0013288023800000002,0.0028325600000000005,4.214,0,0
0.0010956662,0.006377690000000001,0.00020852760000000022,-0.0017919643799999998,0.0005226819999999998,4.215,0,0
0.0016506514,0.0047427814,0.0029049816000000003,-0.00231739,-0.00223924,4.216,0,0
0.0020172034,0.0020024153999999997,0.0050201756,-0.0025909120000000003,-0.004480924000000001,4.217,0,0
0.0021845360000000004,-0.0012410526000000003,0.0063374320000000005,-0.002285425,-0.0052051,4.218,0,0
0.0016007434,-0.0038968305999999998,0.0071543380000000005,-0.0013584390000000001,-0.0048619660000000006,4.219,0,0
0.00022410940000000003,-0.0058871306,0.007051710000000001,2.4903000000000056e-05,-0.0038017323999999996,4.22,0,0
-0.00019613254000000002,-0.0056996726000000004,0.0050548400000000005,0.0015828830000000002,-0.0024897464,4.221,0,0
0.0006574694599999999,-0.003241854600000001,0.002007936,0.0031385650000000003,-0.0010745444,4.222,0,0
0.0005742610599999999,-0.0004147306000000001,-0.000618242,0.00391849,0.0004337356,4.223,0,0
-0.0005116243400000002,0.0018734434000000002,-0.0031814340000000003,0.003839726,0.0014502456,4.224,0,0
-0.00142985434,0.0032465094000000004,-0.005467132,0.003418384,0.002048344,4.225,0,0
-0.0029871904,0.0031828976000000003,-0.006645314,0.0022014358,0.002481112,4.226,0,0
-0.005539172400000001,0.0030070316000000005,-0.006333386,0.00039584379999999984,0.0031063700000000007,4.227,0,0
-0.006787350000000001,0.0035375756000000005,-0.0050060982000000006,-0.0007314602,0.003528296,4.228,0,0
-0.006045648000000001,0.004138283600000001,-0.0035472121999999997,-0.0016072042,0.003183963,4.229,0,0
-0.0044222534,0.005697515600000001,-0.0016553321999999994,-0.0027831722,0.0020716190000000002,4.23,0,0
-0.0027212278000000004,0.006563074,0.0009975878000000001,-0.0032860240000000002,0.000226071,4.231,0,0
-0.0009299498,0.005596060000000001,0.0031779017999999997,-0.003209974,-0.0020968790000000003,4.232,0,0
0.0008137582000000001,0.0032862040000000005,0.004548052,-0.0030111779999999998,-0.0039730270000000005,4.233,0,0
0.0021271822,-0.0010747840000000005,0.005544250000000001,-0.00212749,-0.00452829,4.234,0,0
0.0038995056000000004,-0.005711330000000001,0.005455774,-0.0005588920000000001,-0.0040598464,4.235,0,0
0.005384288,-0.008801442000000001,0.0041433628,0.001028518,-0.0030074252000000003,4.236,0,0
0.006119554,-0.010815330000000001,0.0028083912000000004,0.003046886,-0.0019300712,4.237,0,0
0.006753618,-0.01098063,0.0014076242000000002,0.004928404000000001,-0.000970048,4.238,0,0
0.006258614000000001,-0.008374342,-0.0007865858,0.005571954,-0.00025135,4.239,0,0
0.003998368,-0.0051312758000000005,-0.0027782078,0.005402392,0.0004911324000000001,4.24,0,0
0.001592086,-0.0023573658,-0.0039827766,0.00476841,0.0015359212,4.241,0,0
-0.0004472139999999999,0.00010426619999999995,-0.004911299,0.0031603440000000003,0.0026326912000000004,4.242,0,0
-0.002353448,0.0016211522000000003,-0.005827248,0.0005167259999999999,0.0035650740000000005,4.243,0,0
-0.003347464,0.0027036942000000005,-0.005670858000000001,-0.001966552,0.003656772,4.244,0,0
-0.0036899420000000003,0.003566042,-0.004383025600000001,-0.004046488,0.003260364,4.245,0,0
-0.003484294,0.0041592700000000005,-0.0028353216000000002,-0.006002192,0.003142754,4.246,0,0
-0.0023552760000000003,0.004442564,-0.0014097616,-0.007383684000000001,0.002776334,4.247,0,0
-0.0008635900000000001,0.004223832,5.3024400000000014e-05,-0.007652192,0.0012906799999999998,4.248,0,0
0.00022019999999999999,0.003832276,0.0018339064000000003,-0.007300562000000001,-5.188199999999995e-05,4.249,0,0
0.0011853020000000003,0.0028140546799999997,0.0034716700000000005,-0.006524994000000001,-0.0011495620000000002,4.25,0,0
0.0019276900000000001,0.00095892668,0.005127302,-0.0048844226,-0.002998868,4.251,0,0
0.0019701560000000003,-0.0008150373199999999,0.0066094579999999995,-0.0031797440000000004,-0.004491134,4.252,0,0
0.0013283856,-0.0018752113200000001,0.007383924,-0.0013046260000000001,-0.004564301999999999,4.253,0,0
0.00042496960000000007,-0.00265728932,0.007411114,0.000939068,-0.0037793,4.254,0,0
-0.0006395104000000001,-0.0037260319999999998,0.006823924,0.00269394,-0.0028703966,4.255,0,0
-0.0023285244000000004,-0.004582776,0.004484654,0.0036624026,-0.0016500121999999998,4.256,0,0
-0.0036449164,-0.0039612152,0.00022504199999999952,0.004267466,-0.00030111419999999996,4.257,0,0
-0.0036341240000000003,-0.0020199152,-0.0034691920000000003,0.004343966,0.0009089118,4.258,0,0
-0.002970958,-0.00021337720000000012,-0.006178350000000001,0.0035862080000000005,0.0016957018000000003,4.259,0,0
-0.0025618180000000004,0.0014591208,-0.008571784,0.0026801278000000003,0.0021972244000000004,4.26,0,0
-0.0017190400000000002,0.0035025747999999995,-0.008704162,0.0017800884000000003,0.002133345,4.261,0,0
-0.0008698716000000001,0.005199329999999999,-0.006691868,0.0008304366,0.0020097750000000005,4.262,0,0
-0.0011053050000000002,0.0061261580000000005,-0.004743004,-4.551140000000006e-05,0.0019312130000000002,4.263,0,0
-0.0006730169999999999,0.006827206000000001,-0.00268129,-0.0006074834,0.0011713628000000003,4.264,0,0
0.001069685,0.007736208000000001,-0.0004017080000000002,-0.0007078882,0.00045617180000000006,4.265,0,0
0.0027312710000000004,0.008539688000000002,0.001094628,-0.0006899002000000001,0.00023970700000000003,4.266,0,0
0.0036065466000000006,0.007518688000000002,0.002298318,-0.0007274943999999999,-0.00028978500000000003,4.267,0,0
0.004216686000000001,0.004479212000000001,0.003704508,-0.00038360839999999994,-0.0013255470000000003,4.268,0,0
0.003908022,0.0007951620000000001,0.00404075,0.0003764276,-0.0014402448,4.269,0,0
0.0025095928,-0.0028623679999999997,0.0033055062000000007,0.0010133726,-0.0013240388,4.27,0,0
0.0013954816,-0.005798996000000001,0.0021609402,0.0016590300000000001,-0.0015398410000000001,4.271,0,0
0.0004385516,-0.00778892,0.0009052521999999999,0.002346934,-0.0011313192000000003,4.272,0,0
-0.0006733644,-0.008537148000000001,-0.0002792778000000001,0.00280884,-0.0003672436,4.273,0,0
-0.0016476044000000001,-0.007649142,-0.0014055938000000002,0.00290649,0.00014929040000000003,4.274,0,0
-0.0023130792,-0.005755236000000001,-0.0019312900000000002,0.002635852,0.0005408094000000001,4.275,0,0
-0.00290421,-0.004112468600000001,-0.0018696280000000003,0.00195692356,0.0010319934,4.276,0,0
-0.0031290480000000006,-0.0025071624,-0.0013783996200000003,0.0011982395599999997,0.0014780156000000003,4.277,0,0
-0.003164198,-0.0009552920000000001,-0.0007618816200000002,0.00044768216000000004,0.001992316,4.278,0,0
-0.003043072,-0.0003161642000000001,-0.00030603521999999995,-0.00048219584,0.00231431,4.279,0,0
-0.002331896,-0.00036045620000000006,0.0003057723800000001,-0.0014659758400000001,0.0020639674,4.28,0,0
-0.00161930438,-0.0007415796,0.0011104423800000003,-0.0020909034,0.0017388048,4.281,0,0
-0.0011237123800000002,-0.0011446918,0.0018098000000000003,-0.0022241554000000004,0.0010549684,4.282,0,0
-0.0006797555799999999,-0.0012680378,0.0020016400000000003,-0.0024500740000000004,-0.00027872760000000003,4.283,0,0
-0.00027531998000000004,-0.0011873982,0.0022643616,-0.002326064,-0.0016519856000000003,4.284,0,0
-0.00012567598,-0.0012050442,0.002755716,-0.001672842,-0.002744025,4.285,0,0
-0.000237307,-0.0011432662,0.002478626,-0.0011401878,-0.0031799224,4.286,0,0
-0.0003147738,-0.0008242608000000001,0.0014695300000000001,-0.0008049168000000001,-0.0031507764,4.287,0,0
-0.00012326980000000002,-0.00025884520000000013,0.0003148080000000001,-0.0003357147999999999,-0.0025003598,4.288,0,0
-0.0001293656,0.00016173339999999987,-0.0006018499999999998,0.00016753520000000003,-0.0015095449999999997,4.289,0,0
-0.0009301116000000001,0.0002870952,-0.001623684,0.000294195,-0.0004965982,4.29,0,0
-0.0020373842000000002,-7.755480000000003e-05,-0.00242532,0.0004435206,0.0001379134,4.291,0,0
-0.0031439094000000004,-0.0006959682000000001,-0.002481924,0.0007888736,0.00031244940000000004,4.292,0,0
-0.004517670200000001,-0.0008986534000000002,-0.002369626,0.0006729156000000002,0.0004839368,4.293,0,0
-0.005547232,-0.0010781388,-0.002087396,0.000317362,0.00043258460000000006,4.294,0,0
-0.004929486,0.00021706340000000011,-0.0013473600000000001,0.00033946020000000005,0.0007318538,4.295,0,0
-0.0029148719999999993,0.0034226994000000005,-0.0002923419999999999,4.6716400000000006e-05,0.0009908942,4.296,0,0
-0.0004863059999999993,0.006554221400000001,0.0006783020000000002,-0.0006777836,0.0007269466,4.297,0,0
0.002418918,0.0087420706,0.001888154,-0.0007861898,0.0004404392,4.298,0,0
0.0049644400000000005,0.010171448,0.0030432780000000004,-0.0010296962000000002,0.0003015072,4.299,0,0
0.006223468,0.009758402,0.003235614,-0.0017802182000000001,-0.0001109324,4.3,0,0
0.006697076,0.006103610000000001,0.003510318,-0.001589858,-0.0005931644,4.301,0,0
0.006721476,0.001382570000000001,0.003685282,-0.0011254939999999999,-0.0007414064000000001,4.302,0,0
0.0063072300000000005,-0.0026462779999999993,0.002093584,-0.00097917796,-0.0009317450000000001,4.303,0,0
0.005806830000000001,-0.006259453999999999,0.00027789999999999976,-0.0003993939599999999,-0.0011044596000000001,4.304,0,0
0.005375141999999999,-0.00822565,-0.0007681900000000001,0.00026251324000000004,-0.000603542,4.305,0,0
0.004184001600000001,-0.006997801,-0.0031106600000000003,0.00062405704,0.0012573040000000003,4.306,0,0
0.0023820295999999997,-0.004329667,-0.005079742,0.00098201504,0.0034679440000000006,4.307,0,0
0.0016305196000000002,-0.001672719,-0.004370967200000001,0.001086374,0.004919696,4.308,0,0
0.0016440136000000004,0.001868653,-0.0036714192000000005,0.0008309472000000001,0.005849858,4.309,0,0
0.0009858368000000002,0.0037320490000000003,-0.0032104500000000005,0.0005722096,0.005694948,4.31,0,0
0.0007721366000000003,0.00328726,-0.0017200080000000003,-0.0001763484,0.003961920999999999,4.311,0,0
0.0018199206,0.0033174760000000006,-0.0009773960000000002,-0.0014268744,0.001782091,4.312,0,0
0.0018857246000000003,0.0026494220000000002,-0.0009984402000000002,-0.0023028552000000004,0.00032690700000000003,4.313,0,0
0.0010108306,0.00020761800000000002,-0.0007021524,-0.0027053064,-0.0006553110000000001,4.314,0,0
0.0010277814,-0.001628404,-0.0006732732,-0.0030608280000000002,-0.0014351130000000002,4.315,0,0
0.0010280444,-0.002831704,-0.00044495120000000003,-0.00315339,-0.0018842700000000004,4.316,0,0
0.0005619642,-0.004977774000000001,0.0004791048,-0.0025791200000000003,-0.0021856900000000005,4.317,0,0
8.5638e-05,-0.005970598000000001,0.0012470682000000001,-0.0015324940000000001,-0.0025041520000000004,4.318,0,0
-0.0005617100000000001,-0.005045015400000001,0.0020596164,-0.0005200400000000003,-0.0032981040000000005,4.319,0,0
-0.0010986060000000002,-0.0037522738000000007,0.0024882380000000003,0.000590976,-0.00404525,4.32,0,0
-0.0016994864000000002,-0.0018696298000000005,0.0023624590000000003,0.002045148,-0.00435857,4.321,0,0
-0.0027264722000000003,2.3898199999999967e-05,0.002189433,0.003510452,-0.004599568,4.322,0,0
-0.0029501842000000003,0.0011905222000000001,0.001727835,0.00420519,-0.004842416,4.323,0,0
-0.0021361382,0.0022485376000000003,0.0011962790000000002,0.004188606,-0.004278138,4.324,0,0
-0.0016591542000000002,0.002752982,0.000882142,0.004551094,-0.0016935680000000001,4.325,0,0
-0.0013628222000000001,0.0025378952,0.00040018300000000003,0.005046614,0.0017026020000000003,4.326,0,0
-0.0012960242,0.0023424486000000002,-0.00040554900000000006,0.00482076,0.004228562,4.327,0,0
-0.001896286,0.0014958386,-0.000803283,0.004390514,0.005691808,4.328,0,0
-0.002535858,-9.218539999999997e-05,-0.0010534674,0.0039161768,0.006450055999999999,4.329,0,0
-0.0028160039999999996,-0.0012801654000000001,-0.0012584726000000003,0.0026785307999999996,0.005445375999999999,4.33,0,0
-0.0027980540000000003,-0.0020052466,-0.0009899638,0.0010336248000000002,0.002831796,4.331,0,0
-0.002176294,-0.0021700486,-0.0005147418,-0.0002515651999999999,0.0006991900000000001,4.332,0,0
-0.0012373718,-0.0011369366,-0.00021869663999999999,-0.0012721231999999999,-0.000634128,4.333,0,0
-0.0006716914,0.00034729939999999994,-0.00015310644000000002,-0.002045972,-0.0016663479999999998,4.334,0,0
-0.00024853980000000004,0.0017980554,0.00049148776,-0.002357632,-0.002613458,4.335,0,0
9.876900000000004e-05,0.0031653254000000002,0.00124688296,-0.002526546,-0.0028963160000000003,4.336,0,0
0.00041441840000000003,0.00391842,0.00160384096,-0.002614542,-0.0023802326,4.337,0,0
0.0003975798,0.004076486000000001,0.0024174858,-0.002587914,-0.0014545386000000002,4.338,0,0
-0.0002914726000000001,0.003757554,0.00314503,-0.0020873294000000003,-0.0005491566,4.339,0,0
-0.00039759380000000007,0.003238174,0.0028138968,-0.0014743774000000004,0.00012352740000000004,4.34,0,0
0.00040250940000000003,0.002203596,0.0023704438,-0.0010806110000000004,0.0007453774000000001,4.341,0,0
0.0007311500000000001,0.0006148860000000003,0.0025658798000000003,-0.00021642700000000005,0.0011123060000000002,4.342,0,0
0.0008778904000000001,-0.000976602,0.0021169478000000004,0.00033749560000000004,0.0011620340000000002,4.343,0,0
0.0012464698,-0.00286929,0.0016631738,0.00037884180000000004,0.0008916376000000001,4.344,0,0
0.0008739654000000001,-0.004674458,0.001230179,0.0004688374,0.00046548760000000015,4.345,0,0
0.0002033794000000001,-0.005259766000000001,-0.001085456,0.00015133299999999997,-6.008039999999982e-05,4.346,0,0
-0.00028666419999999996,-0.005105592000000001,-0.0036967700000000003,-0.000767979,-0.0009441783999999999,4.347,0,0
-0.0008117262000000001,-0.004947554,-0.004836088,-0.0015328556,-0.0018354804,4.348,0,0
-0.0010441475999999998,-0.004122608000000001,-0.0056317699999999995,-0.0020317424,-0.002112266,4.349,0,0
-0.0013308256,-0.0028087572000000003,-0.0054263834,-0.0028449560000000005,-0.0019298420000000002,4.35,0,0
-0.0008270675999999999,-0.0008981712,-0.0032505812,-0.00333715,-0.002110734,4.351,0,0
0.0009375680000000002,0.0018278368000000003,-0.0014102332000000002,-0.003146924,-0.002553976,4.352,0,0
0.0020951400000000005,0.0045914928,-0.0003727032000000001,-0.0026682688,-0.002241822,4.353,0,0
0.0026661600000000003,0.007175228800000001,0.0006633128,-0.0016406488,-0.0011312380000000001,4.354,0,0
0.003171155,0.008763514,0.0011975502,-5.2764799999999905e-05,0.00012243600000000007,4.355,0,0
0.002225617,0.008730746000000001,0.001623784,0.0010106712000000004,0.0012851400000000002,4.356,0,0
-4.320099999999987e-05,0.007488286,0.002311074,0.0012988602000000003,0.0023171042,4.357,0,0
-0.0015335830000000003,0.0049872480000000005,0.002283374,0.0014335444000000003,0.0026462433600000002,4.358,0,0
-0.001984375,0.0008971779999999998,0.0018188909999999998,0.0007928104000000002,0.0022159013600000005,4.359,0,0
-0.0021318100000000005,-0.003218416000000001,0.0012960184,-2.4292799999999972e-05,0.00129974296,4.36,0,0
-0.0015792446,-0.006348602,0.00013576240000000002,8.413320000000008e-05,0.00060860736,4.361,0,0
-0.0006933306000000002,-0.009039852000000001,-0.0008524876000000001,0.00015813280000000004,0.0008793171600000001,4.362,0,0
-0.0001236126000000001,-0.009992974,-0.0013543136,0.00012514240000000004,0.0009788114000000001,4.363,0,0
0.0005292374,-0.008576818,-0.0015980820000000002,0.0005639628,0.0005136896,4.364,0,0
0.0011380654,-0.0062364280000000005,-0.0014114352,0.000739272,0.00020974119999999998,4.365,0,0
0.001201334,-0.0039024380000000007,-0.0004310392,0.000623766,-0.00011459720000000001,4.366,0,0
0.0018881940000000002,-0.0013413980000000002,0.0004827908,0.0010621934,-0.0007494472,4.367,0,0
0.003070956,0.000668338,0.0009578907999999999,0.0016389003999999997,-0.0009082798000000001,4.368,0,0
0.003047412,0.0015546560000000002,0.0013301502,0.001738274,-0.000338454,4.369,0,0
0.0029274900000000005,0.0020122158,0.0011166014,0.0016385372,0.00014708479999999996,4.37,0,0
0.0031307920000000003,0.0018037370000000001,0.0007858004,0.0015416038,0.0002267298,4.371,0,0
0.0022386444000000003,0.0011222954,0.00032844440000000003,0.00107195316,6.257779999999991e-05,4.372,0,0
0.0007054044000000001,0.0005549212000000001,-0.00042142159999999994,0.0003464351600000001,-0.000243251,4.373,0,0
-0.00046760160000000004,0.0004045372,-0.0009274676,1.8733559999999983e-05,-0.001158067,4.374,0,0
-0.0014801916000000003,0.0006609294000000001,-0.0008580337599999999,-8.6763848e-05,-0.001993605,4.375,0,0
-0.0026460476000000005,0.0013005842,-0.00086474736,-0.0003905138480000001,-0.0023723040000000004,4.376,0,0
-0.0038181820000000007,0.0022225358,-0.00120374136,-0.000717987208,-0.0027614840000000002,4.377,0,0
-0.0046337240000000005,0.002302812,-0.0006497361599999999,-0.0007007452080000002,-0.00264764,4.378,0,0
-0.0044987280000000004,0.0021601646,0.0001631898400000001,-0.0006023326080000001,-0.002236375,4.379,0,0
-0.004094052,0.0025647286000000003,0.0005206966000000002,-0.0006778350000000001,-0.0016471456,4.38,0,0
-0.0037256640000000005,0.0023387606,0.0009771992,-0.00027863160000000004,-0.0009640428000000001,4.381,0,0
-0.0032042280000000004,0.0013903532,0.0015633312,0.0007127604000000001,-0.0005634988,4.382,0,0
-0.0028244840000000004,0.0013833571999999998,0.0017100540000000001,0.0014198844,-0.00033946879999999994,4.383,0,0
-0.00211289792,0.0021308126,0.0011298243400000001,0.0017314594000000002,0.0002527702000000001,4.384,0,0
-0.0018740509200000002,0.001310898,0.00084468314,0.0019908124000000004,0.0016003548,4.385,0,0
-0.00195452092,0.0007213486,0.0006162363400000001,0.0016539578,0.003419032,4.386,0,0
-0.0005933789200000001,0.002019484,-0.00013227365999999988,0.0007728998000000002,0.005184246,4.387,0,0
0.0013701410800000002,0.002170056,-0.00109256766,0.00019874960000000006,0.006060696,4.388,0,0
0.0025667290000000002,0.000386602,-0.001397584,0.00011046359999999998,0.006174054,4.389,0,0
0.0035326700000000003,-0.0008619314000000002,-0.0015774164,9.899879999999996e-05,0.005099462000000001,4.39,0,0
0.003959468000000001,-0.0020548200000000006,-0.0018059337999999999,0.00010021279999999996,0.002761898,4.391,0,0
0.00318134994,-0.0042769900000000005,-0.0008775697999999998,0.000280169,0.0010590999999999999,4.392,0,0
0.00193136774,-0.0048272708,-0.00015192319999999995,0.000212583,0.00024836860000000005,4.393,0,0
0.0002996177400000001,-0.004012350400000001,0.00018276860000000002,-0.00036262100000000004,-0.0007697094000000001,4.394,0,0
-0.0006316510600000001,-0.0032596504,0.00024195760000000002,-0.0008621086000000001,-0.0016251414000000002,4.395,0,0
-0.0005288150600000001,-0.0015919483999999999,-0.0006403562,-0.001001372,-0.0010090274,4.396,0,0
-0.000776905,5.6905599999999986e-05,-0.0013627642,-0.0011228792,2.1186599999999957e-05,4.397,0,0
-0.0007505826,0.0009378884000000001,-0.0012295548,-0.0011210074,0.000279244,4.398,0,0
-0.00038202840000000005,0.0018402500000000003,-0.0013184466,-0.0012516274,0.0006062284,4.399,0,0
-0.00034430420000000004,0.0026452760000000002,-0.0014211708,-0.0015411914,0.0009811009999999998,4.4,0,0
-0.0002894306,0.0020608880000000003,-0.00048635384000000014,-0.0013423014,0.0007104718000000001,4.401,0,0
-0.00024740640000000006,0.0009771360000000002,0.00033227216000000006,-0.0010363422,-0.00013586500000000004,4.402,0,0
-0.0006409626,0.0008985640000000001,0.00053295016,-0.0011662858,-0.000803703,4.403,0,0
-0.00044979700000000004,0.001199536,0.00087407816,-0.0010625078000000001,-0.0012911214000000002,4.404,0,0
0.0003661176,0.00147616,0.0017163709600000001,-0.0008359878,-0.0019022220000000003,4.405,0,0
0.000586966,0.0024968440000000002,0.0023351160000000004,-0.0014913238000000002,-0.0024604528000000004,4.406,0,0
0.0006689918,0.003722748,0.002455128,-0.0020708420000000003,-0.0028547680000000006,4.407,0,0
0.0007658917999999999,0.002712676,0.00304343,-0.002060644,-0.0029222320000000007,4.408,0,0
0.0003435540000000001,0.00047244599999999985,0.0032909820000000005,-0.0021867220000000003,-0.002805866,4.409,0,0
-0.0004315215999999999,-0.0009356340000000003,0.0017547299999999995,-0.0018483266000000004,-0.0023193700000000003,4.41,0,0
-0.0006938229999999999,-0.0024140880000000004,-0.0001752700000000006,-0.0007719726000000001,-0.0012630399999999998,4.411,0,0
-0.000673772,-0.003635188,-0.0015913480000000002,0.00032245740000000014,-0.0005718191999999997,4.412,0,0
-0.000671334,-0.0032442359600000003,-0.003153284,0.0011266534000000002,-0.0005070691999999999,4.413,0,0
0.000310322,-0.002021708076,-0.003977058,0.0019127974,-0.0006050952,4.414,0,0
0.0019191736,-0.0009433942760000002,-0.003359408,0.00257069,-0.0009614312000000001,4.415,0,0
0.0029508190000000004,0.00046395372400000006,-0.0022450616,0.0028016240000000004,-0.0014341192000000003,4.416,0,0
0.0037625440000000005,0.0015528757240000001,-0.0013771386600000002,0.0027621100000000003,-0.0014005392000000002,4.417,0,0
0.00434458,0.0019706656840000002,-0.00047695146000000004,0.003032594,-0.0008039492000000002,4.418,0,0
0.0031248820000000003,0.0021001564,0.00018665053999999997,0.003465422,7.230680000000001e-05,4.419,0,0
0.0007664500000000002,0.0017694192000000004,0.00052469174,0.003315906,0.0010305308,4.42,0,0
-0.000928458,0.0014173932,0.00080500314,0.0031429599999999998,0.0016977228,4.421,0,0
-0.0022141200000000004,0.0012009212,0.0012764822,0.002950368,0.002336334,4.422,0,0
-0.0025842198000000003,0.0008535834,0.001759207,0.002559258,0.002774154,4.423,0,0
-0.0016692518,0.0005175128,0.002088401,0.0020188840000000003,0.0026232464000000002,4.424,0,0
-0.0007853186000000002,-7.718380000000004e-05,0.0028118358000000006,0.0014297160000000001,0.0021117352,4.425,0,0
-0.00015972780000000013,-0.0015520158000000002,0.0032833940000000002,0.0008881106,0.0012626305999999998,4.426,0,0
0.00043272440000000003,-0.0028398918,0.003048182,-9.236339999999996e-05,0.00026147639999999993,4.427,0,0
0.0002741382,-0.003650414,0.0030540059999999997,-0.0012238894,-0.0006019082,4.428,0,0
-0.0005446858,-0.004659006,0.0027987700000000003,-0.0017270654,-0.0008919846000000001,4.429,0,0
-0.001079549,-0.004794876,0.0005162180000000001,-0.0019007954000000002,-0.0005563158,4.43,0,0
-0.0012839296,-0.0041587360000000006,-0.0021721660000000005,-0.002387642,0.00011339879999999996,4.431,0,0
-0.0007035138,-0.0035878119999999997,-0.0032928980000000007,-0.002306012,0.0007433310000000001,4.432,0,0
0.0008214862000000001,-0.00261648,-0.004489398,-0.0020757700000000002,0.0008224969999999999,4.433,0,0
0.0020897702,-0.001291168,-0.005512932,-0.002252456,0.0007334670000000001,4.434,0,0
0.0025590402000000003,-0.000151176,-0.0042182698000000005,-0.0023878780000000004,0.0005721514,4.435,0,0
0.0022572220000000006,0.0011621000000000001,-0.0021811686,-0.0024175380000000003,0.00017172600000000003,4.436,0,0
0.001138106,0.002425444,-0.0014170266,-0.0026502680000000003,-0.0003949232,4.437,0,0
-0.0007232460000000001,0.0027994499999999998,-0.001083561,-0.003043164,-0.0008766406,4.438,0,0
-0.002383722,0.0027323371999999997,-0.0006640900000000001,-0.0029913540000000003,-0.0010352286,4.439,0,0
-0.0033152560000000004,0.0023110382,-0.00040580260000000007,-0.002682367,-0.0014182846,4.44,0,0
-0.00374587,0.001541506,-0.00019159420000000002,-0.0019861314,-0.0019283692,4.441,0,0
-0.003876084,0.00061456,0.0001750578,-0.0011348342,-0.002104048,4.442,0,0
-0.00396595,-0.00072641,0.0005920502000000001,-0.0003218762,-0.00171394,4.443,0,0
-0.0029334920000000002,-0.0016569752000000003,0.0012166132,0.0005128258,-0.0008175299999999999,4.444,0,0
-0.00023576800000000013,-0.0014103972000000004,0.0020866596,0.0011801848,0.00022333200000000013,4.445,0,0
0.002267858,-0.0008456930000000001,0.0026051919999999997,0.0011552892000000002,0.0011036440000000002,4.446,0,0
0.0033714120000000003,-0.0010186384000000002,0.002859076,0.0008659663999999998,0.0018692700000000001,4.447,0,0
0.00447582,-0.0006762944000000001,0.0030078099999999997,0.0011577684,0.002685208,4.448,0,0
0.005649586000000001,0.0013416755999999998,0.0024074582000000004,0.0011053844000000002,0.0027564380000000004,4.449,0,0
0.005120222000000001,0.0028991446,0.0010603062,0.0007467236,0.0022369958,4.45,0,0
0.0033818326,0.0024305766,0.00018215820000000001,0.0009156536000000001,0.0020563058,4.451,0,0
0.002793003,0.0020771,-0.0002267733999999999,0.0013157152000000001,0.0015953178000000002,4.452,0,0
0.0025404864,0.0022243219999999995,-0.0009211154000000002,0.0011731332,0.00045448380000000005,4.453,0,0
0.0006532004000000001,0.0007111,-0.0010280796,0.000834464,-0.0009945302,4.454,0,0
-0.0008487776000000002,-0.001203496,-0.0005204512000000001,0.0007834278,-0.002337932,4.455,0,0
-0.0009768302000000002,-0.0012820438,-0.00034820140000000005,0.0004317264000000001,-0.0034283100000000004,4.456,0,0
-0.0015086366,-0.0003134297999999999,-0.00047107180000000005,-0.0002765076,-0.003659674,4.457,0,0
-0.0019535420000000004,0.00027856220000000006,-0.00010455620000000001,-0.000313486,-0.0026297,4.458,0,0
-0.0013333830000000003,0.00075549,0.00013643184,0.00030424920000000005,-0.0008576159999999998,4.459,0,0
-0.0010732050000000003,0.0015900940000000002,-0.00037925056000000007,0.0005793462,0.0008794300000000002,4.46,0,0
-0.0009160994,0.0020073518000000004,-0.00045480396,0.0008623658000000001,0.0016282194000000003,4.461,0,0
-0.00026917939999999995,0.0009845638000000002,-0.00015619596000000004,0.0013868393999999999,0.0023750834,4.462,0,0
-0.0002653534,3.825580000000001e-05,-9.028176000000008e-05,0.0014080514,0.0024377654000000003,4.463,0,0
-0.0011832044000000001,0.00045221400000000026,3.835799999999968e-06,0.0004220334,0.0012059814000000002,4.464,0,0
-0.0021415284000000003,0.0005096420000000001,0.0005486588,-0.00043727859999999997,0.0004834676,4.465,0,0
-0.0029531139999999997,0.000253388,0.0010533744,-0.0004601252,-0.00012929779999999995,4.466,0,0
-0.0040558140000000005,0.0009621822000000001,0.0012126184,-0.000567581,-0.0013904598,4.467,0,0
-0.00487336,0.0014727782,0.0015235026000000001,-0.0008242590000000001,-0.0022848678,4.468,0,0
-0.005246116,0.0008005348,0.0016858530000000002,-0.000521614,-0.0016123998,4.469,0,0
-0.005197546000000001,0.0004858408,0.0015802484000000004,-0.00012417300000000005,-0.000401628,4.47,0,0
-0.004247763,3.3416799999999954e-05,0.0015957824000000002,-0.0004209732,0.00015205780000000012,4.471,0,0
-0.0025798989999999996,-0.0014106494,0.0015807724000000002,-0.0004727742000000001,0.00026005379999999995,4.472,0,0
-0.0006546529999999999,-0.0016390734000000001,0.0010783438000000001,-0.00024157540000000003,0.00020159380000000008,4.473,0,0
0.002014137,-0.0011558080000000001,0.00012835380000000005,-0.00026853780000000006,-0.0005835582000000001,4.474,0,0
0.004603927000000001,-0.0018017400000000002,-0.0015017106,0.00016381519999999998,-0.0015763368000000003,4.475,0,0
0.005803696,-0.002283162,-0.0037959806000000002,0.0006882038,-0.0013704556000000002,4.476,0,0
0.00587952,-0.0017460000000000002,-0.005543472600000001,0.0007283490000000001,-0.0006859352,4.477,0,0
0.0052740744,-0.0015386454,-0.0060787440000000005,0.0008629146,0.0003601268000000001,4.478,0,0
0.003957908600000001,-0.0016873674,-0.005432382,0.001221076,0.0016655628,4.479,0,0
0.0020385086000000003,-0.001181429,-0.0036262240000000004,0.0009341880000000001,0.0017343808,4.48,0,0
0.0007618406000000002,-0.00044916000000000004,-0.0013688020000000003,0.00031604600000000006,0.0012018998,4.481,0,0
0.0004400246000000001,-0.00012176599999999999,0.000312886,0.0003235118,0.0009855891999999999,4.482,0,0
0.0002535802,-0.0002459926,0.0008891024000000001,0.00017878359999999997,0.0004943354,4.483,0,0
3.070220000000003e-05,-0.0006762506,0.0008648368000000001,-2.2459999999999646e-06,-0.00010848260000000001,4.484,0,0
0.00029957240000000004,-0.001412347,0.0010824048,0.00015421,-0.00013062339999999993,4.485,0,0
0.0005436284,-0.0018235000000000003,0.0009759768000000002,0.00022401040000000005,0.00048550800000000005,4.486,0,0
0.0002282164,-0.0016262520000000003,0.0005946072000000001,0.00038460040000000005,0.00048137480000000007,4.487,0,0
-1.264360000000005e-05,-0.001678882,0.0010293148000000002,0.0005523626000000001,-6.942739999999992e-05,4.488,0,0
-0.00017282880000000004,-0.0017285840000000002,0.0013796984,0.0005150838000000001,-7.274540000000001e-05,4.489,0,0
0.00026982699999999994,-0.0012540714,0.0007555826,0.00027725418000000004,0.000105902,4.49,0,0
0.001223869,-0.0004976094000000001,0.00012214859999999997,0.0005479793800000001,-0.00016389660000000006,4.491,0,0
0.0019089270000000001,0.0002559146,7.548000000000288e-07,0.00103910558,-0.0002819752000000001,4.492,0,0
0.0022184592,0.0016314006,-0.0002873888,0.0011425475800000001,-8.50882e-05,4.493,0,0
0.0021139722,0.0038675706,-0.00029012880000000007,0.0016057199800000002,-0.0006478142000000001,4.494,0,0
0.0008680602,0.005916402,0.000525551,0.0022721716,-0.0014427782,4.495,0,0
-0.0013878338,0.007311670000000001,0.001227199,0.002407306,-0.0016471370000000001,4.496,0,0
-0.0028639718,0.0077408220000000005,0.0015278932,0.0021112600000000002,-0.0014213442,4.497,0,0
-0.003398712,0.006865226000000001,0.0017432868,0.0018813948,-0.0013770106000000001,4.498,0,0
-0.003598346,0.004573196000000001,0.0017348388,0.0010789868,-0.0012762886,4.499,0,0
-0.00354526,0.0015654640000000004,0.0012021798,-0.0001659352,-0.0005965877999999999,4.5,0,0
-0.003095454,-0.001509256,0.000717828,-0.0010642252,-4.595799999999926e-06,4.501,0,0
-0.00285818,-0.004357334,0.00026307520000000005,-0.0022849052000000003,0.0005004254,4.502,0,0
-0.0028722500000000002,-0.006271364000000001,-0.0004827888,-0.0033486960000000004,0.0015703728,4.503,0,0
-0.0025485020000000002,-0.007118966000000001,-0.0008660660000000001,-0.0037153560000000004,0.0025302568,4.504,0,0
-0.0020535320000000003,-0.006899418000000001,-0.000693405,-0.0034777560000000002,0.002658248,4.505,0,0
-0.0014969356000000002,-0.0056844242000000005,4.2679999999982454e-07,-0.003213416,0.0022062016,4.506,0,0
-0.0005225055999999999,-0.0029827782000000007,0.0012050388,-0.00273085,0.0013105456000000002,4.507,0,0
0.0012523524000000001,-0.00021153820000000033,0.0026880868,-0.0015873334000000004,0.00019748239999999986,4.508,0,0
0.0027906724000000003,0.0025722918,0.003511656,-0.0009847334000000001,-0.0006136538000000001,4.509,0,0
0.0036041424000000004,0.0067170218,0.003535478,-0.0008270128000000001,-0.0009662592,4.51,0,0
0.0037289258,0.009148338,0.003867308,-0.0005014588,-0.0010382968,4.511,0,0
0.0033703082000000003,0.00952525,0.003280076,-0.00040921680000000006,-0.000694027,4.512,0,0
0.0024269502,0.009293538,0.0005697439999999998,-0.0008643514,-0.000634666,4.513,0,0
0.0009905846000000003,0.007010764000000001,-0.001631464,-0.0008790632000000001,-0.0009428538000000001,4.514,0,0
-1.648140000000002e-05,0.0014989240000000004,-0.0017507676,-0.0005632912000000001,-0.0011843864,4.515,0,0
-0.00031238520000000005,-0.004035836000000001,-0.0023344856,-0.0006086876000000001,-0.0012677364,4.516,0,0
-7.83936e-05,-0.007154772000000001,-0.0039738936,-0.000482875,-0.0012121214,4.517,0,0
-0.0002453968,-0.009393514000000002,-0.0039794816,-0.000386843,-0.0014280472,4.518,0,0
-0.0007228912000000001,-0.01009997,-0.0032609076,-0.00027162299999999997,-0.0012455978,4.519,0,0
-0.0008704672,-0.008244318,-0.0040743,-0.00028405179999999996,-0.00013327979999999988,4.52,0,0
-0.0006693264000000001,-0.004442504000000001,-0.004587984000000001,-0.0003581504,0.0009557582000000001,4.521,0,0
7.450160000000013e-05,-0.0014514300000000003,-0.003327753,-0.0003022512,0.0012021372,4.522,0,0
0.0013428728000000002,0.000959154,-0.0017938594000000002,-0.0006147472,0.0013524592000000002,4.523,0,0
0.0023977608000000004,0.003252398,-0.0005365614000000001,-0.0011190594,0.0014858121999999998,4.524,0,0
0.0027300768000000004,0.0035051941999999997,0.0008022766,-0.0014665392,0.0009854702,4.525,0,0
0.0024591900000000004,0.0027394195999999997,0.0011185448,-0.0015593922000000002,0.0007255402000000001,4.526,0,0
0.0012410292,0.0014332955999999998,0.0007109178,-0.0013951446,0.0013003684000000002,4.527,0,0
-0.00023903720000000004,-0.00043693440000000007,0.0009576098,-0.00045900660000000007,0.0015283612,4.528,0,0
-0.0010914292000000002,-0.0019562804,0.0010610438,0.0005685614000000001,0.0010353028000000002,4.529,0,0
-0.0016215372000000002,-0.0021132486,0.0010232458,0.0011695374000000001,0.0002533848,4.53,0,0
-0.0017798012000000002,-0.0020441668000000003,0.0015945716000000001,0.0020192054000000006,-0.0008675192,4.531,0,0
-0.0018991123999999998,-0.0020293268,0.00221833,0.0026511740000000005,-0.0018367892000000002,4.532,0,0
-0.002468266,-0.0012359509999999999,0.0024086224,0.0026518620000000005,-0.0016067260000000002,4.533,0,0
-0.0030311980000000006,-0.0008863390000000001,0.0022349304,0.002367908,-0.0001361260000000002,4.534,0,0
-0.003118544,-0.0009546270000000001,0.0018673324000000001,0.0026919480000000004,0.001405166,4.535,0,0
-0.003444818,-0.0008686733940000001,0.0014480744,0.00296011,0.002912596,4.536,0,0
-0.004119692,-0.000994203394,0.0013237498000000002,0.002713936,0.003793952,4.537,0,0
-0.003221224,-0.0006786051940000002,0.0008467754000000003,0.002756716,0.0033863670000000004,4.538,0,0
-0.0005094400000000003,0.0010116228060000002,-0.0003053546,0.002673816,0.002161181,4.539,0,0
0.0017900640000000003,0.0021074148060000004,-0.0016123346,0.0019294662,0.0006456030000000002,4.54,0,0
0.0034063100000000005,0.0020280318000000003,-0.0025370886,0.0010295242000000003,-0.0007328090000000001,4.541,0,0
0.005172812000000001,0.0024900338000000007,-0.0026292942000000004,0.000557228,-0.0016444490000000003,4.542,0,0
0.005573830000000001,0.0029316378000000002,-0.0023505336,-6.459999999999528e-07,-0.0016805158000000003,4.543,0,0
0.0042234080000000005,0.0025041738000000004,-0.0015169476000000005,-0.000244854932,-0.0014778854,4.544,0,0
0.0029252108000000004,0.0022914458,7.421640000000002e-05,-7.3437932e-05,-0.0012106414,4.545,0,0
0.0018017868,0.0025358810000000002,0.0012025864,-0.000463687932,-0.0008863992,4.546,0,0
0.0006893128,0.0024136431600000003,0.0014520096,-0.001345565732,-0.0009184212000000001,4.547,0,0
0.00037461480000000006,0.00229558916,0.0016346794,-0.002197647732,-0.0012612674,4.548,0,0
0.0002930008,0.00133237234,0.0017179458,-0.0029711228,-0.0016163558000000001,4.549,0,0
-4.099280000000003e-05,-0.0005484196600000001,0.0014789598,-0.0037372480000000003,-0.0016881658000000002,4.55,0,0
-9.22988000000001e-05,-0.0014578026600000002,0.0014801738,-0.003942422,-0.001964062,4.551,0,0
-4.250800000000105e-06,-0.0018341108200000003,0.0015025864000000001,-0.0036594540000000004,-0.00236481,4.552,0,0
-0.0008288128000000001,-0.0032833828200000007,0.0011825684,-0.0035237400000000005,-0.002496926,4.553,0,0
-0.0016643268,-0.0037004900000000007,0.0005791659999999999,-0.003156784,-0.0019367414,4.554,0,0
-0.0010593220000000001,-0.0013603180000000001,-0.0008140460000000001,-0.0021658080000000004,-0.0008031454000000001,4.555,0,0
-0.00018514599999999986,0.0006291720000000001,-0.0021438560000000004,-0.0012559880000000002,-5.7301400000000135e-05,4.556,0,0
-6.597239999999994e-05,0.001233394,-0.002592344,-0.0008060140000000002,0.0001982925999999999,4.557,0,0
-9.502399999999911e-06,0.0022822504,-0.0026965854,-6.247720000000011e-05,0.0007757913999999999,4.558,0,0
0.0003717274000000001,0.0032375144,-0.0024198522,0.0007642928,0.0012591628000000001,4.559,0,0
-0.00014017159999999996,0.0024577444,-0.0016998742,0.0008244068,0.0007012868,4.56,0,0
-0.0011937436,0.0007156244,-0.0009718938,0.0010792288,0.0003339098,4.561,0,0
-0.0017408952000000002,-0.0007023535999999998,-0.0002794197999999999,0.0018489708000000002,0.0007054822000000002,4.562,0,0
-0.0016733172000000002,-0.002172592,0.0003458236000000001,0.002340982,0.0010647654,4.563,0,0
-0.0014293418,-0.003491406,0.0007274784000000001,0.002409978,0.0012934434000000002,4.564,0,0
-0.0013569128000000003,-0.004360981999999999,0.0012421720000000002,0.002203122,0.0016312893999999999,4.565,0,0
-0.0011288188000000002,-0.004619027999999999,0.0014432476000000004,0.0018022090000000001,0.0020017584,4.566,0,0
-0.0011942888,-0.00343038632,0.0009316966000000001,0.0011753048,0.0023811820000000004,4.567,0,0
-0.0017915268000000002,-0.00175523032,0.0007124486000000001,0.0006123684000000001,0.002522662,4.568,0,0
-0.002580628,-0.0007322863200000002,0.0009254786,0.0002151662,0.0020626380000000003,4.569,0,0
-0.0030010640000000003,0.0005090116800000001,0.0009312669999999999,0.00022135220000000003,0.0015353404,4.57,0,0
-0.0026581624000000005,0.0015866456800000001,0.0008469679999999999,0.0002945116,0.0006110663999999999,4.571,0,0
-0.0015503424000000003,0.0016290812000000004,0.0007269187999999998,0.00033093580000000003,-0.0006575636000000001,4.572,0,0
-8.199240000000005e-05,0.0018329432000000004,0.0004351258399999999,0.0003894778,-0.0019222836,4.573,0,0
0.0015414036000000002,0.0025121112,-6.437076000000003e-05,0.00038252200000000005,-0.0032448616,4.574,0,0
0.0027915896000000003,0.0022801572000000006,-0.00028984595999999996,0.00043611600000000006,-0.003924142,4.575,0,0
0.0030539300000000003,0.0016064112000000001,-0.00030263916,0.0004377544000000001,-0.003638496,4.576,0,0
0.0025579574,0.0010703380000000003,-0.00048685296000000003,0.0010861824000000001,-0.0027023544000000003,4.577,0,0
0.0017702194000000003,-9.406199999999979e-05,-0.0004949,0.0021248888000000004,-0.0012178904000000003,4.578,0,0
0.0006821154000000003,-0.00166888,-0.0003175046,0.0027041468,0.0006585496,4.579,0,0
-0.00013726271999999997,-0.002376076,-0.00012530479999999997,0.0027781688,0.0018382276000000002,4.58,0,0
5.715527999999994e-05,-0.0019715206000000002,9.544040000000002e-05,0.0027221668,0.0022377520000000004,4.581,0,0
0.00054412788,-0.0015086042,0.0004095918000000001,0.0023661248,0.0020290504000000003,4.582,0,0
0.0007563216800000001,-0.0009106922,0.0002637796000000001,0.0016162428,0.0013050598,4.583,0,0
0.0007542054800000001,-1.0008200000000004e-05,-0.0003774751999999999,0.0008458802000000001,0.0007553898,4.584,0,0
0.0006254936000000001,0.0011550158000000002,-0.0008344817999999999,5.146199999999995e-06,0.0003956138,4.585,0,0
0.00015331440000000002,0.0030416944000000003,-0.0007021007999999999,-0.0009528886000000001,0.00042565200000000005,4.586,0,0
0.00010303039999999997,0.005549612000000001,-0.00028630419999999993,-0.0021914506000000004,0.0006237340000000001,4.587,0,0
0.0004884486,0.00764069,2.239800000000073e-06,-0.0034381626,0.0006046258000000001,4.588,0,0
0.0005699288,0.009032574,0.00052533704,-0.004245068,0.00037608300000000004,4.589,0,0
0.0009931728,0.009226684,0.00088786584,-0.004417996,0.0002022632,4.59,0,0
0.0016482140000000003,0.006535040000000001,0.00099558384,-0.004028348,-1.3531000000000003e-05,4.591,0,0
0.0016992080000000002,0.0015283400000000004,0.00098999784,-0.0029863934000000005,-0.00034839900000000005,4.592,0,0
0.0012666102000000001,-0.0038290200000000003,0.00047465003999999997,-0.0017699902000000002,-0.0006749582000000001,4.593,0,0
0.0009451982000000002,-0.008762342,-5.095200000000005e-06,-0.0009587988000000001,-0.0012681794,4.594,0,0
0.0002864082000000003,-0.012337614,2.035999999999965e-06,-0.00012576199999999994,-0.0018984656,4.595,0,0
-0.0008736238,-0.012994188,5.3627999999999955e-05,0.0006744840000000002,-0.00237535,4.596,0,0
-0.0019761618,-0.011006028000000001,0.00025572400000000003,0.0010979734,-0.002398546,4.597,0,0
-0.002806538,-0.0078133048,0.001205944,0.0014714422,-0.0018703294000000004,4.598,0,0
-0.003220596,-0.0046226806,0.0022890560000000003,0.0020710588000000005,-0.0013478770000000001,4.599,0,0
-0.002433496,-0.0017806826000000004,0.00200548,0.0020881654000000005,-0.0006728284,4.6,0,0
-0.00047670799999999973,0.0004908214,-0.000301506,0.0015609680000000003,0.00016667759999999994,4.601,0,0
0.0009781880000000003,0.0014732554000000003,-0.0031509520000000003,0.0010218428,0.000494491,4.602,0,0
0.001668722,0.0016480136000000002,-0.005170016,0.0004674147479999999,0.0005137264,4.603,0,0
0.00244084844,0.0020002574,-0.006688554,0.00022005074799999995,0.0003418578,4.604,0,0
0.00226827844,0.0018358060000000002,-0.007028168000000001,0.00047342734799999997,-9.174680000000003e-05,4.605,0,0
0.0010213804399999999,0.001074143,-0.0052878096,0.000854680748,-0.0006345428,4.606,0,0
0.00062316444,0.0012585550000000002,-0.0029827212000000003,0.0005813019479999999,-0.0011220142000000002,4.607,0,0
0.00114724044,0.0017234896000000001,-0.0013695836000000002,0.000288826,-0.0016628722,4.608,0,0
0.0013890220000000002,0.0020386756,-4.215360000000006e-05,0.00034849,-0.0017331256,4.609,0,0
0.0010629422,0.0027602230000000005,0.0007586184000000001,-0.000151727,-0.0011158636000000003,4.61,0,0
0.0002237602000000001,0.0031848040000000003,0.0011790580000000002,-0.0005695796,-0.0003285956000000001,4.611,0,0
-0.0011636137999999998,0.0028648240000000006,0.0017599776000000002,3.424440000000009e-05,0.0012294343999999999,4.612,0,0
-0.0021099278,0.0027094080000000004,0.0021534880000000003,0.0005024068000000001,0.0026962184000000004,4.613,0,0
-0.0022142706,0.0029285780000000003,0.001994716,0.00024000600000000005,0.0033509140000000004,4.614,0,0
-0.0019197448000000004,0.002809572,0.0018273318,0.00042165720000000005,0.0036900500000000003,4.615,0,0
-0.0018400248,0.002592796,0.0018545318,0.0005133866,0.003858438,4.616,0,0
-0.0010889848000000001,0.0027774740000000003,0.0016391618,-6.85274e-05,0.003239188,4.617,0,0
0.0008698871999999999,0.003069698,0.0014912238000000001,-9.99134e-05,0.0022305226,4.618,0,0
0.001778302,0.0024149954,0.0017123898000000002,0.00010425939999999997,0.0016878166,4.619,0,0
0.0016921998,0.0014974162,0.0018693800000000003,2.198219999999999e-05,0.0008721111999999999,4.62,0,0
0.0021128227999999997,0.0010901031999999999,0.001885722,7.98296e-05,0.00026726459999999996,4.621,0,0
0.0021380628000000003,0.0001423032000000001,0.0020165160000000003,-3.536640000000003e-05,0.0003089306,4.622,0,0
0.0004901308000000002,-0.0013438108,0.00202692,-0.0006615188000000001,0.0008996200000000001,4.623,0,0
-0.0008896151999999999,-0.0020702122,0.0020140519999999997,-0.0014296188000000002,0.0015142700000000003,4.624,0,0
-0.0010582958,-0.002468005,0.002168774,-0.0018586378,0.0020291114000000002,4.625,0,0
-0.0008533272,-0.002778802,0.00204667,-0.002078516,0.002503502,4.626,0,0
-0.00036957300000000005,-0.0022634022,0.0014143934,-0.0018839400000000002,0.0021270236000000002,4.627,0,0
0.00010625880000000005,-0.0019859222000000003,0.0008007128,-0.0012804962000000002,0.0012378096,4.628,0,0
0.00040632280000000003,-0.0021357282,0.00027134440000000005,-0.0006837534,0.000634671,4.629,0,0
-2.4080399999999974e-05,-0.0019128122000000003,-0.0003715416,-0.00029058740000000006,0.00027299499999999994,4.63,0,0
-0.0006140520000000001,-0.0017632021999999998,-0.0012566475999999998,-0.00023962339999999998,-0.00046413500000000007,4.631,0,0
-0.0013182402,-0.0019363618000000002,-0.0018935990000000002,-0.0004183994,-0.0009082886000000001,4.632,0,0
-0.0027329980000000004,-0.0015818842000000003,-0.0018482302,-0.0007301434000000001,-0.0009636066000000001,4.633,0,0
-0.004047594,-0.0007218346000000001,-0.0016010346,-0.0008501964,-0.0013551980000000002,4.634,0,0
-0.004221664,5.4225399999999896e-05,-0.0010819926000000001,-0.000723842,-0.001942198,4.635,0,0
-0.004133238,0.0008440674000000001,0.00012034339999999994,-0.00031470559999999996,-0.002197184,4.636,0,0
-0.004034938,0.0014828612,0.0014387174,0.00010399140000000003,-0.0021837640000000004,4.637,0,0
-0.0029003048,0.0016291398,0.0017732035999999999,2.6887600000000057e-05,-0.002316976,4.638,0,0
-0.0017555650000000002,0.0012409202,0.001629984,-3.282059999999996e-05,-0.001729235,4.639,0,0
-0.0013602610000000002,0.0004178322000000003,0.001560844,0.00011848499999999999,-0.0008476690000000001,4.64,0,0
-0.001238909,-0.0011729198,0.0013979040000000002,9.309779999999997e-05,-0.0009397130000000001,4.641,0,0
-0.0007889918,-0.0028131118,0.001280308,0.00012646819999999996,-0.001434785,4.642,0,0
2.363500000000004e-05,-0.0027975988,0.0011607592,0.0007021881999999999,-0.0020057630000000003,4.643,0,0
0.0015394392000000002,-0.0009228988000000002,0.000990133,0.0011587245999999999,-0.0030584760000000005,4.644,0,0
0.0031727872,0.0014887972000000003,0.001436081,0.0011209006,-0.0033977834,4.645,0,0
0.004215055200000001,0.0044996012,0.0019583450000000002,0.0012737374000000002,-0.0029468342000000002,4.646,0,0
0.004884378,0.008194095200000001,0.001375998,0.001331265,-0.0027845782000000003,4.647,0,0
0.0043958239999999996,0.009836098000000001,0.0011623392,0.0010565118000000003,-0.0021093822,4.648,0,0
0.0028268480000000003,0.008366102,0.0016926278,0.0010111938000000001,-0.0005950202000000001,4.649,0,0
0.001035036,0.004653216000000001,0.0013499038000000002,0.0010738518,0.0007926152,4.65,0,0
6.662600000000005e-05,-0.00046453599999999977,-6.370199999999968e-06,0.0007751490400000001,0.001794758,4.651,0,0
-0.0006857986000000001,-0.006161536,-0.0014240872,0.00077699964,0.0028070080000000006,4.652,0,0
-0.0006711666,-0.010453158,-0.0032185,0.0008186306400000001,0.0034265100000000007,4.653,0,0
0.0011859433999999998,-0.011094324,-0.005849828,0.00014052464000000004,0.0029316998,4.654,0,0
0.0031548573999999998,-0.008886544,-0.007871988,-0.00014430968,0.0015405744,4.655,0,0
0.0041004454000000004,-0.0056521074,-0.008123358,0.00026982508,0.00022559240000000018,4.656,0,0
0.0043248374,-0.0024242506000000004,-0.007214806,0.00024780208,-0.0007190996,4.657,0,0
0.004109259400000001,4.46262000000001e-05,-0.005708244,6.720707999999996e-05,-0.0014803656000000002,4.658,0,0
0.0023995486000000003,0.0005775004000000001,-0.0034610064,0.00036552388000000004,-0.0022704053999999998,4.659,0,0
0.00016884259999999998,-0.0001026274,-0.0019200532000000002,0.0003638800800000001,-0.0024541100000000002,4.66,0,0
-0.0010065514000000002,-0.0007887619999999999,-0.0014476332,0.00024301608000000004,-0.0017443320000000001,4.661,0,0
-0.0014286708000000002,-0.0011534668,-0.0004974911999999999,0.0004583534800000001,-0.0009557520000000001,4.662,0,0
-0.0018609208,-0.0010491883999999999,0.0004602948,0.0008515806800000001,-9.997399999999996e-05,4.663,0,0
-0.0020344,-0.0006251645999999999,0.0006054006000000001,0.00156997588,0.000860698,4.664,0,0
-0.0014690102,0.0007804292000000003,0.0010511854000000002,0.002348648,0.001315467,4.665,0,0
-0.0013474042,0.0030046072000000004,0.0017826934,0.00267928,0.001333429,4.666,0,0
-0.0013612582000000002,0.0056922152000000005,0.0014038352,0.00258031,0.001434385,4.667,0,0
-0.0008149342000000001,0.00821314,0.0010913212000000002,0.0024660358000000004,0.0013682850000000001,4.668,0,0
-0.0003419002000000001,0.00920106,0.0015984878000000003,0.0019106968000000002,0.0015878430000000002,4.669,0,0
-5.313340000000002e-05,0.008766974,0.0017451978000000003,0.0008163268000000001,0.0017903380000000003,4.67,0,0
0.0006792846,0.006798986,0.0021911358,-0.0001779072,0.001250032,4.671,0,0
0.0015561046000000002,0.0027139239999999995,0.003444888,-0.0011543252000000002,0.000311196,4.672,0,0
0.0018052506,-0.001280484,0.003972294,-0.0024214090000000002,-0.000944638,4.673,0,0
0.0018622586,-0.003715518,0.003666076,-0.0034760819999999997,-0.002418602,4.674,0,0
0.002477856,-0.005009612,0.003722236,-0.0037878839999999996,-0.003345064,4.675,0,0
0.003054396,-0.004390492,0.0034335940000000003,-0.004096692,-0.0032628406,4.676,0,0
0.002819768,-0.002229766,0.00245165,-0.004321822,-0.0029618266,4.677,0,0
0.00210705,-0.0005404832000000001,0.0020342980000000004,-0.003553062,-0.0019718504,4.678,0,0
0.0008329379999999999,0.00026399379999999997,0.00104483,-0.0024909463999999997,2.102959999999987e-05,4.679,0,0
-0.0008037540000000001,0.0006652562000000001,-0.0014990180000000002,-0.0020294638000000003,0.0014258056,4.68,0,0
-0.0020108,0.00041971302,-0.0033553000000000003,-0.0012572904000000002,0.0021130142,4.681,0,0
-0.002786134,-0.0007110449800000001,-0.003930852,0.00021999360000000002,0.0032383802,4.682,0,0
-0.003215142,-0.00232167378,-0.004470328,0.0009557556000000001,0.004004292,4.683,0,0
-0.0029658560000000002,-0.0031686147800000005,-0.0038981256000000003,0.0009506568000000001,0.0036822800000000004,4.684,0,0
-0.0026898520000000004,-0.00317005558,-0.0018660815999999999,0.0009411026,0.003313764,4.685,0,0
-0.0030767760000000003,-0.0028192844,-0.0006801330000000002,0.00035371719999999993,0.003184166,4.686,0,0
-0.003513668,-0.002022483,-0.00026424400000000007,-0.0009193888,0.0027256620000000002,4.687,0,0
-0.0035934060000000004,-0.0006799072000000001,0.000362572,-0.0019728568,0.0017459098,4.688,0,0
-0.0038404520000000003,0.0007305808,0.0006501636,-0.0025027996,0.0006800178,4.689,0,0
-0.004210164000000001,0.0012421572,0.0007991284,-0.002871096,6.525900000000003e-05,4.69,0,0
-0.0036628323999999997,0.0013160492000000002,0.0015295478,-0.002926822,-0.00032732266,4.691,0,0
-0.0024442284,0.001066391,0.0022334868,-0.0022097419999999998,-0.00090510066,4.692,0,0
-0.0014780405999999997,-4.931279999999998e-05,0.0021097728,-0.001338836,-0.00148678446,4.693,0,0
-0.00029401460000000004,-0.0012082608000000003,0.0019716896,-0.0009340653999999999,-0.0021216084600000004,4.694,0,0
0.0012074274000000002,-0.0018535808000000003,0.0018671178200000001,-0.00017295139999999997,-0.0025080756600000006,4.695,0,0
0.0018211278,-0.0025838368,0.00116228752,0.0007969826,-0.002171544,4.696,0,0
0.0016775698000000003,-0.0026119968,0.0005113157200000001,0.0011517806,-0.0013774440000000002,4.697,0,0
0.002123592,-0.0011823108,0.00024959052000000004,0.0014877826000000002,-0.0005139358000000001,4.698,0,0
0.002731622,-0.0004298328000000001,0.00011355952000000001,0.002089942,0.00034162399999999995,4.699,0,0
0.002513038,-0.0004592208000000001,2.672949999999999e-05,0.0019308258000000002,0.0009750464,4.7,0,0
0.0020726346,-0.00013530220000000003,3.692269999999999e-05,0.0015330210000000003,0.0009665344,4.701,0,0
0.001710646,-0.00010725020000000003,0.0002732445,0.0018089890000000004,0.0007942644000000001,4.702,0,0
0.0006426119999999998,-0.00020250580000000002,0.0003248241,0.001647587,0.0012891562000000001,4.703,0,0
-0.0004993920000000001,5.030220000000002e-05,0.00036847740000000006,0.0010994928000000001,0.0017495764000000002,4.704,0,0
-0.0011939540000000001,0.00043410480000000005,0.0005314514000000001,0.0011888146,0.001252768,4.705,0,0
-0.0018464406000000002,0.0005212406000000001,7.859050000000003e-05,0.0010905206,0.0006260460000000001,4.706,0,0
-0.0016951924000000002,0.00039254560000000005,-0.0006832455,0.00039902220000000003,-0.00038805,4.707,0,0
-0.0011380148,0.00010349700000000003,-0.0009037367000000001,3.937900000000015e-06,-0.002235626,4.708,0,0
-0.0014471648,-0.00015836700000000002,-0.0008820162,-7.697229999999999e-05,-0.003219702,4.709,0,0
-0.0013594967999999998,-7.728360000000003e-05,-0.0011084556,-0.00021948400000000001,-0.003391896,4.71,0,0
0.0004939092,0.00022952199999999996,-0.0011840216,-0.00039723920000000004,-0.004043128,4.711,0,0
0.0020730956000000003,0.000544067,-0.0009281964,-0.00042338620000000006,-0.00427036,4.712,0,0
0.00270928,0.0011735132,-0.000663518,-0.0003289293000000001,-0.0038298119999999997,4.713,0,0
0.003906538,0.0023638872,-0.0003273776,-0.00011121890000000004,-0.003870892,4.714,0,0
0.004589632000000001,0.0033193552,0.0005811948000000001,0.00018843719999999997,-0.003132522,4.715,0,0
0.0031252428000000006,0.0039456932,0.0016823448000000002,0.0008701431999999999,-0.0004625460000000001,4.716,0,0
0.0005657148000000002,0.005010496000000001,0.0021483916,0.0016524286,0.0024116500000000004,4.717,0,0
-0.0014207192,0.005511918,0.0025232540000000004,0.0018563160000000002,0.0042320660000000005,4.718,0,0
-0.0031413952,0.004104302,0.002716546,0.0019095580000000002,0.005275038000000002,4.719,0,0
-0.004876047200000001,0.0011430660000000005,0.0018225636000000001,0.0017432044000000003,0.005206916000000001,4.72,0,0
-0.005145158,-0.00186797,0.00023725760000000004,0.0015198404000000003,0.0031857960000000003,4.721,0,0
-0.003288616,-0.004260936,-0.0015792764000000003,0.0015490904,0.000738744,4.722,0,0
-0.0015897940000000003,-0.006834922,-0.0033524144000000003,0.0013823484000000002,-0.000644248,4.723,0,0
-0.0001381179999999999,-0.007512110000000001,-0.0049286524000000005,0.0009795662,-0.001219852,4.724,0,0
0.00233647,-0.004989364,-0.005676548,0.0011110357999999999,-0.0007150020000000002,4.725,0,0
0.00351635,-0.0024000099999999997,-0.005022138000000001,0.0013538378,0.00059406,4.726,0,0
0.002853884,-0.00092781,-0.003778880000000001,0.0008372299999999999,0.001755282,4.727,0,0
0.002817124,0.000957266,-0.0026832486000000003,0.0008443855999999999,0.0026413720000000003,4.728,0,0
0.002969712,0.002332786,-0.0016570725999999999,0.0012901098,0.0031820040000000004,4.729,0,0
0.0018749074000000002,0.002017042,-0.0006870468,0.0009176816,0.0023093460000000003,4.73,0,0
0.0011010414,0.0013122843999999999,-5.54528e-05,0.00018564959999999985,0.000814602,4.731,0,0
0.0010675894000000002,0.0006518743999999999,0.0003857064,-0.00029179860000000006,-0.0002103400000000001,4.732,0,0
0.0005926248000000002,0.00034879639999999993,0.000857631,-0.0010568162,-0.0011415620000000003,4.733,0,0
-0.00044243719999999997,0.0002268443999999999,0.0015120630000000001,-0.0019506442000000001,-0.0017003060000000002,4.734,0,0
-0.0013355486,6.989999999998928e-07,0.0020358332,-0.002326532,-0.0018458740000000004,4.735,0,0
-0.0015616966,0.0006308366,0.0023960592,-0.002705854,-0.0017413480000000002,4.736,0,0
-0.0020549906000000002,0.0017588786000000002,0.002813174,-0.002812032,-0.0017734,4.737,0,0
-0.0025842400000000002,0.0025542866000000004,0.0026877236,-0.0024830720000000002,-0.00222856,4.738,0,0
-0.0026174620000000005,0.0021839048000000002,0.0023370255999999997,-0.002135302,-0.0026357560000000004,4.739,0,0
-0.0022839920000000003,0.0012325702000000002,0.0020988976,-0.001881508,-0.002598298,4.74,0,0
-0.00043159999999999987,0.0013426482000000002,0.0013424782,-0.0013957140000000002,-0.0021665104000000005,4.741,0,0
0.002557774,0.0013239562,0.0006126326000000001,-0.000726268,-0.0013011344000000004,4.742,0,0
0.004826004,-0.0001704358000000002,0.0003112252,-0.000443494,-9.969640000000006e-05,4.743,0,0
0.006435003999999999,-0.0016088820000000003,-0.0004002188,-4.971900000000006e-05,0.0009005776000000003,4.744,0,0
0.007536802,-0.0025466620000000003,-0.0010834428,0.000744527,0.0013589434000000002,4.745,0,0
0.006340482000000001,-0.004008884000000001,-0.0012181434,0.001282503,0.0014322078000000003,4.746,0,0
0.0036377105200000003,-0.004726572,-0.0011554676,0.001322983,0.0014110598000000004,4.747,0,0
0.0012437485200000008,-0.0037871199999999997,-0.0009104938000000001,0.0015567530000000001,0.0016618958000000003,4.748,0,0
-0.0010156774800000002,-0.0014256300000000006,-0.0006147576,0.0014692342,0.0019830778,4.749,0,0
-0.0029301814800000003,0.001904978,-0.000404236,0.0008240604,0.0022472580000000002,4.75,0,0
-0.00432776948,0.0043321639999999995,0.000360148,0.00022742839999999992,0.002317762,4.751,0,0
-0.004939174,0.005456566,0.0020442178000000004,-0.00034418960000000005,0.0018106234,4.752,0,0
-0.00462175,0.00624855,0.0034696438,-0.0007842176000000001,0.001291391,4.753,0,0
-0.004050988,0.004739206000000001,0.0049482996,-0.0012459838000000003,0.0005881788,4.754,0,0
-0.003584278,0.0009608279999999999,0.006234974000000001,-0.0015895180000000003,-0.0004620532,4.755,0,0
-0.0027550960000000003,-0.0013473600000000001,0.0047533820000000004,-0.0018556140000000002,-0.0010550712,4.756,0,0
-0.0017761580000000001,-0.00284532,0.0013957240000000003,-0.002186216,-0.0011091792000000001,4.757,0,0
-0.0010704940000000002,-0.00498101,-0.0008780979999999999,-0.0022464060000000003,-0.0011713728600000002,4.758,0,0
-0.0003771604000000001,-0.005239752,-0.003193386,-0.0016851128,-0.0007446266599999999,4.759,0,0
0.00028898619999999993,-0.003093132,-0.006298644,-0.0012984545999999999,-6.794264000000005e-05,4.76,0,0
0.00021483219999999997,-0.0017776200000000002,-0.006853636,-0.0011855926,-0.00038079464000000004,4.761,0,0
-3.697040000000005e-05,-0.0013521946000000003,-0.0052561736,-0.00040996120000000004,-0.00087252204,4.762,0,0
0.0006180376000000001,0.00036633939999999995,-0.0044416118,0.00041242879999999995,-0.00093452378,4.763,0,0
0.0018137400000000003,0.0024880134,-0.003620936,0.0010633856,-0.00122873618,4.764,0,0
0.0027563394,0.0030869034000000004,-0.001406246,0.0019777314,-0.0013292996,4.765,0,0
0.0030549414000000004,0.0027307394000000004,0.000567828,0.0029745234,-0.0007394654,4.766,0,0
0.0030153658,0.0031380740000000002,0.0008871580000000001,0.003307076,-0.000285916,4.767,0,0
0.0024284838,0.0025029062,0.0008982999999999999,0.00305608,-0.00044199220000000006,4.768,0,0
0.0013649652,0.0007044302,0.0007421381999999999,0.002716766,-0.0008714638000000001,4.769,0,0
0.0003128992,0.0001054002000000001,3.142020000000001e-05,0.0019401425999999997,-0.0011413964000000002,4.77,0,0
-0.00020533479999999994,-0.00029647979999999994,-0.00019995580000000003,0.0011812606,-0.0010043482000000002,4.771,0,0
-0.0006258926000000001,-0.0010388058,-6.806200000000003e-06,0.0011612586,-0.0004981716000000001,4.772,0,0
-0.0015072286,-0.0008908438,0.0003511879999999999,0.0016189946,0.00015690039999999994,4.773,0,0
-0.0022790440000000005,-0.00014646399999999993,0.0013676679999999998,0.0013747194,0.0008216104,4.774,0,0
-0.0028403880000000005,0.00010031000000000002,0.0025926960000000002,0.0010153368,0.0015047704,4.775,0,0
-0.0033379520000000004,7.256720000000004e-05,0.0030616440000000005,0.0009068668000000003,0.0016026298,4.776,0,0
-0.003662704,0.00025259740000000005,0.003142682,-0.0002477232,0.001137294,4.777,0,0
-0.0036253660000000005,6.845820000000004e-05,0.0034081,-0.0015419551999999999,0.0007785216,4.778,0,0
-0.0030735403999999997,-0.0007276296,0.003388882,-0.0019061518000000003,0.0004257194000000001,4.779,0,0
-0.0013979844,-0.0011745856000000001,0.0027150428000000007,-0.0016364546,0.0005216214,4.78,0,0
0.0004980336000000001,-0.0008757596,0.0017326568000000004,-0.0011172565999999998,0.0008833776,4.781,0,0
0.0017415616000000002,-0.0008152422,0.0009517488000000001,-0.00041777660000000006,0.0010865699999999998,4.782,0,0
0.0029320516000000004,-0.0007628326000000001,0.00010081840000000002,-0.00034079060000000004,0.0013270724,4.783,0,0
0.0034891040000000003,-0.00012654786000000005,-0.0007933172,-0.0006309228,0.0010957786000000001,4.784,0,0
0.00298771,-9.889006000000001e-05,-0.001201576,-0.0007620284,0.00011609259999999992,4.785,0,0
0.0023364720000000005,-0.00043626726,-0.00113783,-0.0011856230000000002,-0.0007428234,4.786,0,0
0.002094742,-6.302485999999994e-05,-0.0011371800000000002,-0.0010879338000000002,-0.00049862,4.787,0,0
0.001925084,0.0005817805400000001,-0.0011628314000000002,-0.00034535580000000005,0.0005702680000000001,4.788,0,0
0.0014325834,0.0010945118,-0.0009629464,0.00013693205999999996,0.00176595,4.789,0,0
0.0006895374,0.0013354448000000001,-0.0009761504000000001,0.00015986026,0.0023293219400000002,4.79,0,0
-0.0001269225999999999,0.0010493848,-0.0010057884000000002,0.00044003226,0.00256934654,4.791,0,0
-0.0011512346,0.00012438080000000016,-0.00047918620000000006,0.00037651506000000004,0.0022402587400000003,4.792,0,0
-0.0022792646000000002,-0.0010885171999999999,-1.510400000000005e-06,5.639286000000002e-05,0.0009410549399999999,4.793,0,0
-0.00292785,-0.0019750172,-3.1508619999999946e-05,0.00012151460000000002,-0.00034963105999999996,4.794,0,0
-0.00228993,-0.0022425880000000002,-8.858620000000005e-06,-0.0001043692,-0.001056969,4.795,0,0
-0.001012214,-0.0019363692000000004,-0.00035876262000000006,-0.00012747080000000003,-0.0009716308000000001,4.796,0,0
-0.00029362780000000014,-0.0015405152000000004,-0.00126956282,0.0002959612,-0.0007409110000000001,4.797,0,0
0.0004836928,-0.0013635572000000001,-0.00218754082,0.0006586774,-0.0006985292000000002,4.798,0,0
0.0012503984000000001,-0.0011104272,-0.0027418980000000004,0.0006675742000000001,-0.00034509920000000004,4.799,0,0
0.0009860124,-0.0010079312000000002,-0.0028597480000000005,0.0004007542000000001,8.182480000000004e-05,4.8,0,0
4.529140000000001e-05,-0.0009016962000000001,-0.0023831152,3.6474399999999964e-05,-5.8034200000000035e-05,4.801,0,0
-0.0004237488,-0.0003611862,-0.0014112112000000002,-0.0002656014,-0.000274871,4.802,0,0
-0.00011314739999999989,0.0005624018,-0.0009466004,-0.000746319,-0.0004259370000000001,4.803,0,0
0.0003325870000000002,0.0008773918,-0.0006437264000000001,-0.0011700674,-0.0007872570000000002,4.804,0,0
0.0008582490000000002,0.000954891,0.00021508759999999997,-0.0008378293999999999,-0.001098617,4.805,0,0
0.002155064,0.0024954852000000005,0.0005979688,-0.0008578514,-0.0016326808000000001,4.806,0,0
0.003803582,0.0040037772,0.0001290048,-0.0012562215999999998,-0.00263976,4.807,0,0
0.004213186000000001,0.0041884352,0.00039765359999999997,-0.0009001199999999999,-0.00367839,4.808,0,0
0.003924592,0.0036938412000000003,0.0010759456000000002,-0.0003831816,-0.0043690180000000006,4.809,0,0
0.003533249,0.0029574480000000005,0.0008094896000000001,-0.00023103860000000002,-0.004643038,4.81,0,0
0.0022449836,0.0009204320000000002,0.0007596996000000002,0.0001605946,-0.004238866000000001,4.811,0,0
0.00039295560000000016,-0.002469112,0.0012982896,0.0006097866000000001,-0.0034353256000000006,4.812,0,0
-0.0014431024,-0.005124612000000001,0.0009032760000000003,0.0002790864,-0.0025895956000000003,4.813,0,0
-0.0029420644,-0.006142890000000001,-0.00011886000000000004,0.00011393709999999998,-0.0014210064,4.814,0,0
-0.0041974134,-0.006401268000000002,-0.0007028399999999999,0.0004049483,-5.186640000000005e-05,4.815,0,0
-0.004794640000000001,-0.0065469920000000015,-0.001263534,0.0004029709,0.0008115896,4.816,0,0
-0.005017982,-0.005188473600000001,-0.0018156320000000002,0.0001766389,0.0009421068000000001,4.817,0,0
-0.005092213999999999,-0.0032771648000000002,-0.00154097462,-0.00010051090000000003,0.0009476968000000001,4.818,0,0
-0.004066868,-0.0018498666000000003,-0.0006882746200000001,-0.00011510048000000001,0.0013169496000000002,4.819,0,0
-0.0023723120000000006,0.0004176153999999999,-0.00022104182000000008,-0.00023578628000000006,0.0016432616000000002,4.82,0,0
-0.00074079,0.0034300674,0.00027160958,-0.0005492772800000001,0.0015388996,4.821,0,0
0.000767856,0.006414395,0.0010694935800000002,-0.0008790272800000001,0.0020397740000000003,4.822,0,0
0.0019955708,0.0088849342,0.0016036001999999998,-0.00103686728,0.003348184,4.823,0,0
0.0025583588000000004,0.01036238,0.0019576342000000003,-0.0009589354000000001,0.00398132,4.824,0,0
0.0026193928000000006,0.010098619999999999,0.0027002954000000003,-0.0008184778000000002,0.004080076,4.825,0,0
0.0025069768,0.008442153999999999,0.0033514860000000003,-0.0005441494,0.00440159,4.826,0,0
0.0024119188,0.005379072,0.003268908,7.404860000000005e-05,0.00430714,4.827,0,0
0.002391392,0.000387072,0.0032683680000000002,0.0008767086000000001,0.0030135258,4.828,0,0
0.0022081594000000005,-0.004630024,0.0030009620000000002,0.0008595006000000001,0.0012199098,4.829,0,0
0.0018172354,-0.007785788,0.0015678380000000002,0.0008063424000000001,0.00020264279999999987,4.83,0,0
0.0009671832,-0.009643783999999999,0.00022486599999999978,0.0009940832,-0.00043888520000000015,4.831,0,0
-3.872279999999999e-05,-0.009553679399999999,-0.0001939046000000001,0.0006035448000000001,-0.0012800332000000002,4.832,0,0
-0.0007341348000000001,-0.0060587734,-0.0008280068,0.0001118888000000001,-0.0014481690000000002,4.833,0,0
-0.0014156422,-0.0014202373999999995,-0.0015439828,-0.00012063160000000002,-0.0007734030000000001,4.834,0,0
-0.0021613322000000003,0.0015405346000000003,-0.0011787768000000001,-0.00038317740000000004,-0.0005698304000000001,4.835,0,0
-0.0025494240000000002,0.0030985026000000006,-0.0005406524,-0.0010917114000000001,-0.0006647420000000002,4.836,0,0
-0.002479784,0.0037476220000000004,-0.0006981318000000001,-0.0016141010000000002,-0.0003851114,4.837,0,0
-0.0020964486,0.0027994958,-0.0008314036,-0.001789305,-0.0003959034,4.838,0,0
-0.0015458426000000002,0.0008892058,-0.00044925676,-0.002099444,-0.0005650962,4.839,0,0
-0.0012110608000000002,-0.0006292782000000002,-0.00014374556,-0.002424664,-0.000745463,4.84,0,0
-0.0008646420000000002,-0.0011539552000000002,0.0003625000399999999,-0.0023215379999999997,-0.0010430414000000001,4.841,0,0
-0.0005266824,-0.0015705328000000004,0.00144419204,-0.0021479660000000003,-0.001210088,4.842,0,0
-0.000516065,-0.0018126446000000004,0.0024673000400000002,-0.00202952,-0.0009718208,4.843,0,0
-0.0006940516,-0.0010212028,0.0028546192,-0.001586432,-0.0007617576,4.844,0,0
-0.0012030514,-0.0010263928,0.0035611880000000003,-0.0010447780000000001,-0.0012159383999999999,4.845,0,0
-0.0013650142,-0.0017872598,0.0034571920000000004,-0.00021115199999999993,-0.0013481164,4.846,0,0
-0.0007415698000000001,-0.0012927102,0.00022876400000000022,0.0010520500000000001,-0.0008986296,4.847,0,0
5.861140000000011e-05,-0.0004914761999999999,-0.00346885,0.0024955760000000002,-0.0006923847999999999,4.848,0,0
0.001310546,-0.0006243781999999998,-0.005195118,0.0035207040000000004,-0.0010253412,4.849,0,0
0.002809788,2.041419999999997e-05,-0.006702046,0.0038900420000000007,-0.0010396392,4.85,0,0
0.0031884742000000002,0.0006987242000000001,-0.007790216000000001,0.0037389,-0.0009042472,4.851,0,0
0.0022530202,-0.00036448580000000006,-0.00584736,0.0031461058,-0.00130242,4.852,0,0
0.0009164982000000003,-0.0013428598,-0.0030094052000000002,0.0021036476000000004,-0.0015664634,4.853,0,0
-0.00021097039999999986,-0.0011897024,-0.0018855112000000002,0.0013000377999999998,-0.0017323434,4.854,0,0
-0.00042490440000000006,-0.0001270367999999998,-0.0011490562,0.0010801337999999999,-0.0014702614000000002,4.855,0,0
8.359139999999997e-05,0.0015805112000000002,-0.0006232310000000001,0.0012019458000000001,-0.0007741514000000001,4.856,0,0
0.0005526674000000001,0.0034270492000000007,-0.0004583292,0.001641282,-0.00039296359999999996,4.857,0,0
0.0012748420000000002,0.0048443532,-0.000413044,0.0018288082,-0.00046327619999999995,4.858,0,0
0.0013825796,0.005136002000000001,-0.00014852240000000003,0.001856484,0.00016881720000000007,4.859,0,0
0.00017491360000000005,0.004505206,3.093659999999998e-05,0.00198345,0.0012674332000000002,4.86,0,0
-0.0009380884,0.003580916,0.00015717539999999999,0.0019186580000000002,0.0012681592,4.861,0,0
-0.0014122724000000001,0.002010194,0.0009899556,0.0015596560000000002,0.0008608214,4.862,0,0
-0.002069611,0.0004673879999999999,0.0018105056,0.0012550756000000002,0.0008964353999999998,4.863,0,0
-0.0025493300000000003,-0.000177226,0.002129434,0.0007959956000000003,0.001091252,4.864,0,0
-0.0020494682,-0.000786934,0.0022078320000000003,0.00035196180000000014,0.000684226,4.865,0,0
-0.0013394472000000002,-0.001567306,0.0024207,-2.671779999999997e-05,0.0002226212,4.866,0,0
-0.0008784832000000003,-0.001872036,0.0019414260000000002,-0.00037486700000000003,0.0007909892,4.867,0,0
-0.0005628872,-0.001743948,0.0012047200000000003,-0.00011296860000000001,0.0015852312,4.868,0,0
-0.00026952440000000007,-0.0010496659999999999,0.0015562940000000002,0.00011795540000000002,0.0018361051999999998,4.869,0,0
0.00024851980000000005,0.0002837760000000001,0.002331382,-6.646679999999997e-05,0.0018760372,4.87,0,0
0.0006541468,0.0018882920000000002,0.0028644040000000005,-0.0005385812000000001,0.0020139794,4.871,0,0
0.0008157348000000001,0.003544088000000001,0.0034631920000000004,-0.001191588,0.0019679494,4.872,0,0
0.0010955588,0.0047794840000000005,0.0038698660000000005,-0.00179371,0.0015014502,4.873,0,0
0.0009760460000000002,0.0043696682,0.0030638430000000006,-0.002279166,0.0007026584,4.874,0,0
0.00014613600000000005,0.0014932182,0.0024478610000000004,-0.002383378,0.0004113488,4.875,0,0
-0.0006209372,-0.0024613958,0.002179807,-0.0017733718,0.0008874594000000001,4.876,0,0
-0.0011230352,-0.0062491218,0.000789935,-0.0009579249999999999,0.0007332956,4.877,0,0
-0.0009462124,-0.0087496458,-0.0008143870000000001,-0.0006831033999999999,-0.0001385411999999999,4.878,0,0
-0.0004946778,-0.008890941200000002,-0.002071592,-0.0004696094,-0.0006427514,4.879,0,0
-0.00011421219999999997,-0.006842119200000001,-0.0035237420000000003,2.413920000000002e-05,-0.0009932194000000002,4.88,0,0
0.0010944250000000002,-0.0036100952,-0.004657504,0.0005219430000000001,-0.0014337378000000003,4.881,0,0
0.0025132290000000005,-0.0002547751999999998,-0.004603254000000001,0.0011081122000000001,-0.0006571080000000003,4.882,0,0
0.0028599322000000004,0.0017955548000000003,-0.0038109360000000004,0.0017721666000000001,0.0012503319999999998,4.883,0,0
0.0029647196000000004,0.0020547032000000002,-0.0030972080000000006,0.0024192586,0.00265118,4.884,0,0
0.003262862,0.0017050090000000004,-0.0024897640000000006,0.0022310818,0.0033248035999999996,4.885,0,0
0.0023890283999999998,0.00038512300000000024,-0.001756518,0.0010799477999999998,0.003328569,4.886,0,0
0.0011392266000000001,-0.0009574869999999999,-0.0013564503999999998,2.6509799999999974e-05,0.0024012798,4.887,0,0
0.0006978005999999999,-0.0013668704,-0.0009404318000000002,-0.0008192362000000002,0.0009703178000000001,4.888,0,0
0.0006754466000000001,-0.0015916564,-0.0001631186,-0.0014783902,-0.00019839020000000007,4.889,0,0
0.0005627944000000001,-0.001309906,0.00010680600000000001,-0.0017265240000000001,-0.0007732858000000001,4.89,0,0
8.6542e-05,-0.00045667219999999994,1.5869799999999995e-05,-0.001554456,-0.0010588522000000002,4.891,0,0
-0.00042608219999999995,4.946720000000002e-05,0.0003768142,-0.001406338,-0.001527051,4.892,0,0
-0.0009479422000000001,9.503460000000003e-05,0.0006905416,-0.001385676,-0.001846521,4.893,0,0
-0.0019278062000000003,-0.0002541666,0.0010555064,-0.0011331322,-0.0020335070000000004,4.894,0,0
-0.002484322,-0.0010222567999999999,0.0020715438,-0.0006711432000000001,-0.0026678094,4.895,0,0
-0.001851374,-0.0007532686,0.0025475260000000005,-0.00040441340000000003,-0.00302613,4.896,0,0
-0.0009745160000000001,-5.3775999999999954e-05,0.0023703280000000005,-0.0005711754,-0.002704512,4.897,0,0
-0.00043716140000000007,0.0001287396000000001,0.00242156,-0.0008141254000000001,-0.002616618,4.898,0,0
-3.5117400000000065e-05,0.0008412196000000001,0.00246267,-0.0010915732,-0.0029628040000000003,4.899,0,0
-0.00020369140000000007,0.001547352,0.0019960340000000003,-0.0014981502000000002,-0.003026852,4.9,0,0
-0.0013473194000000002,0.0015103680000000002,0.0013696956,-0.0016403914,-0.0028715140000000004,4.901,0,0
-0.00163580092,0.00152404,0.0011331584,-0.0013372310000000001,-0.002967268,4.902,0,0
-0.0008901835200000001,0.0018354044000000003,0.0006095674000000001,-0.0008876888,-0.0017407720000000002,4.903,0,0
-0.00073514152,0.0022636684,-0.0003278466,-0.0006872914000000001,0.000875226,4.904,0,0
0.00021714048,0.002913984,-0.0008710644000000001,-0.0006738214,0.002404522,4.905,0,0
0.0024713224800000004,0.003470476,-0.0008343908000000001,-0.0004603046,0.0031093920000000008,4.906,0,0
0.0034250860000000004,0.003969612,-0.0006482616480000001,-0.00043637140000000004,0.0037035520000000006,4.907,0,0
0.0030521840000000003,0.004058544000000001,-0.0005395486480000002,-0.0007118416,0.003314966,4.908,0,0
0.0037128760000000004,0.0037479740000000007,-0.00040090664800000004,-0.0008462270000000001,0.002265054,4.909,0,0
0.003976156000000001,0.003640038000000001,-0.0006182628479999999,-0.000687182,0.0015454118,4.91,0,0
0.0026210666,0.002979138,-0.001018874048,-0.0004204614000000001,0.0007233597999999999,4.911,0,0
0.0011221266,0.001592566,-0.0011693451999999999,-0.00015437300000000002,3.879379999999986e-05,4.912,0,0
-0.00030750340000000045,8.206799999999981e-05,-0.0011986332,0.00021884399999999997,-0.0002965322000000001,4.913,0,0
-0.0017049234000000003,-0.0012955460000000003,-0.0011914812,0.00021358599999999993,-0.0011634942,4.914,0,0
-0.0031395834,-0.0020368744000000003,-0.0010534952,1.126999999999964e-06,-0.0017101899999999999,4.915,0,0
-0.003830598,-0.0015993524000000004,-0.0003265612,0.00030936500000000014,-0.0010558774,4.916,0,0
-0.0035793160000000004,-0.00021236840000000024,0.0004050859999999999,0.0006052810000000002,7.339260000000002e-05,4.917,0,0
-0.003108716,0.0013420756,0.000725886,0.0003953158000000001,0.0008084726000000001,4.918,0,0
-0.002595582,0.0022020176000000003,0.0009120652000000001,0.0004881462000000001,0.0015757526000000001,4.919,0,0
-0.0023518700000000003,0.00184887,0.0008200091999999999,0.00035147220000000015,0.0018907504000000002,4.92,0,0
-0.002277016,0.0008935760000000002,0.0006657506,-0.0006087118,0.0011253577999999998,4.921,0,0
-0.0021346304,-0.0007851600000000001,0.0003810706,-0.0010057924,0.00021693180000000002,4.922,0,0
-0.0018171058000000001,-0.0028853480000000003,0.00017974039999999998,-0.0008212572,-0.0006542535999999999,4.923,0,0
-0.0016067246,-0.0040573020000000005,0.0004218032,-0.0004162676,-0.0012896604000000001,4.924,0,0
-0.0008785504000000002,-0.004622956,0.0006842326000000001,0.0006832224000000002,-0.001124425,4.925,0,0
2.6085600000000007e-05,-0.00480144,0.0004328788000000001,0.0017679184000000002,-0.000861973,4.926,0,0
0.00022622780000000004,-0.0042298349999999995,-0.0003412192,0.0021056670000000003,-0.001052241,4.927,0,0
0.0005321208000000001,-0.003284917,-0.0011581290000000001,0.0022198448,-0.0010565428,4.928,0,0
0.0010081836,-0.002462951,-0.001767015,0.0023023448000000003,-0.0010213044000000001,4.929,0,0
0.0009663302000000001,-0.0015761814,-0.0021562184000000002,0.0019726668,-0.0005249396000000001,4.93,0,0
0.0006451994,-0.0008134033999999998,-0.0020070640000000002,0.0013735526,0.0009254824,4.931,0,0
0.0002980136,-0.0007773743999999998,-0.0008184960000000003,0.000901204,0.0020307963999999998,4.932,0,0
-0.0002761319999999999,-0.0007025623999999999,0.000521706,0.0004085411999999999,0.0024341336,4.933,0,0
-7.218399999999988e-05,3.663759999999994e-05,0.000889617,-0.00044299480000000005,0.0027808700000000004,4.934,0,0
0.0007091772000000001,0.000580712,0.0010244030000000001,-0.0012270528,0.002522554,4.935,0,0
0.0008895340000000002,0.00040449919999999996,0.0011457872000000002,-0.0018311286,0.0016728440000000004,4.936,0,0
0.0010718760000000003,0.0006876511999999999,0.0006286604,-0.0022678920000000005,0.0012351320000000001,4.937,0,0
0.0015338182600000002,0.0013208478,0.0001277266,-0.0020767358000000004,0.0008342222,4.938,0,0
0.0015825102600000001,0.0009632586,0.0005164516,-0.0014981610000000002,0.00012306019999999988,4.939,0,0
0.00143989626,0.0007044697999999999,0.0011078276000000002,-0.001026868,-0.00044995780000000007,4.94,0,0
0.0016401862600000001,0.0012028746000000002,0.0014811854,-0.0005737322,-0.0010849998000000002,4.941,0,0
0.00219001626,0.0014650466,0.0021027982,-0.0003103922,-0.0017601118000000002,4.942,0,0
0.002438274,0.0013421954000000002,0.0028472160000000005,-0.0003289462,-0.0019268600000000003,4.943,0,0
0.0020013784,0.0013146606000000003,0.0021843900000000005,-0.0002263146,-0.001988086,4.944,0,0
0.0016922483999999998,0.0010597142,-0.0001684740000000005,-4.688760000000008e-05,-0.00245164,4.945,0,0
0.0013709392000000001,-9.299579999999996e-05,-0.0021733020000000002,0.0003630886,-0.0028741920000000002,4.946,0,0
0.0007394667999999999,-0.0013140258,-0.0034077540000000007,0.0010684826000000001,-0.003417752,4.947,0,0
0.0002760308000000001,-0.0015109224,-0.004438658600000001,0.0014673724,-0.0041941420000000005,4.948,0,0
-0.00030923960000000004,-0.0014444696,-0.004431668600000001,0.001612256,-0.004363008000000001,4.949,0,0
-0.0013841276,-0.0016437924000000002,-0.0025620136000000003,0.00201129,-0.0037361620000000008,4.95,0,0
-0.0022231224000000003,-0.0010329547999999998,-0.0007639816000000002,0.002039562,-0.0027326740000000005,4.951,0,0
-0.0030155960000000006,-0.0005265016,0.00016429839999999992,0.00192486,-0.0012532240000000003,4.952,0,0
-0.0034960200000000003,-0.0003222324,0.0004136379999999999,0.0022597520000000003,0.000657242,4.953,0,0
-0.0024005400000000005,0.0011779368,-9.571199999999997e-05,0.0019425456000000002,0.0021532540000000003,4.954,0,0
-0.0011868220000000001,0.0023506708,-0.000408659,0.0011655406,0.002917792,4.955,0,0
-0.0005362346000000001,0.0023880933999999997,-0.0008790694,0.00077889416,0.0034927720000000003,4.956,0,0
0.00047505220000000007,0.0026315644,-0.0016159214,0.0003705013600000001,0.0039191980000000005,4.957,0,0
0.0009697914,0.0022675864,-0.0017882114,-0.00021316484,0.0038686960000000005,4.958,0,0
7.735140000000005e-05,0.0008414627999999999,-0.0008224516000000001,-0.00028592044000000003,0.0032116646,4.959,0,0
-0.0008164026,0.00017740880000000002,0.00017335439999999994,-0.00015907944000000002,0.0023632566000000004,4.96,0,0
-0.000791155,0.00041556260000000006,0.0013222707999999998,-0.0002839174,0.0014005256,4.961,0,0
-0.00029592379999999997,0.0011457024,0.0029142248,-0.00032519,0.00014394959999999997,4.962,0,0
0.000694039,0.0029391924000000003,0.0037871338,-0.00040835180000000005,-0.0003073524,4.963,0,0
0.0017625970000000003,0.0044987560000000005,0.003948968,-0.0005689458,1.9163000000000047e-05,4.964,0,0
0.0028811530000000004,0.0043916648,0.0036348468,-0.0009078278,-0.00013140500000000002,4.965,0,0
0.00406896,0.0028661388,0.0023985848,-0.0009937336,-0.00024173799999999997,4.966,0,0
0.0044237600000000005,0.0010488207999999998,4.652280000000007e-05,-0.0008020208,0.00042178200000000005,4.967,0,0
0.0038718620000000002,-0.0012792892,-0.0018969012000000002,-0.000841864,0.00035025600000000007,4.968,0,0
0.003243473,-0.0045354952,-0.0025499872,-0.000887972,-0.00027289679999999996,4.969,0,0
0.0025585992,-0.006128472,-0.0027836156,-0.000961716,0.00028470980000000007,4.97,0,0
0.0017980492,-0.0054771460000000004,-0.0030896276000000004,-0.0011840678,0.0005477583800000001,4.971,0,0
0.0014035491999999999,-0.004909836000000001,-0.0024045816,-0.0013652372,-4.749562000000001e-05,4.972,0,0
0.0008103571999999999,-0.004588180000000001,-0.0009401716,-0.0012604736,2.9782379999999953e-05,4.973,0,0
-0.0001502138,-0.0034642640000000003,-0.0003580675999999999,-0.0004903356000000002,0.00073039718,4.974,0,0
-0.0008379060000000002,-0.0026155860000000005,-2.5167999999999838e-05,0.0007887764000000001,0.0009664565799999999,4.975,0,0
-0.0016208540000000001,-0.003207398,0.0011514840000000001,0.0015184264000000004,0.0008596039999999999,4.976,0,0
-0.002683078,-0.003166852,0.0018990060000000002,0.0019278224000000002,0.0009077697999999997,4.977,0,0
-0.003758374,-0.00173557,0.00196559,0.00245536,0.00040232539999999995,4.978,0,0
-0.004300642,0.00015407799999999977,0.002766198,0.002248358,-0.00025934300000000004,4.979,0,0
-0.004050148,0.0025929000000000004,0.0034338920000000005,0.0017749620000000002,-0.00032015099999999996,4.98,0,0
-0.00402655,0.005280374,0.0034466620000000005,0.00203856,2.0636999999999945e-05,4.981,0,0
-0.0041901740000000005,0.006507107999999999,0.0036358160000000005,0.00201236,0.0005367952,4.982,0,0
-0.003829152,0.004792646,0.003823834,0.0014402986,0.0010025256,4.983,0,0
-0.0036714780000000006,0.0011588459999999994,0.0029788148,0.0009777906,0.0011837488000000001,4.984,0,0
-0.0033560779200000005,-0.0024531000000000006,0.0009017308,9.333459999999992e-05,0.0005989268000000001,4.985,0,0
-0.0012547659200000004,-0.004342416,-0.0016332992000000002,-0.0009732894,-0.00019169520000000015,4.986,0,0
0.0010601800799999999,-0.004468830000000001,-0.0039986012,-0.0020009754,-0.0008782692000000002,4.987,0,0
0.00268898408,-0.0031640679999999995,-0.0052754372,-0.0025946500000000004,-0.0018986752000000003,4.988,0,0
0.00416339808,-0.00043660400000000016,-0.005234600000000001,-0.0026862360000000003,-0.00287872,4.989,0,0
0.0040217702,0.00216781,-0.0038428120000000006,-0.0027593500000000003,-0.003205102,4.99,0,0
0.0021663686,0.003249922,-0.001686624,-0.0025831440000000003,-0.00312451,4.991,0,0
0.00030977459999999995,0.003062016,0.00014153000000000006,-0.0019021164000000003,-0.0033344380000000003,4.992,0,0
-0.0007836174000000002,0.0027066153999999996,0.0009006392000000001,-0.0010922070000000002,-0.0032315020000000002,4.993,0,0
-0.0014253114,0.0026882773999999995,0.0010389052000000002,-0.0007245638,-0.0029119,4.994,0,0
-0.0012640426000000001,0.0027366634,0.0015362112,2.8958599999999977e-05,-0.0030367480000000006,4.995,0,0
-0.001130025,0.0025090434,0.0019468432000000003,0.0008766886,-0.00289835,4.996,0,0
-0.0009269066000000001,0.0019386216000000002,0.0023755532,0.001183901,-0.0014374520000000003,4.997,0,0
0.00046614939999999993,0.0013786022,0.0022109854000000005,0.0013633256,0.0007974940000000002,4.998,0,0
0.0016729014,0.0006744442,0.0007598614,0.0015259964,0.0025155840000000004,4.999,0,0
0.0014430363999999999,-0.0010507258,-0.0010507626,0.0016007579999999999,0.004079418,5.0,0,0
0.0011389943999999999,-0.0026475238,-0.0023278246000000002,0.0012969700000000002,0.005086302,5.001,0,0
0.001461654,-0.0030619740000000003,-0.0030130708,0.0010376714000000001,0.00447587,5.002,0,0
0.000526352,-0.0036015560000000005,-0.0031311841999999996,0.0007461372600000001,0.003140424,5.003,0,0
-0.000819136,-0.004040598,-0.0026760982,0.0001315352600000001,0.00205774074,5.004,0,0
-0.0008085542,-0.0032635690000000005,-0.0020794022,-0.0005544787399999999,0.00093637674,5.005,0,0
-0.0005198876,-0.0022095238,-0.0014616502,-0.00127374874,0.00016154014000000004,5.006,0,0
-0.0007686076,-0.0012662998,-0.0012013045999999998,-0.0019500601399999999,8.823339999999976e-06,5.007,0,0
-0.0008094826,0.00015331820000000012,-0.0006768545999999998,-0.002502382,-0.00041441666000000004,5.008,0,0
-0.0005194788,0.0007916314,0.0004516674000000001,-0.0028270900000000004,-0.0010610454000000002,5.009,0,0
-5.9240599999999997e-05,0.0007050018000000001,0.0011233094,-0.0030498500000000007,-0.0013666034,5.01,0,0
0.0005323808,0.000839298,0.0011954992000000003,-0.0031055200000000005,-0.0016784508,5.011,0,0
0.0008900568,0.0003046524,0.0011726512,-0.002779222,-0.002704846,5.012,0,0
0.0010428912,-0.0005834516,0.0010051597999999999,-0.0018613759999999999,-0.0035680039999999996,5.013,0,0
0.0011912130000000002,-0.0009354348,0.0006748572,-0.0007086119999999997,-0.0025203219999999998,5.014,0,0
0.0014220250000000002,-0.0011666762,0.0004929616000000001,0.0004108340000000001,-0.0003028859999999998,5.015,0,0
0.0009095476,-0.0015686936,0.0003486244,0.001773716,0.001627326,5.016,0,0
-0.0003195884,-0.001202804,0.00018496820000000002,0.0025644100000000005,0.003635462,5.017,0,0
-0.0014587858,-0.0001288079999999999,2.0073600000000007e-05,0.0024958460000000003,0.005444144,5.018,0,0
-0.0023907694,0.00067421,-5.5640400000000003e-05,0.002462062,0.0050615370000000005,5.019,0,0
-0.0034325274000000005,0.001388106,-0.00010292680000000001,0.0023978800000000002,0.002919555,5.02,0,0
-0.0032724520000000003,0.0023346120000000002,-7.339739999999999e-05,0.0017620422000000002,0.0010253870000000002,5.021,0,0
-0.0012296900000000005,0.0028802059999999997,0.00015264220000000005,0.001128643,-0.000789877,5.022,0,0
0.00030849799999999977,0.00276487,0.0005003122000000001,0.0006286100000000001,-0.002420879,5.023,0,0
0.000992792,0.003010476,0.0010381488,2.0694200000000016e-05,-0.003454482,5.024,0,0
0.0018180699999999998,0.0031567260000000003,0.0019716308,-0.0006411378,-0.0041696500000000004,5.025,0,0
0.00183494,0.00240233,0.0033446708000000004,-0.00081184398,-0.004042174000000001,5.026,0,0
0.001185948,0.0018448420000000002,0.004245382000000001,-0.00011214478000000003,-0.0024099219999999997,5.027,0,0
0.0020766580000000003,0.0021490420000000003,0.004636378000000001,0.00062658222,-0.0007372199999999999,5.028,0,0
0.003425004,0.002460744,0.004891398000000001,0.00112226002,0.0006328559999999998,5.029,0,0
0.0030885792000000002,0.0029195060000000005,0.004191338,0.0012552480200000002,0.002427272,5.03,0,0
0.0022004512,0.0036737840000000003,0.0026522580000000002,0.0009954999999999999,0.0026193906000000003,5.031,0,0
0.0009356912,0.0034422078000000004,0.0005851439999999997,0.0005646592000000001,0.0012940105999999997,5.032,0,0
-0.0011414388,0.0024471928,-0.0021877520000000003,0.00029723320000000006,0.0006122984000000001,5.033,0,0
-0.0025369728,0.0012420488000000002,-0.0044352720000000005,0.00030657920000000003,0.0003534458,5.034,0,0
-0.002702354,-0.0008248232,-0.00493243,0.0006035786,-0.0004157202,5.035,0,0
-0.0027495780000000004,-0.0031075072,-0.0046750228,0.0009859100000000002,-0.0006498508,5.036,0,0
-0.002445594,-0.003981597,-0.0037883924,0.0008300034000000001,-0.0004511202,5.037,0,0
-0.0012821400000000002,-0.004170242,-0.0018871720000000001,0.0001406494000000001,-0.0008285660000000001,5.038,0,0
-0.00030355,-0.004438962,-0.0005043386,-0.0003923066,-0.0007160994000000001,5.039,0,0
0.0007637579999999999,-0.003499688,-0.00019787420000000002,-0.000359714,-0.00011327540000000006,5.04,0,0
0.002151256,-0.0020739558,-0.0002328634,-0.00049083258,-5.546140000000003e-05,5.041,0,0
0.0024044054000000002,-0.0019184938,7.062940000000002e-05,-0.00036103958,-8.078000000000002e-05,5.042,0,0
0.002075106,-0.0021985638,0.0005419390000000001,0.00014349922,0.0002880772,5.043,0,0
0.00180671,-0.0019747318000000002,0.00051014259,5.440521999999998e-05,0.00015582540000000003,5.044,0,0
0.001201676,-0.0020463378000000003,-2.5118099999999247e-06,-0.00032529038,1.8515400000000063e-05,5.045,0,0
0.0014491320000000001,-0.0022587960000000004,-0.00019342180999999992,-0.0007378692,0.0003007518000000001,5.046,0,0
0.0020663906,-0.0016010126000000002,-0.00031832501,-0.0012055108000000002,0.00023779380000000003,5.047,0,0
0.0017045920000000002,-0.0009716326,-0.00095493301,-0.0014714132000000003,0.00014858900000000008,5.048,0,0
0.0015182756000000001,-0.0006833426,-0.0011078466,-0.0013498628000000001,-1.3965199999999946e-05,5.049,0,0
0.0011567728000000002,0.00033789940000000004,-0.0005805328,-0.0013053172000000001,-0.0004726692,5.05,0,0
-0.0002017592,0.0017307294,-0.000507651,-0.0014003192000000002,-0.0006431092000000001,5.051,0,0
-0.0008073892,0.002909674,-0.0005737996,-0.0014381952000000003,-0.0007293552,5.052,0,0
-0.0010779512,0.003855112,-4.601360000000004e-05,-0.0015877136,-0.0008507622000000001,5.053,0,0
-0.0022738428,0.004352424000000001,5.354619999999999e-05,-0.001887616,-0.00044984020000000003,5.054,0,0
-0.0024094340000000002,0.003866618,6.403679999999977e-06,-0.002081698,-0.00017536539999999995,5.055,0,0
-0.0015832900000000002,0.0027567422,0.00029894907999999997,-0.0016423686000000002,-8.713999999999185e-07,5.056,0,0
-0.0015973016,0.0015075682000000002,0.00031420568,-0.0010364304,0.0005789246000000001,5.057,0,0
-0.0009659972,0.00019490419999999988,5.401128000000002e-05,-0.0006478376,0.0008713652000000001,5.058,0,0
0.0006135088000000001,-0.0008199098000000001,-0.00020728392,-8.030579999999999e-05,0.0008177212000000001,5.059,0,0
0.0009042776000000001,-0.0015073918000000003,-0.00046638720000000003,0.0008564242,0.0011604824000000001,5.06,0,0
0.0003774970000000001,-0.001969226,-0.0007996424000000001,0.0017847188,0.001529874,5.061,0,0
0.00020529860000000007,-0.0027133660000000005,-0.00045567640000000016,0.0022367906,0.0015313960000000002,5.062,0,0
-0.0009738418000000001,-0.00322713,0.000378112,0.0027047138,0.0013390594000000002,5.063,0,0
-0.0029347458,-0.003372308,0.0011823340000000002,0.003146682,0.0012591386000000001,5.064,0,0
-0.0039918726,-0.0037126280000000004,0.0017729280000000002,0.002947442,0.0015649626000000002,5.065,0,0
-0.004933404000000001,-0.00396554,0.0020937158,0.002484042,0.0014239326000000001,5.066,0,0
-0.006165994000000001,-0.004573082000000001,0.0022687058000000005,0.001900929,0.0011601774,5.067,0,0
-0.005610378000000001,-0.0038055684,0.0014811838,0.0012982286,0.0013778400000000002,5.068,0,0
-0.003416376,-0.0008702684000000001,0.00014900779999999988,0.0007304704000000001,0.0013420934,5.069,0,0
-0.002046188000000001,0.0012364716,-0.0008302902000000001,-0.0003095136000000001,0.0005585233999999999,5.07,0,0
-0.0012455780000000002,0.0018661876,-0.001317742,-0.0015639376,-0.00028098260000000003,5.071,0,0
0.00046819620000000006,0.0031135110000000002,-0.0019274834000000002,-0.0022350326000000003,-0.0007664014,5.072,0,0
0.0026798662,0.0035518734000000002,-0.0022465394000000002,-0.0027340422000000004,-0.0010964616,5.073,0,0
0.0036723702000000004,0.0015897913999999998,-0.0017840254,-0.0033518580000000005,-0.0010640196,5.074,0,0
0.0036585942000000003,0.00011198939999999998,-0.0013916554,-0.0031651460000000006,-0.0011070918,5.075,0,0
0.0044183822,0.0004615314,-0.0012895294000000003,-0.0022735648000000003,-0.0009492218,5.076,0,0
0.005195494,0.0016730340000000001,-0.0013514211999999999,-0.0009363888000000003,-0.0003166162,5.077,0,0
0.0041133920000000004,0.00230248,-0.0010489980000000002,0.0006048172,9.144800000000005e-05,5.078,0,0
0.002764898,0.0027155960000000002,-0.0006230106,0.0017491312,-0.0003871726,5.079,0,0
0.0028272159999999996,0.003778266,6.027400000000057e-06,0.0024397692,-0.0011329864,5.08,0,0
0.0019365179999999997,0.004820874000000001,0.0003055802,0.0024601930000000003,-0.0015797104,5.081,0,0
0.0006473919999999999,0.004911352000000001,0.0008913854000000001,0.0015917124000000003,-0.002404748,5.082,0,0
-0.0003673320000000001,0.004812676,0.00098843,0.0006387448,-0.003631546,5.083,0,0
-0.0013708040000000002,0.004508842000000001,0.0005334386000000001,8.69488e-05,-0.004950155999999999,5.084,0,0
-0.00074486,0.0017598360000000007,0.0022087726,4.5880000000003023e-07,-0.0057992059999999995,5.085,0,0
0.000734122,-0.0018917259999999998,0.0036558778000000004,0.0009630678,-0.005816420000000001,5.086,0,0
0.0021257460000000004,-0.004475368,0.0031054296,0.0022000564,-0.0052800608,5.087,0,0
0.0034631720000000005,-0.00650897,0.0028005418000000004,0.003118364,-0.004339640400000001,5.088,0,0
0.0037421160000000006,-0.006998269600000001,0.0024042198000000002,0.004276352,-0.0020367864,5.089,0,0
0.0018943319999999999,-0.0050853776000000005,-0.0009191742,0.004829058000000001,0.0011882975999999998,5.09,0,0
-0.0004819180000000001,-0.0037992216000000004,-0.0042080022,0.0039727564,0.0036145656,5.091,0,0
-0.0032346180000000007,-0.0034796836,-0.0062036619999999995,0.0027882518000000005,0.0056220604,5.092,0,0
-0.0057112740000000006,-0.0026730196,-0.008319886,0.0012927278000000003,0.007921324,5.093,0,0
-0.006418218,-0.0027428076,-0.008828045999999999,-0.0008154082,0.009733422,5.094,0,0
-0.006002492000000001,-0.0024133396000000007,-0.0076483656,-0.0029063742000000003,0.010193764000000001,5.095,0,0
-0.003381106000000001,0.0007811244000000001,-0.005263279599999999,-0.004959600600000001,0.009263970000000002,5.096,0,0
0.0008655979999999998,0.005200364400000001,-0.0016906496000000002,-0.006622346,0.006625330000000001,5.097,0,0
0.004060816,0.0081768264,0.0031226104,-0.007302364,0.0027109640000000015,5.098,0,0
0.0063008019999999994,0.010049170000000001,0.007325476400000001,-0.007256066,-0.0013461499999999997,5.099,0,0
0.008219104000000001,0.010347816000000001,0.00985279,-0.006552034000000001,-0.004757798,5.1,0,0
0.0076103920000000005,0.007418942,0.01140313,-0.0045786076,-0.006874108,5.101,0,0
0.004980849400000001,0.0016454420000000004,0.011935030000000001,-0.0020262255999999998,-0.0075056260000000005,5.102,0,0
0.0027241934000000008,-0.0038696579999999998,0.009878192000000001,0.0002126424,-0.007056326000000001,5.103,0,0
0.00019594740000000027,-0.007953934,0.005269344000000001,0.0023011084,-0.0059111020000000005,5.104,0,0
-0.0030640746,-0.010671373999999999,0.00033966400000000037,0.0042586864,-0.004010472000000001,5.105,0,0
-0.0058299366,-0.010818898,-0.0041220760000000006,0.005228788000000001,-0.0015683160000000002,5.106,0,0
-0.007194753999999999,-0.0083936286,-0.008156266,0.005179594,0.001286568,5.107,0,0
-0.007338716,-0.0046562746,-0.010388880000000001,0.004769492,0.00413042,5.108,0,0
-0.0069955700000000004,-0.0008798605999999999,-0.009775802,0.0034778658,0.00619432,5.109,0,0
-0.006499464,0.0024996714000000003,-0.008050808000000001,0.0011653358,0.00716592,5.11,0,0
-0.0049265260000000005,0.0046597374,-0.0060240860000000005,-0.0013661222,0.0068424160000000005,5.111,0,0
-0.0029347220000000007,0.006000422,-0.003635194,-0.0035531722000000003,0.005482631200000001,5.112,0,0
-0.0016608120000000002,0.006065548,-0.0010807960000000002,-0.005620556200000001,0.0034918412,5.113,0,0
7.212600000000016e-05,0.004827929599999999,0.0017815279999999999,-0.006923992000000001,0.0007832431999999997,5.114,0,0
0.002702934,0.0034033875999999997,0.005089294,-0.006908818000000001,-0.0022105828000000003,5.115,0,0
0.004925852,0.0019948495999999997,0.007870672,-0.0061870480000000005,-0.0039793208,5.116,0,0
0.00613238,0.0011402656,0.009304102,-0.005009836,-0.004708896000000001,5.117,0,0
0.00663348,-9.053640000000008e-05,0.009878969999999999,-0.00318004,-0.0055248680000000005,5.118,0,0
0.0059144741999999995,-0.0015175780000000003,0.008788532000000002,-0.00061681,-0.005058262,5.119,0,0
0.004259726199999999,-0.0020117340000000003,0.005087702,0.0018068720000000002,-0.0036016396000000004,5.12,0,0
0.0026953698,-0.0025228220000000005,0.0006952280000000002,0.00393546,-0.0028132896000000003,5.121,0,0
0.0011144339999999999,-0.0037991380000000005,-0.002105676,0.006026768,-0.0019509,5.122,0,0
-0.00041916400000000003,-0.0037855460000000007,-0.004426086,0.007167752,-0.0005190500000000001,5.123,0,0
-0.0010985362000000003,-0.0024757164000000008,-0.006460848,0.007090366000000001,0.00030230799999999994,5.124,0,0
-0.0014760422000000002,-0.0014909504,-0.006453186,0.006548596,0.0008568316,5.125,0,0
-0.0025606238000000004,0.0002149716,-0.005469138,0.005604148,0.0021087056,5.126,0,0
-0.003245628000000001,0.0022485435999999998,-0.004935404,0.003915228200000001,0.002653754,5.127,0,0
-0.0026978192000000002,0.0031667976,-0.004000539,0.0022394854000000004,0.0024876494000000003,5.128,0,0
-0.0017811072000000002,0.0031908128,-0.002633873,0.0007656754000000003,0.0023810742000000005,5.129,0,0
-0.0006896152000000003,0.0028285108,-0.001060213,-0.0008466966000000001,0.0016989042,5.13,0,0
0.0011024128,0.0015498447999999997,0.0009130949999999998,-0.0021662346,-0.00015041179999999998,5.131,0,0
0.0026939308,-0.00034087319999999996,0.002894065,-0.0029730128,-0.0021988558,5.132,0,0
0.00366549,-0.0014370532000000003,0.004621602,-0.0030140260000000004,-0.0032595012000000002,5.133,0,0
0.0041585680000000005,-0.002267742,0.005903358,-0.0023999966000000004,-0.003950376,5.134,0,0
0.0035173120000000003,-0.0037711840000000003,0.006377514,-0.0010927165999999999,-0.004392642,5.135,0,0
0.0023525300000000002,-0.0046933,0.005876138,0.0007857714,-0.004064332,5.136,0,0
0.0015115404,-0.004401934000000001,0.00471777,0.0025167014000000002,-0.0030966580000000004,5.137,0,0
0.0003862582000000002,-0.003993459800000001,0.003254737800000001,0.0039371374,-0.0014879560000000001,5.138,0,0
-0.0012083818,-0.0029046578000000004,0.0020400662,0.00453407,0.0009231979999999999,5.139,0,0
-0.0027021338,-0.0007040358000000002,0.0007836962000000001,0.004233880000000001,0.003270744,5.14,0,0
-0.004787697800000001,0.0010561222000000001,-0.0007505038000000001,0.0036428560000000003,0.00512199,5.141,0,0
-0.0066711662,0.0022475022000000002,-0.0019581618,0.0025047282,0.006651242,5.142,0,0
-0.0071044160000000006,0.002828122,-0.0028752296,0.0008190741999999998,0.006997484,5.143,0,0
-0.006817462000000001,0.0024081376,-0.003450774,-0.0006912258000000001,0.005770478,5.144,0,0
-0.0051649048,0.0022140936,-0.0034847160000000005,-0.0019276998000000002,0.004143079,5.145,0,0
-0.0017958568,0.0026716856000000002,-0.003079618,-0.0029268198000000005,0.002549201,5.146,0,0
0.0016383531999999998,0.0026728316,-0.002524988,-0.0033459400000000004,0.0003665049999999998,5.147,0,0
0.0041231712,0.0025565875999999997,-0.001832347,-0.0031925540000000002,-0.002145773,5.148,0,0
0.0058045292,0.0025896312,-0.0007356970000000001,-0.0027149020000000004,-0.004026741,5.149,0,0
0.0063974439999999995,0.0016417412,0.0006758869999999999,-0.0018278176000000002,-0.005058302000000001,5.15,0,0
0.005728146000000001,-3.8827999999999216e-06,0.002187115,-0.0007695336000000001,-0.005555132000000001,5.151,0,0
0.003812797600000001,-0.0016799308,0.003240199,-7.881339999999998e-05,-0.005306156000000001,5.152,0,0
0.0011673056000000002,-0.0024971508000000003,0.00352587,0.0005065666000000001,-0.00442466,5.153,0,0
-0.0009626983999999999,-0.0023347906000000004,0.003151642,0.0012487946,-0.0031809660000000003,5.154,0,0
-0.0024449444000000002,-0.0015086485999999998,0.002156117,0.0018000922,-0.0015274820000000001,5.155,0,0
-0.0039592804,-0.0003380226,0.0006096950000000002,0.0019833802,0.000176032,5.156,0,0
-0.00517482,0.0010735534000000002,-0.0009367290000000001,0.0020371540000000002,0.0016710040000000002,5.157,0,0
-0.0046388128,0.0037526794000000002,-0.002295825,0.0017129948,0.003045702,5.158,0,0
-0.0030874407999999997,0.0069294280000000005,-0.004056177,0.0009739908000000002,0.003744288,5.159,0,0
-0.001995087,0.009195802,-0.005378036,-0.00014220720000000017,0.00338368,5.16,0,0
-0.0005955450000000001,0.009862280000000001,-0.005657916000000001,-0.0017658092000000002,0.0025905722,5.161,0,0
0.0006518849999999999,0.00885346,-0.00527747,-0.0030161832,0.0021535302,5.162,0,0
0.0004412237999999999,0.005429828,-0.0040921776,-0.0038135820000000003,0.0014119596000000002,5.163,0,0
-0.00033723340000000007,-0.0002448720000000006,-0.0024104236000000003,-0.00439575,-1.8866400000000006e-05,5.164,0,0
-0.0008426152000000002,-0.006306712000000001,-0.0007849356000000003,-0.004686086,-0.0013333324000000001,5.165,0,0
-0.0011297242,-0.010882064,0.0005295963999999999,-0.00453276,-0.0025739346,5.166,0,0
-0.0012452502000000001,-0.013043292000000001,0.0012187364,-0.004132656,-0.0040619386,5.167,0,0
-0.0012991982,-0.013644104,0.001565566,-0.0037101120000000002,-0.004778936,5.168,0,0
-0.0012326926,-0.012378074000000001,0.0018436720000000002,-0.002857502,-0.003715586,5.169,0,0
-0.0009823376,-0.00957906,0.0018199000000000002,-0.0019166959999999999,-0.0018614280000000005,5.17,0,0
-0.00013086260000000002,-0.005958888000000001,0.001736002,-0.000790598,0.000703964,5.171,0,0
0.0016093774,-0.00186565,0.0015236604000000002,0.00016152200000000004,0.003243958,5.172,0,0
0.0034046894,0.0019845540000000004,0.0006805284,0.00038636200000000007,0.00431906,5.173,0,0
0.004774077,0.005444504000000001,-0.0005055436,0.0006205100000000001,0.004465086,5.174,0,0
0.00540766,0.007861398,-0.0013636156,0.001041326,0.003716845200000001,5.175,0,0
0.0045622052,0.008920998000000001,-0.0019972236,0.000527964,0.0023052432000000003,5.176,0,0
0.0028016272,0.008489862,-0.002360544,-0.000355016,0.0018609372,5.177,0,0
0.0010284291999999998,0.00668167,-0.002297724,-0.0003050237999999999,0.0025893452,5.178,0,0
-0.00032650360000000006,0.0041147580000000005,-0.0019148920000000003,-0.0004878246,0.0028283572,5.179,0,0
-0.0009997966,0.001821272,-0.0013224936,-0.0010543698000000002,0.002707126,5.18,0,0
-0.0007942342000000001,-3.8601999999999994e-05,-0.0004109596,-0.0010830998,0.0026320336,5.181,0,0
0.0001716758,-0.0015988120000000002,0.0009776904,-0.0006987086000000001,0.0016190914000000002,5.182,0,0
0.0011170878,-0.0019658486,0.0023984824,-0.0005464348,-0.00012024259999999994,5.183,0,0
0.0015218666,-0.0016021704000000003,0.0036951683999999997,-0.00043280359999999993,-0.0014094766,5.184,0,0
0.0019859276,-0.0013858544000000003,0.0046131240000000006,0.00023029759999999995,-0.0023337006000000004,5.185,0,0
0.0019464206000000001,-0.0009721636,0.004537556,0.0012154656,-0.0036503361999999998,5.186,0,0
0.0013603174000000001,-0.0006210416,0.003717142,0.0022718584,-0.00486672,5.187,0,0
0.0013317494,-0.0011834710000000002,0.003177678,0.0030722604000000004,-0.005426748,5.188,0,0
0.0013175014000000001,-0.0017421932000000002,0.0023304164,0.0038830280000000006,-0.005056349999999999,5.189,0,0
0.0013980834,-0.0016293370000000002,0.0008494624000000001,0.004476290000000001,-0.0029146380000000006,5.19,0,0
0.0016935108000000001,-0.0017376998000000002,-0.00021873960000000012,0.004612156,0.0001590859999999999,5.191,0,0
0.0015725162,-0.0017975378000000001,-0.0012423256,0.004346162000000001,0.00270351,5.192,0,0
0.0006380182,-0.0013365718,-0.0024253076,0.0038566500000000005,0.004662032000000001,5.193,0,0
-0.0006143937999999999,-0.0011334218,-0.00319839,0.0030976136,0.00516063,5.194,0,0
-0.0019282998,-0.0009768746,-0.003689468,0.0016106816000000003,0.0037684312000000005,5.195,0,0
-0.0029851278,-0.00013071860000000003,-0.0036948880000000003,0.00014459759999999999,0.0017281792000000001,5.196,0,0
-0.0032125240000000005,0.0007708954,-0.002607048,-0.0009924524000000001,-4.6152800000000206e-05,5.197,0,0
-0.0026691328000000005,0.0010675785999999998,-0.001459334,-0.0015261964000000002,-0.0015639328,5.198,0,0
-0.0016580846,0.0007494266,-0.00029645400000000014,-0.0014769640000000003,-0.0026763108,5.199,0,0
-0.0007571126000000001,0.0011400732,0.001440724,-0.0010048762000000003,-0.00304106,5.2,0,0
-0.00037897660000000004,0.0019904172,0.002925652,-0.00034575080000000014,-0.0030292780000000003,5.201,0,0
-0.0005664786,0.0023992552,0.0038484900000000004,-4.305800000000077e-06,-0.002957894,5.202,0,0
-0.0009554598,0.004027157999999999,0.004469054,5.258759999999995e-05,-0.0024893100000000002,5.203,0,0
-0.0015347,0.0070254359999999995,0.005534762,0.0001810236,-0.0018986560000000003,5.204,0,0
-0.002101658,0.008575186,0.006348724,0.00024074619999999998,-0.0017285460000000003,5.205,0,0
-0.002733314,0.007387414,0.00635266,-0.00012736319999999998,-0.0011257300000000004,5.206,0,0
-0.003105302,0.005231986,0.0056474,2.8015800000000048e-05,3.076000000000001e-05,5.207,0,0
-0.0023595,0.0012793920000000003,0.0029339120000000003,9.900660000000005e-05,0.0009703400000000001,5.208,0,0
-0.0011900519999999998,-0.004635788,-0.001178288,-0.0005304854,0.0018980180000000002,5.209,0,0
-0.0007140995999999998,-0.009278946,-0.00462135,-0.0007023502,0.0026187580000000005,5.21,0,0
-1.5203600000000025e-05,-0.011377996,-0.0075153600000000004,-0.00040529620000000004,0.0024743408,5.211,0,0
0.0008398940000000002,-0.011575526,-0.009547974,-0.0006303902000000001,0.0016998818000000001,5.212,0,0
0.0003472118,-0.00972687,-0.008750198,-0.0010072324,0.0005899938000000001,5.213,0,0
-0.00043179400000000005,-0.006166236800000001,-0.0062379562,-0.0011683104000000002,-0.0005611202,5.214,0,0
-0.00042196320000000004,-0.0033646302,-0.004008006200000001,-0.0011727168000000001,-0.0011614702000000002,5.215,0,0
-0.0001637466,-0.0013765460000000002,-0.0018952096000000003,-0.0008555888000000003,-0.0014974710000000002,5.216,0,0
2.594779999999999e-05,0.000353048,-0.00019234380000000007,-0.00048434900000000013,-0.0015818656000000002,5.217,0,0
0.000439866,0.000751412,0.0008679942000000001,0.00043066899999999995,-0.0014843536,5.218,0,0
0.0010795698000000001,0.00017483679999999994,0.0010417412000000002,0.0014068890000000001,-0.0012687756000000002,5.219,0,0
0.0015666346000000001,-0.0003966358000000001,0.0006702054000000001,0.0017400538,-0.0010046676,5.22,0,0
0.002272066,-0.0005417038,0.000581727,0.0017867178000000002,-0.0010777256,5.221,0,0
0.0032645060000000004,-0.0004891737999999999,0.00015570519999999995,0.0017180292000000001,-0.0009973138000000002,5.222,0,0
0.003717474,0.0002688502000000001,-0.0006591908000000001,0.0011124092000000003,-0.0007281702000000001,5.223,0,0
0.0036763860000000002,0.0018213122000000001,-0.0011624776,0.00030783320000000005,-0.0006271892000000001,5.224,0,0
0.002965282,0.0029983022000000005,-0.0009194716000000001,-0.00013266579999999997,-0.00048591140000000003,5.225,0,0
0.0013120379999999997,0.003940124,-0.0005864938,-0.0006090332,0.00031268659999999994,5.226,0,0
-0.0006218960000000003,0.004579212,-0.00044692500000000014,-0.0010104784000000001,0.0008319403999999999,5.227,0,0
-0.002316716,0.0040155878,0.000597055,-0.0013420504000000002,0.0005288247999999998,5.228,0,0
-0.003200772,0.0032053318,0.001582067,-0.0016132644000000002,0.0006705902499999999,5.229,0,0
-0.0029917266000000003,0.0027465278,0.0014695388,-0.0017864314000000001,0.00104488245,5.23,0,0
-0.0023863265999999996,0.0012607257999999997,0.0015218868,-0.001833584,0.0006947276499999999,5.231,0,0
-0.0020071206,-0.0008964842000000001,0.0022750640000000003,-0.0016523539999999998,0.00026084584999999997,5.232,0,0
-0.0012438097999999999,-0.0017793800000000001,0.0023502560000000002,-0.001496756,0.00070937205,5.233,0,0
-0.00028163980000000003,-0.0020857272000000004,0.00220186,-0.001405848,0.00072201964,5.234,0,0
0.0002022768,-0.0025305458,0.002912376,-0.0011479894000000002,0.00010101023999999997,5.235,0,0
0.0009748988000000001,-0.0004452798000000001,0.002416586,-0.0009037718000000001,0.00020059304,5.236,0,0
0.0022277268000000005,0.0038184282,0.0004371379999999999,-0.0005805920000000002,0.00075075684,5.237,0,0
0.002739102,0.0064522182,-0.0009594360000000003,0.0004226799999999999,0.0012626166399999999,5.238,0,0
0.002423128,0.0072828474,-0.001728418,0.001724984,0.0016162766,5.239,0,0
0.002237143,0.007574067800000001,-0.002790484,0.0022964634,0.0019512840000000002,5.24,0,0
0.001432279,0.005502961800000001,-0.0028655738,0.0021845064,0.0020399140000000003,5.241,0,0
-0.0005708470000000002,0.0005813138,-0.0013431298,0.0019096661999999998,0.0016365826000000001,5.242,0,0
-0.0017183350000000003,-0.0032596202000000005,-0.0005100138,0.0008719021999999998,0.0012135268,5.243,0,0
-0.0013675890000000007,-0.0046699022,-0.0005092158,-0.0005923498000000001,0.0015029468,5.244,0,0
-0.0010657220000000003,-0.0050468100000000005,-0.0004411978,-0.0016868538000000001,0.0020317568000000003,5.245,0,0
-0.0008385502000000003,-0.004226902000000001,-0.0004397264,-0.0023345804000000003,0.00173336758,5.246,0,0
1.3563799999999967e-05,-0.0024386601999999997,-0.00026896240000000006,-0.0022665626,0.0011613129800000003,5.247,0,0
0.0006232758,-0.0011301082000000002,0.0003161636,-0.0015692686000000002,0.0005165527800000001,5.248,0,0
-0.0001746262,-0.0009547322000000001,0.0010865796,-0.0007453286,-0.0005356252199999998,5.249,0,0
-0.0010896582,-0.0009577522,0.0014025602,4.7767399999999884e-05,-0.00107339322,5.25,0,0
-0.0011411298000000001,-0.0015757322000000001,0.0014079566000000003,0.0009712154,-0.0008760100000000001,5.251,0,0
-0.0007931246000000001,-0.002309136,0.0011585952000000002,0.0010508050000000001,-0.000781842,5.252,0,0
-0.0008164446000000001,-0.002312316,0.0006036725200000001,0.00075352194,-0.00025919699999999996,5.253,0,0
-0.0010821685999999999,-0.002233578,4.368271999999999e-05,0.00092522394,0.00043054300000000003,5.254,0,0
-0.0005857270000000001,-0.0022337000000000004,-0.00018581388,0.0009802559400000001,0.00044811700000000005,5.255,0,0
-0.0003418668000000001,-0.002158962,-0.00040847588,0.00126962394,0.0004160404,5.256,0,0
-0.0009282600000000001,-0.0013391988,-0.00105921048,0.00189279494,0.0004955844,5.257,0,0
-0.001723762,-0.0007170912,-0.0014536598,0.0020969120000000003,8.531539999999995e-05,5.258,0,0
-0.00190112,-0.0003049884,-0.001768754,0.0015769814,-0.0009042906000000001,5.259,0,0
-0.0016576976000000003,0.0007351095999999999,-0.002112932,0.0012065516000000004,-0.0019150406,5.26,0,0
-0.0014969599999999999,0.0016538616000000002,-0.0017789464000000001,0.0005986488000000001,-0.0028519039999999997,5.261,0,0
-0.0013467280000000002,0.0020000664,-0.0010193164,-0.00047079120000000004,-0.002892918,5.262,0,0
-0.0007925800000000001,0.0028554548,-0.00026244239999999986,-0.0008197296000000001,-0.0017428860000000001,5.263,0,0
0.000929306,0.004256778,0.0006050056,-0.000442397,-0.0004093300000000002,5.264,0,0
0.002686904,0.004848444,0.0014351036,-0.0002494606,0.0004667562,5.265,0,0
0.00363104,0.0050148580000000005,0.0017764360000000002,-0.00025077080000000004,0.0012152521999999999,5.266,0,0
0.004398552,0.0044503106,0.0016728094000000003,0.0002883798,0.0015528361199999999,5.267,0,0
0.005161918,0.0027338325999999996,0.0014901288000000001,0.0007216602000000001,0.00069169572,5.268,0,0
0.0045074,0.0005008085999999998,0.0012068244000000001,0.0006812922000000001,-9.452688000000003e-05,5.269,0,0
0.0028327100000000004,-0.0014383654000000002,0.000892926,0.0005558132,-0.00047604108,5.27,0,0
0.0019048260000000003,-0.0028515134,0.001003364,0.00046528539999999993,-0.00111574108,5.271,0,0
0.0015408718000000001,-0.003301666,0.0013114486,7.259479999999988e-05,-0.002042547,5.272,0,0
0.0011432036000000002,-0.002354289,0.0010635192,-0.0006526032000000001,-0.0027463266000000005,5.273,0,0
0.00032248560000000006,-0.0013376610000000002,0.0007827718,-0.0009570108000000002,-0.002876758,5.274,0,0
-0.00046076640000000007,-0.0008611632,0.0010770082,-0.0005805624000000001,-0.0022976200000000002,5.275,0,0
-0.0012749444,-0.00019276260000000012,0.0009622962000000001,-4.065760000000008e-05,-0.0008559940000000003,5.276,0,0
-0.0021943742000000003,0.0008069813999999999,0.0010207882,0.0004173144,0.00032698799999999995,5.277,0,0
-0.00256222,0.0012547484000000001,0.0020644442000000004,0.0007582045999999999,0.0011069066000000002,5.278,0,0
-0.0025245700000000003,0.0014765423999999999,0.0026951900000000005,0.0006156362,0.0015463622000000002,5.279,0,0
-0.0024955340000000006,0.0018477966000000003,0.002378424,-4.255799999999886e-06,0.0009605462,5.28,0,0
-0.0020718480000000003,0.0016704822000000003,0.0021148634,-0.0007981958000000001,5.965439999999993e-05,5.281,0,0
-0.0011045686000000002,0.0010101556000000002,0.0017414912,-0.0011032096000000002,-3.264060000000003e-05,5.282,0,0
-0.00034962460000000003,0.0003971282,0.00039684319999999993,-0.0007859238000000001,8.855359999999999e-05,5.283,0,0
0.00031502140000000005,-0.00016395579999999997,-0.0008624488,-0.0003238198,0.000265494,5.284,0,0
0.0008970674,-0.0010243938,-0.0016656848,0.00022294820000000003,0.0007344902,5.285,0,0
0.0010522994,-0.00165171,-0.0024623602,0.0007741844000000001,0.0008730802,5.286,0,0
0.0009871666,-0.0017119174,-0.002892254,0.0006776042,0.0009496372,5.287,0,0
0.0008403766,-0.00223776,-0.0026055656,6.189419999999996e-05,0.0011460384,5.288,0,0
0.0006548656000000001,-0.0031538120000000006,-0.0016203416000000002,-0.0006846218000000001,0.0014395484,5.289,0,0
0.0005095874000000001,-0.00309493,-0.0007055564,-0.0013953518,0.0015974682,5.29,0,0
0.00044747280000000003,-0.0025393136000000003,-3.4288400000000036e-05,-0.0017240386,0.001389777,5.291,0,0
0.00027002940000000005,-0.002096052,0.0012175616,-0.0015530462,0.0009782912,5.292,0,0
4.197640000000001e-05,-0.0010198800000000001,0.0025940752,-0.001227227,0.0001666352,5.293,0,0
-0.0003571046,0.00026972200000000007,0.0032773972,-0.001082491,-0.0014470548,5.294,0,0
-0.0009276744,0.001211204,0.004118838,-0.001170179,-0.0029584868,5.295,0,0
-0.0011093818,0.0019080556000000003,0.00475471,-0.0017576144,-0.0038978178,5.296,0,0
-0.001350521,0.0016586874000000002,0.00419845,-0.0021581207999999998,-0.004695334,5.297,0,0
-0.001728808,0.0009132493999999999,0.0024994659999999997,-0.0018872499999999998,-0.004315153600000001,5.298,0,0
-0.0013210530000000002,0.000663817,-0.000563116,-0.001167288,-0.0027047896000000006,5.299,0,0
-0.000762838,0.00032591580000000003,-0.004599302,-0.00022961200000000008,-0.0007855156000000001,5.3,0,0
-0.00084387,-0.00039892620000000004,-0.007621354,0.0007760800000000001,0.0013806303999999998,5.301,0,0
-0.0006553908,-0.0003708992,-0.008996364,0.0013973486,0.0034850464000000005,5.302,0,0
-0.0004090996,0.0006019908000000001,-0.008868618000000002,0.0015662186,0.00452165,5.303,0,0
-0.0008161846000000001,0.0014607992,-0.006518331400000001,0.0013788106,0.004368854,5.304,0,0
-0.0009255456,0.0018987224000000004,-0.0030615954,0.0009684001000000002,0.0035275289999999997,5.305,0,0
-0.0006753958000000001,0.0021989536000000002,-0.00020997539999999975,0.0008249677000000001,0.002154143,5.306,0,0
-0.000691885,0.0017941892000000006,0.0011743026,0.0005712395,0.000630847,5.307,0,0
-0.0007797022,-0.0009211927999999998,0.0020237826,8.26795e-05,-0.000583129,5.308,0,0
-0.0010719762000000002,-0.0047175168,0.0021638580000000003,-0.00024307690000000004,-0.0009163282,5.309,0,0
-0.0016662382,-0.0073558188,0.0005545260000000001,-0.00018532420000000002,-0.0002914072,5.31,0,0
-0.001355876,-0.008873638,-0.0010373279999999997,8.195220000000006e-05,0.00045289880000000003,5.311,0,0
-4.99999999999199e-08,-0.00926854,-0.0019270939999999999,0.0005800158,0.0008601362000000001,5.312,0,0
0.0008453620000000002,-0.007617314000000001,-0.002774532,0.0011664898,0.0009417221999999999,5.313,0,0
0.0014364428600000005,-0.004807092800000001,-0.0028493880000000004,0.0018327902,0.0003070534000000001,5.314,0,0
0.0022554402600000003,-0.0026032674000000004,-0.001614869,0.00210578,-0.0008005626,5.315,0,0
0.0020888742600000004,-0.00013384539999999998,-0.00028335039999999995,0.0018482566000000001,-0.0013350172,5.316,0,0
0.00075895486,0.0028738726,0.0007471936,0.0017318346,-0.0013807046,5.317,0,0
0.00011721486,0.0059601606,0.0017597736000000003,0.0015621946000000002,-0.0013169846,5.318,0,0
7.405519999999997e-05,0.009614659400000001,0.0023194856000000002,0.0012770906000000002,-0.0007134094,5.319,0,0
-0.0005347542,0.013565454000000001,0.0027627606000000006,0.0008034793999999999,0.00014926860000000002,5.32,0,0
-0.0007401276000000001,0.016291820000000002,0.0033902060000000006,0.00018429479999999994,0.0006827911999999999,5.321,0,0
-0.00037468820000000004,0.016656820000000003,0.003941268,-0.0005857492000000002,0.00070613666,5.322,0,0
-0.0004866870000000001,0.013820929000000001,0.003847194000000001,-0.0014837232000000002,0.0006804804599999999,5.323,0,0
-0.0007371162000000002,0.007556449,0.003034136,-0.0021249512,0.00086241926,5.324,0,0
-0.00028327740000000005,-0.0010625710000000004,0.002256706,-0.0021205316000000004,0.0004061628599999999,5.325,0,0
-8.405860000000004e-05,-0.009868231000000002,0.0011069679999999998,-0.0018279956000000002,-0.00034266114000000005,5.326,0,0
0.00030912340000000004,-0.015261291,-0.0009658560000000001,-0.0016047276,-0.00023572880000000005,5.327,0,0
0.0015911422,-0.016674792,-0.002476546,-0.0012577936,0.00037745539999999993,5.328,0,0
0.0025960082,-0.015039258000000002,-0.002895462,-0.0012877416,0.0004779913999999999,5.329,0,0
