bandpass 1,bandpass 2,bandpass 3,bandpass 4,bandpass 5,time,onset,mark
-0.003816124,0.001737602,-0.00552192,-0.0041443520000000005,-0.00042508700000000005,6.244,0,0
-0.005840464,-0.0021455580000000005,-0.011271980000000001,-0.0053727160000000005,-0.001043219,6.245,0,0
-0.007646202,-0.0006825120000000001,-0.013426080000000002,-0.006615706000000001,-0.001429039,6.246,0,0
-0.0069496060000000005,0.0041875079999999995,-0.016394934,-0.00577461,-0.0013396678,6.247,0,0
-0.0064910720000000005,0.011196625999999998,-0.010600334000000003,-0.004623134,-0.0011648983999999999,6.248,1,1
-0.0053071196,0.018779746,6.748599999999985e-05,-0.0035586358,-0.0009480256000000001,6.249,0,0
-0.0032339808000000003,0.024809046,0.007940166,-0.0020250398000000005,-0.0004084212,6.25,0,0
-0.0013559462000000003,0.02578438,0.011852446,-0.0004538838000000001,3.426700000000001e-05,6.251,0,0
0.0005221458,0.019569519999999997,0.011337874,0.0005388322,1.4877400000000001e-05,6.252,0,0
0.0027068658000000004,0.012058844,0.006822623999999999,0.0013839122,-0.00027748940000000004,6.253,0,0
0.0040556534,0.006386764000000001,0.0031171579999999996,0.002050876,-0.0005331264,6.254,0,0
0.0045401466,0.0016655840000000016,0.0006587000000000001,0.002010182,-0.0005337954,6.255,0,0
0.0050122660000000005,-0.0019218699999999998,-0.002882254,0.0018060202000000003,-0.000518243,6.256,0,0
0.005114344000000001,-0.0026126279999999997,-0.006710608000000001,0.0015456250000000001,-0.0003499298000000001,6.257,0,0
0.004597810000000001,-0.001468038,-0.009892998,0.0011646904,-0.00013464580000000002,6.258,0,0
0.0039569340000000005,-0.00035797759999999987,-0.013455072000000002,0.0008425084000000001,0.00026023180000000004,6.259,0,0
0.00343816638,9.908240000000047e-05,-0.0144715,0.0006942564,0.00037343740000000004,6.26,0,0
0.00302043918,-0.0008290235999999997,-0.008909926,0.0008896422,-0.0001511372,6.261,0,0
0.00260222118,-0.0051781056,-0.0002297659999999993,0.0012565754,-0.000644808,6.262,0,0
0.00176692518,-0.0152197996,0.007433813999999999,0.00131065,-0.0011393310000000002,6.263,0,0
0.00147337118,-0.0228951,0.013445298000000001,0.0010228582,-0.0017812370000000002,6.264,0,0
0.0018230148,-0.02257866,0.015700383999999998,0.0009515386000000001,-0.0018447944,6.265,0,0
0.001970626,-0.019089802,0.013511412,0.0007597612000000001,-0.0010933344000000002,6.266,0,0
0.002199968,-0.008972442,0.011172212,0.0003395342,-0.00029604439999999995,6.267,0,0
0.0025084020000000003,0.009073118,0.010938692,0.0003842092,0.00047161360000000005,6.268,0,0
0.0028614260000000002,0.025955618,0.009331418000000001,0.000583342,0.0011795816,6.269,0,0
0.002982132,0.03617669800000001,0.005136578000000001,0.0005159394,0.0015926500000000001,6.27,0,0
0.0023920440000000003,0.038459860000000005,0.0006832500000000003,0.00030111140000000004,0.001957372,6.271,0,0
0.00109637,0.026354660000000005,-0.0031529919999999994,7.327720000000002e-05,0.002385106,6.272,0,0
-0.00015838599999999994,0.0016493000000000028,-0.004923906,3.0124800000000027e-05,0.0027432660000000003,6.273,0,0
-0.001638342,-0.01612632,-0.003000875999999999,0.0003559038000000001,0.0029208280000000003,6.274,0,0
-0.003102312,-0.017156920000000003,0.0005683320000000002,0.000742042,0.0027089084000000005,6.275,0,0
-0.0030098600000000005,-0.0022660600000000003,0.001019692,0.000900414,0.0020050562000000004,6.276,0,0
-0.0027300960000000004,0.01621346,-0.0025866659999999996,0.0011012174,0.0011949934,6.277,0,0
-0.00350648,0.01744654,-0.009097232,0.0009812156000000001,0.000499822,6.278,0,0
-0.003986792,0.0029645400000000016,-0.016826052,0.0005174582,0.00019694060000000004,6.279,0,0
-0.003628076000000001,-0.015982599999999996,-0.0215158,-3.960540000000001e-05,0.00030081020000000006,6.28,0,0
-0.004026662,-0.04903324,-0.020642630000000002,-0.000649234,0.00020171680000000006,6.281,0,0
-0.004621448000000001,-0.08131648,-0.011003830000000003,-0.0011423682,0.00037810200000000006,6.282,0,0
-0.004240092,-0.07519512,0.0036874099999999995,-0.0012131082000000001,0.0009184134,6.283,0,0
-0.004273198000000001,-0.04951072000000001,0.01385919,-0.0009597568,0.0009891848,6.284,0,0
-0.004424484,-0.03193034000000001,0.018811510000000004,-0.00021347520000000004,0.0007127348,6.285,0,0
-0.004135942,-0.01010738,0.019671266,0.0014103208000000001,0.0004456744,6.286,0,0
-0.0031940225999999997,0.019548540000000003,0.012166886,0.0026811748,-0.00028745600000000006,6.287,0,0
-0.0017261805999999997,0.04277328,-0.00014139399999999955,0.003493768,-0.0015927900000000002,6.288,0,0
-0.00010691260000000006,0.0538581,-0.006559022,0.004165332,-0.002606824,6.289,0,0
0.0014473094,0.05643072,-0.006745158,0.004192952,-0.002938284,6.29,0,0
0.0025264514,0.05127334,-0.00475095,0.0036480700000000002,-0.0025429259999999996,6.291,0,0
0.0027379960000000004,0.027327979999999995,-0.0016352280000000003,0.0030381142,-0.00192263296,6.292,0,0
0.0021063814,-0.007886400000000005,0.0019254720000000001,0.0020228182,-0.0011318169600000002,6.293,0,0
0.0029236414000000004,-0.023571640000000005,0.004014776,0.0006913681999999998,-0.00016305916000000002,6.294,0,0
0.005043145400000001,-0.019354620000000003,0.004456400000000001,5.2327800000000004e-05,0.00041542484,6.295,0,0
0.006562203400000001,-0.007012960000000006,0.007140466000000001,-0.0005260940000000001,0.00072830484,6.296,0,0
0.0072795374,0.017296199999999998,0.012069004000000001,-0.0010933762000000001,0.0009323278,6.297,0,0
0.0072499496000000005,0.04281696,0.016689644000000003,-0.0014528182,0.0011119006,6.298,0,0
0.0048573516,0.045215540000000005,0.018777268,-0.0021456042,0.0010833998,6.299,0,0
-0.00045100839999999984,0.025781180000000004,0.014428680000000001,-0.0032836758,0.0008299157999999999,6.3,0,0
-0.0055644484,0.004516660000000003,0.003461220000000001,-0.004197086,0.0005529656,6.301,0,0
-0.008720164400000001,-0.009329760000000001,-0.0101277,-0.004333572,-7.024439999999993e-05,6.302,0,0
-0.009793874000000001,-0.01782442,-0.02305898,-0.004333622,-0.0008335192,6.303,0,0
-0.009530356,-0.021677420000000003,-0.03036338,-0.004128382,-0.001051287,6.304,0,0
-0.008158068000000001,-0.01908702,-0.02967022,-0.0034953240000000006,-0.0012617750000000001,6.305,0,0
-0.005134089999999999,-0.015051740000000001,-0.0227311098,-0.0031700400000000003,-0.0015762768,6.306,0,0
-0.001609366,-0.01131885,-0.0115780098,-0.003111088,-0.0009323348000000001,6.307,0,0
0.0005625080000000002,-0.00580899,-0.0011692898000000003,-0.00212876,-1.8852800000000085e-05,6.308,0,0
0.00202314,-0.0024425102000000007,0.0052733322000000004,-0.000655994,0.0005586439999999999,6.309,0,0
0.004001326,-0.0034125102000000006,0.0085606922,0.0004302020000000002,0.00133093,6.31,0,0
0.004868816,-0.0053852502,0.008315932,0.0018078120000000002,0.0017299616,6.311,0,0
0.004321182,-0.008384166200000001,0.0048992186000000005,0.002791888,0.0015532874000000001,6.312,0,0
0.003829972000000001,-0.011525146200000001,0.0018493276,0.0027101240000000004,0.0014814774000000003,6.313,0,0
0.0031888800000000003,-0.010845860000000002,0.0012150716,0.0025329500000000004,0.0014230314,6.314,0,0
0.0018000240000000003,-0.007286506,0.0028488916,0.00252827,0.0012271274,6.315,0,0
0.0006706930000000002,-0.004419542,0.0045047156000000005,0.002191848,0.0011985956,6.316,0,0
-2.177399999999993e-05,-0.003233344,0.005017123,0.001940576,0.0010507758000000002,6.317,0,0
4.1496000000000024e-05,-0.0032316040000000003,0.005878323999999999,0.001932476,0.000972567,6.318,0,0
0.00150665,-0.003457658,0.0057783800000000005,0.001583179,0.0007414090000000001,6.319,0,0
0.00333068,-0.001346698,0.0045275160000000005,0.0011175032,0.0002558088,6.32,0,0
0.004541209,0.0035670380000000007,0.00356418,0.0008510414,4.43582e-05,6.321,0,0
0.004854932,0.010532626,0.001926472,0.0003077634,-0.00027049979999999995,6.322,0,0
0.0036817720000000007,0.017968046,0.0010002671999999998,-0.0005643466000000001,-0.000719237,6.323,0,0
0.0010529280000000003,0.023918554,0.0021422452,-0.0010291936,-0.001393273,6.324,0,0
-0.001454782,0.027389040000000003,0.0023528012,-0.0013792458000000001,-0.0022028288000000003,6.325,0,0
-0.00361696,0.026906020000000003,0.0033930192,-0.0018110980000000001,-0.0027357,6.326,0,0
-0.004828124,0.026894480000000005,0.0068382132,-0.002157098,-0.002641046,6.327,0,0
-0.0036850520000000007,0.026944060000000002,0.006265856,-0.0022462080000000004,-0.0023783520000000002,6.328,0,0
-0.0010260999999999996,0.022390302,0.0019872560000000006,-0.001869004,-0.0018989057200000004,6.329,0,0
0.0009151620000000004,0.024447962000000004,-0.001082796,-0.0015255986,-0.0006960557199999999,6.33,0,0
0.0018152090000000004,0.032601022,-0.005429192,-0.001298237,0.00032775428,6.331,0,0
0.002294565,0.021058662,-0.010447992,-0.00067712656,0.00087206828,6.332,0,0
0.0011926550000000004,-0.011181358,-0.01066157,-7.328256e-05,0.0013158962800000002,6.333,0,0
-0.001173301,-0.04140878,-0.007842449999999999,-0.00012858196000000002,0.001719002,6.334,0,0
-0.002910133,-0.06649118,-0.005038972000000001,-0.00015084996,0.0017440060000000002,6.335,0,0
-0.0032834640000000003,-0.08389744,-0.0018394240000000003,0.00013706444,0.0015241332,6.336,0,0
-0.0026890100000000004,-0.080550682,-0.0003221780000000001,0.00051008,0.0010023292,6.337,0,0
-0.001821114,-0.056222772,-0.0005128720000000002,0.000880322,0.0002215492,6.338,0,0
-0.0008465526000000003,-0.023977672,-0.000393662,0.0011315998000000001,-0.00024343740000000008,6.339,0,0
0.0006289594,-0.004215664000000001,-0.0009184400000000002,0.0010566792,-0.0005537094,6.34,0,0
0.0021339254,-0.0015697239999999998,-0.001833222,0.0005675532,-0.0008174596,6.341,0,0
0.0035524054,-0.002460622,-0.002158192,-4.910879999999999e-05,-0.0009214756000000001,6.342,0,0
0.0053687614,-0.004768352,-0.003334188,-0.0008193408000000001,-0.0007190834000000001,6.343,0,0
0.00657645,-0.006259331999999999,-0.005688206,-0.0014383992000000002,-0.0008171672,6.344,0,0
0.0067698559999999994,0.0005605200000000019,-0.007586228,-0.00137372056,-0.0012141532000000002,6.345,0,0
0.005119214,0.01691294,-0.008358500000000001,-0.00119410856,-0.0010922962000000003,6.346,0,0
0.001071922,0.040662840000000006,-0.0069328158,-0.00116691856,-0.0006704486,6.347,0,0
-0.0020664840000000004,0.05385448000000001,-0.0022301358000000005,-0.00049974456,-0.00047438320000000006,6.348,0,0
-0.0030357,0.04641846000000001,0.0036225121999999997,0.00036311944,-4.523680000000004e-05,6.349,0,0
-0.004093864000000001,0.035650440000000005,0.0105836342,0.000692406,0.0008342152,6.35,0,0
-0.004109824,0.023263500000000006,0.018006820200000002,0.001167478,0.0012174532000000001,6.351,0,0
-0.00238852,0.004039256,0.021647720000000002,0.00205943,0.0013475662000000002,6.352,0,0
-0.00203292,-0.001410764000000001,0.020025196000000002,0.002395822,0.0014549244000000002,6.353,0,0
-0.003261786,0.009001996,0.014425150000000001,0.0022785419999999997,0.00118595686,6.354,0,0
-0.0038590100000000004,0.014480776000000002,0.006119870000000002,0.0022450960000000002,0.0006817598600000001,6.355,0,0
-0.0033311410000000006,0.0146291934,-0.00304003,0.0016167839999999998,0.00018804565999999998,6.356,0,0
-0.0025605730000000004,0.0121502894,-0.00914945,0.00033345399999999996,-0.00011483894000000003,6.357,0,0
-0.0016351010000000001,0.0043415894,-0.011132466,-0.0008044360000000001,-0.00036242814,6.358,0,0
6.422999999999976e-06,-0.0042205706,-0.010225026000000002,-0.0018784840000000001,-0.0004689656,6.359,0,0
0.0017747370000000002,-0.009599550600000001,-0.00787345,-0.002952432,-0.0003505334,6.36,0,0
0.002705512,-0.012996908000000001,-0.00514129,-0.003029874,-0.0003879724,6.361,0,0
0.0033893000000000005,-0.017239420000000002,-0.002207802,-0.0025217308,-0.0007361784,6.362,0,0
0.004347404000000001,-0.0221796,-0.000461128,-0.0022211288,-0.001111233,6.363,0,0
0.004642758,-0.02475232,0.00037454800000000005,-0.0017455188,-0.0013751280000000002,6.364,0,0
0.0044670560000000005,-0.022041346,0.0010796234000000002,-0.0010579016,-0.001397811,6.365,0,0
0.004179878,-0.015049626,0.0013554942000000001,-0.0005911504000000001,-0.0011036338000000002,6.366,0,0
0.0034717766,-0.004646885999999999,0.0009407634799999999,-0.000593909,-0.00038482180000000004,6.367,0,0
0.0021712248,0.008245034000000002,0.00022343228,-0.0003295868,0.0005663221999999999,6.368,0,0
0.0007091367999999999,0.016979134000000003,-0.00014613932,0.00044538520000000003,0.0009115401999999999,6.369,0,0
-0.0009964172,0.0170543028,-0.00033701292000000004,0.0009132840000000001,0.000468178,6.37,0,0
-0.0029433012,0.011788308800000001,-0.0005953297200000001,0.0012066788000000001,0.00019918819999999998,6.371,0,0
-0.0043430658,0.005095010799999999,-0.0007181642,0.0021830222000000002,-0.0001232844000000001,6.372,0,0
-0.005084106,-0.0021016092,-0.00014234899999999995,0.003220666,-0.0006816708,6.373,0,0
-0.00518694,-0.0096498092,0.0006239046000000001,0.00366172,-0.0004413648000000001,6.374,0,0
-0.004886754,-0.015690472,0.0011085208000000003,0.004419304,-4.119814000000004e-05,6.375,0,0
-0.0038822939999999997,-0.019538858,0.0014344822,0.005118006,-0.00028441234000000005,6.376,0,0
-0.002850786,-0.02171424,0.0010743354000000002,0.005021866,-0.00031380394000000007,6.377,0,0
-0.002369222,-0.020534566,0.0005491285200000002,0.004675394000000001,-6.785474000000006e-05,6.378,0,0
-0.000947538,-0.014782101999999998,0.00042477252,0.004021912,-0.00010399074000000001,6.379,0,0
0.0015065,-0.006016182,0.00024108292,0.0026936832,0.00025895860000000004,6.38,0,0
0.0032847420000000002,0.002268678,0.00014522611999999996,0.0014375432,0.0008170374000000002,6.381,0,0
0.003939852000000001,0.009526538000000001,0.0007836075200000001,0.000678769,0.0008446588000000001,6.382,0,0
0.00408938,0.018254044000000004,0.0013392684,-0.00019054500000000005,0.0007773078000000001,6.383,0,0
0.0037581920000000005,0.03220472,0.0001811944,-0.000822607,0.0006761076000000001,6.384,0,0
0.003434282,0.05256036,-0.0012412780000000002,-0.0011480442,0.00018853280000000005,6.385,0,0
0.002998062,0.07421708,-0.0014061785999999999,-0.0019545322,-7.794000000000004e-06,6.386,0,0
0.00197715,0.08884712,-0.001980794,-0.0027394620000000002,0.00015489660000000003,6.387,0,0
0.0013159900000000004,0.08847470000000002,-0.00366481,-0.0027024557999999997,8.596200000000011e-06,6.388,0,0
0.0005358480000000001,0.05505673999999999,-0.00473393,-0.0021515164000000006,0.0001234484,6.389,0,0
-0.0018549780000000002,-0.01299206,-0.004681194,-0.0013829104,0.0003129572,6.39,0,0
-0.0044645100000000005,-0.07455966,-0.004819637999999999,-0.0007042144,0.00030883719999999997,6.391,0,0
-0.005054108,-0.10848732000000001,-0.0055993,-0.0005414543999999999,0.00042149280000000004,6.392,0,0
-0.004769054,-0.12175604000000001,-0.005921574,-0.0007331346000000001,0.00033900720000000007,6.393,0,0
-0.005445284000000001,-0.101413508,-0.003876078,-0.001143242,0.00013588983800000003,6.394,0,0
-0.005723372000000001,-0.05174818800000001,-0.001396432,-0.0013606160000000003,-0.000165922162,6.395,0,0
-0.004550096000000001,-0.013991424000000004,0.00023302400000000008,-0.0010931894,-0.000576254162,6.396,0,0
-0.0038116520000000004,-0.0017938840000000012,0.004245604,-0.0008603374,-0.0005560955620000001,6.397,0,0
-0.003757410000000001,0.0011252159999999983,0.009147862,-0.0008349094,-0.000415281762,6.398,0,0
-0.002748636,-0.00029455600000000056,0.012672764000000001,-0.0009970594,-0.0005328788,6.399,0,0
-0.0005426700000000002,-0.0019978960000000007,0.01564047,-0.0015671594,-0.00010842060000000001,6.4,0,0
0.001788446,0.0009134999999999998,0.015042116000000001,-0.00207042,0.0005527314,6.401,0,0
0.0033380560000000003,0.007105440000000001,0.008907536000000002,-0.0018604274000000001,0.0004723632,6.402,0,0
0.004445432,0.011916312,0.0016124760000000016,-0.0013577612000000001,0.0002873614,6.403,0,0
0.0049518159999999995,0.014458392,-0.004904324,-0.0010344308000000003,0.00034792579999999996,6.404,0,0
0.004341360000000001,0.018241872,-0.010604698,-0.0006675936,3.775619999999997e-05,6.405,0,0
0.002866612,0.022099852000000003,-0.011822263999999999,-0.00013979540000000004,-0.00035262440000000003,6.406,0,0
0.002006642,0.024131632000000004,-0.0085379884,3.119959999999998e-05,-0.0003453106,6.407,0,0
0.0017052779999999997,0.024084172,-0.00467756282,-0.00015927440000000005,-0.00013942039999999996,6.408,0,0
0.0014276260000000002,0.020720320000000004,-0.0026173368200000002,-0.00012853480000000003,-3.309079999999998e-05,6.409,0,0
0.002160602,0.013955055600000002,-0.0024926828199999997,-0.0003999420000000001,0.00015508080000000004,6.41,0,0
0.002759826,0.007960029600000001,-0.00317335682,-0.0010882102000000001,0.00028149660000000005,6.411,0,0
0.00280769,0.0051845096000000005,-0.00350463242,-0.0014005578,0.00033888600000000005,6.412,0,0
0.003164878,0.0037665516000000006,-0.002400072,-0.0013405662,0.000816846,6.413,0,0
0.003224686,0.0033020276,2.171999999999938e-06,-0.0012064604000000003,0.0012825224,6.414,0,0
0.002498928,0.0024120880000000006,0.0027928040000000003,-0.0004573344,0.0015719702000000003,6.415,0,0
0.0021588040000000003,0.00044958800000000017,0.005327776,0.0008967516,0.0020354150000000005,6.416,0,0
0.002120746,0.0011246680000000003,0.005551527600000001,0.0017470796000000001,0.0022622,6.417,0,0
0.0011736340000000002,0.0047347940000000005,0.0029153116000000005,0.0022027178,0.001979924,6.418,0,0
0.0003233499999999999,0.006370852000000001,-0.00017988439999999987,0.002789276,0.0015174805999999999,6.419,0,0
-0.0005415580000000001,0.005418876,-0.0022509444000000005,0.003036622,0.0010628573999999999,6.42,0,0
-0.002366814,0.0024490019999999996,-0.0031923604000000006,0.002916732,0.00033947539999999997,6.421,0,0
-0.003965068,-0.005152138,-0.0032553074000000004,0.0030850980000000005,-0.0005302366000000001,6.422,0,0
-0.004254124000000001,-0.013439898000000002,-0.0010813934,0.002926464,-0.0010320926,6.423,0,0
-0.004035100000000001,-0.016078974000000003,0.0039745526,0.0022815092,-0.0015754472000000003,6.424,0,0
-0.003795400000000001,-0.015437718,0.0089443606,0.001788569,-0.0020527460000000003,6.425,0,0
-0.0026104146000000003,-0.013521066,0.0116939286,0.0011578158000000002,-0.00243568,6.426,0,0
-0.0015097460000000002,-0.007820224,0.011684666000000002,0.00046492700000000007,-0.0030456980000000003,6.427,0,0
-0.001772746,0.0004072360000000005,0.006871902,0.00019282860000000002,-0.0032769720000000004,6.428,0,0
-0.0027303200000000005,0.0067975299999999995,-0.0012552379999999997,0.00010836980000000002,-0.0027656144,6.429,0,0
-0.0032577360000000002,0.009796738000000001,-0.008260798,-4.2577199999999996e-05,-0.0019866164,6.43,0,0
-0.0029589494000000004,0.012109742,-0.013245018,-6.373719999999999e-05,-0.0011039524000000002,6.431,0,0
-0.0024047760000000004,0.014206240000000002,-0.014163834000000002,-0.000186671,0.00022678760000000004,6.432,0,0
-0.0013751544000000003,0.012957260000000002,-0.010702330000000001,-0.0002765308,0.0011127036,6.433,0,0
-0.00040326239999999996,0.009627304,-0.006120538,-0.00025662119999999997,0.0012972840000000001,6.434,0,0
-0.00014321040000000003,0.01068418,-0.0006150980000000001,-0.00028071579999999996,0.0010094414,6.435,0,0
-0.00031600100000000005,0.010960478,0.0043483820000000005,-0.0007614146,0.0006340360000000001,6.436,0,0
-0.001042239,0.0008138780000000014,0.00666599,-0.0015009520000000003,0.00044817920000000006,6.437,0,0
-0.0017104886,-0.0053690019999999995,0.007959262,-0.0023034418000000005,2.87476e-05,6.438,0,0
-0.0011369846000000002,0.0051891340000000015,0.00816846,-0.0030392998000000004,-0.00016205336000000003,6.439,0,0
0.0002998173999999999,0.018461634,0.005613596,-0.0034696720000000005,6.727484000000001e-05,6.44,0,0
0.001089706,0.02429984,0.00266605,-0.0036078200000000003,0.00020987224000000002,6.441,0,0
0.001882494,0.02134228,0.001261168,-0.003364102,-6.860960000000012e-06,6.442,0,0
0.0038148220000000003,0.001911900000000001,-0.00026655799999999996,-0.003270864,1.850863999999997e-05,6.443,0,0
0.005447516,-0.031041080000000006,-0.0019967500000000003,-0.0029316180000000004,0.00015435759999999997,6.444,0,0
0.005738146,-0.05724946000000001,-0.0022103894,-0.0024473874000000002,7.859999999999999e-05,6.445,0,0
0.0060215979999999995,-0.06356633,-0.0007218373999999998,-0.0020662454,0.0002089568,6.446,0,0
0.006807084000000001,-0.04870033,0.0009642306000000004,-0.0019434294000000003,0.0006493568,6.447,0,0
0.006359016,-0.02047527,0.0028517366,-0.0016306114000000003,0.0010827288,6.448,0,0
0.005214598,0.00555097,0.004921938600000001,-0.0012836838000000001,0.0011340768,6.449,0,0
0.004680442,0.02053531,0.0049285208,-0.0012064744,0.0010950690000000002,6.45,0,0
0.002934032,0.01559118,0.0028591908000000004,-0.0007077184000000001,0.0010748843999999998,6.451,0,0
-0.00022425599999999993,-0.0024047199999999973,0.0010863588000000002,8.994759999999999e-05,0.000801574,6.452,0,0
-0.003018288,-0.01455754,-0.00032148719999999987,0.0010918816,0.00034788079999999996,6.453,0,0
-0.004956292,-0.019297555,-0.0021167192,0.0015083000000000002,0.00014671451400000002,6.454,0,0
-0.0056879514,-0.019300675,-0.003135408,0.0018128419999999998,0.000276322514,6.455,0,0
-0.0049613464,-0.010002495,-0.0035840140000000004,0.00208596,0.000151962514,6.456,0,0
-0.004102320400000001,0.0052983449999999994,-0.004972404000000001,0.00176843306,-0.00017027708599999996,6.457,0,0
-0.0036113144,0.015108465,-0.007305154000000001,0.0012082210000000002,-0.000298750486,6.458,0,0
-0.0022596274,0.01833428,-0.009680382,0.000547057,-0.0005106562,6.459,0,0
-0.0009326040000000001,0.01625396,-0.010397963999999999,-6.333700000000006e-05,-0.000828101,6.46,0,0
-0.000775573,0.015679580000000002,-0.008084644,-0.0005757344000000001,-0.0010228392,6.461,0,0
7.330299999999993e-05,0.020380380000000003,-0.0036184419999999995,-0.0009116174600000001,-0.0009121546000000001,6.462,0,0
0.0017937850000000004,0.02310248,0.0009276380000000012,-0.0012390334000000002,-0.0007328592000000002,6.463,0,0
0.0017117684000000004,0.02257528,0.00422099,-0.0010888830000000001,-0.000463629,6.464,0,0
0.00014677040000000003,0.02054668,0.005645172,-0.0006518686,-7.336240000000002e-05,6.465,0,0
-0.0005484276,0.017152886000000003,0.00473593,-0.0004377822,0.0003077386,6.466,0,0
-0.0006212416,0.013157046,0.002517472,-7.793260000000003e-05,0.0005077692,6.467,0,0
-0.0010877322000000002,0.009479566,0.0015457060000000002,0.0001834828,-5.664960000000002e-05,6.468,0,0
-0.0013219034,0.004913354000000001,0.002420474,0.0003459814,-0.0008324618000000001,6.469,0,0
-0.0009763122600000002,0.002259234000000001,0.0029365520000000003,0.00032073379999999997,-0.0012304439999999998,6.47,0,0
-0.0006387808600000001,-0.0013251320000000006,0.002174726,0.0005356148,-0.001135011,6.471,0,0
-0.0005832388600000001,-0.011463492,0.0014153458,0.0011199292,-0.0007149002,6.472,0,0
-0.00037799026,-0.021640492000000004,0.0012767057999999998,0.0014702318,-9.124599999999992e-05,6.473,0,0
1.834053999999992e-05,-0.025688560000000003,0.0017387578000000001,0.0020491247999999997,0.0006026138000000002,6.474,0,0
0.00017498119999999996,-0.02661302,0.0025270578000000004,0.0024915519999999997,0.0006887564,6.475,0,0
0.0004312688,-0.025230616,0.0034971998000000006,0.002706384,0.00028077000000000006,6.476,0,0
0.0005036648000000001,-0.019459192000000004,0.004351408000000001,0.0028597519999999997,-0.000171854,6.477,0,0
2.3074799999999937e-05,-0.013173992000000002,0.00413212,0.0030025319999999996,-0.0004793562000000001,6.478,0,0
-0.0004268472,-0.009855692000000001,0.003346926,0.002886904,-0.000659726,6.479,0,0
-0.001057451,-0.009922932,0.002122426,0.002608142,-0.0004838650000000001,6.48,0,0
-0.0017438560000000002,-0.010763376,-0.0005829180000000006,0.0023677560000000004,-0.000133169,6.481,0,0
-0.0014426512000000002,-0.009589058,-0.0035626080000000005,0.0016128106,0.00011195499999999998,6.482,0,0
-0.0007219032,-0.004383498,-0.004941962,0.0009571686000000001,0.000706273,6.483,0,0
-0.0007373152000000001,0.004832442000000001,-0.00547348,0.00025334260000000003,0.0012981350000000002,6.484,0,0
-0.0006293872,0.014904042000000003,-0.004610868000000001,-0.00016768019999999998,0.0015239016,6.485,0,0
-0.00014197860000000003,0.023954682,-0.0013790879999999997,-0.00011872019999999996,0.0013522270000000001,6.486,0,0
-0.0009929514,0.030588320000000002,0.0019916480000000004,8.320720000000003e-05,0.0009796060000000003,6.487,0,0
-0.0024619413999999997,0.0313014,0.003941982,0.0005768772,0.0006370605999999999,6.488,0,0
-0.0019271634000000003,0.026533862000000002,0.003083194,0.00081951528,0.00027332919999999996,6.489,0,0
7.852059999999988e-05,0.020697272000000003,-0.0006872059999999997,0.00044045408000000007,1.9533799999999992e-05,6.49,0,0
0.001452336,0.008524492,-0.004519466,-0.00034133392,-0.00014889360000000003,6.491,0,0
0.0023767934000000004,-0.008076687999999999,-0.00687869,-0.00070281072,-0.0002181866,6.492,0,0
0.0033483672,-0.015880948,-0.008293834,-0.0011991927200000001,-0.00037454519999999996,6.493,0,0
0.0029529936000000003,-0.014460410000000002,-0.0076818879999999996,-0.0015924948000000001,-0.0005510971999999999,6.494,0,0
0.0012819595999999998,-0.008099739999999998,-0.004644648,-0.0010077576000000002,-0.0007124982,6.495,0,0
0.00046314559999999997,0.00862362,-0.0017985613999999999,-0.0007197892,-0.000545617,6.496,0,0
0.00028173695999999995,0.03230598,-0.0006434338,-0.0009015644,-9.4185e-05,6.497,0,0
-0.00021968884000000011,0.04675126,-0.0008140237999999999,-0.0007183312000000001,0.000269983,6.498,0,0
-0.0006336172400000002,0.0394206,-0.0010730318000000002,-0.0005203844000000001,0.0008439404,6.499,0,0
-0.0008144602400000002,0.016957460000000004,-0.0012642718,-0.0005360488000000001,0.0013564468,6.5,0,0
-0.0006217882400000001,-0.007471959999999996,-0.0021014524,-0.0005073018,0.001356321,6.501,0,0
-4.066900000000001e-05,-0.0352976,-0.002351792,-0.0005086278,0.000910437,6.502,0,0
0.0012736450000000001,-0.0547034,-0.0015798390000000002,-0.000529672,0.0005841686,6.503,0,0
0.003554855,-0.051113493999999995,-0.0012528116000000001,-0.0006651808000000001,0.00012303739999999994,6.504,0,0
0.005379068000000001,-0.033557953999999994,-0.0003342655999999999,-0.0011927756,-0.0005972906000000001,6.505,0,0
0.005658534000000001,-0.020424480000000002,0.0017074824000000003,-0.0013534082000000002,-0.0009552776,6.506,0,0
0.005405522,-0.01697628,0.0035228204000000004,-0.0013876882000000003,-0.0010528016000000001,6.507,0,0
0.004097900000000001,-0.01634546,0.0059781954000000005,-0.0016337192000000001,-0.0012512012,6.508,0,0
0.0012784280000000003,-0.015595835999999998,0.008568278000000002,-0.0010364832,-0.001640154,6.509,0,0
-0.0010127840000000005,-0.018279862600000002,0.007942019600000001,-0.00034129920000000016,-0.0016244340000000001,6.51,0,0
-0.00278331,-0.018607298,0.0056559436,2.4091199999999862e-05,-0.0011086478000000002,6.511,0,0
-0.0040536980000000005,-0.004523777999999999,0.0048792536,0.0007632291999999999,-0.0008467964000000002,6.512,0,0
-0.004444152000000001,0.009478642,0.0033682136000000003,0.0013625012,-0.0005538681000000001,6.513,0,0
-0.004849216,0.014473412000000001,0.0015337876000000002,0.0013660252000000002,0.00022226790000000001,6.514,0,0
-0.0050137260000000005,0.0195464586,0.0013266710000000002,0.0014986652,0.0007675519000000001,6.515,0,0
-0.004448518,0.02294814,0.001806163,0.00155759,0.0007628635000000001,6.516,0,0
-0.0036728326,0.021311104,0.0014061390000000003,0.0012963444,0.0009927605,6.517,0,0
-0.0025684348,0.016777261999999998,5.722300000000007e-05,0.0015036023999999999,0.0012636962000000002,6.518,0,0
-0.0006171868,0.013091326,-0.0005889058000000001,0.0015400644,0.0009079782,6.519,0,0
0.0009275212000000001,0.010952986,-0.0005079284,0.0011844928800000003,0.0007160218,6.52,0,0
0.0011047584,0.012376146000000001,-0.0007359644,0.0012543528800000002,0.00053338,6.521,0,0
0.0007738710000000002,0.017072022,-0.0012034264,0.00149436448,-0.00019786640000000002,6.522,0,0
0.0006033874000000002,0.021518084000000003,-0.0008658916,0.00137347848,-0.0006233708000000001,6.523,0,0
0.0002856268000000001,0.024930720000000003,-0.0005597148,0.00123845148,-0.0005781662,6.524,0,0
-0.0002301411999999999,0.025584100000000002,-0.0001532151999999999,0.0011792350000000003,-0.000821712,6.525,0,0
7.697360000000008e-05,0.021149352,0.0006794690000000001,0.0007772939999999999,-0.0009740378000000001,6.526,0,0
0.0004897584000000001,0.008673532000000001,0.001193971,0.00020422399999999997,-0.0004777628,6.527,0,0
-6.900579999999997e-05,-0.008914748,0.0008376882000000001,-0.00017447833200000002,-0.00038619060000000006,6.528,0,0
-0.00029114519999999994,-0.022682268,-0.0015975538,-0.000611919332,-0.0005205356,6.529,0,0
-0.0001362171999999999,-0.030985788,-0.005018621800000001,-0.0012066633320000002,-0.0002516204,6.53,0,0
-0.0002835587999999999,-0.0366675,-0.00799728,-0.0015950403320000002,-7.391936e-05,6.531,0,0
4.723040000000016e-05,-0.03526946,-0.008181092800000001,-0.002127772332,0.00026549164,6.532,0,0
0.0010013024,-0.024929736,-0.004245128800000001,-0.003082032,0.00085440584,6.533,0,0
0.0015707084000000002,-0.016978112,0.0009873511999999997,-0.0038161700000000007,0.00131741224,6.534,0,0
0.0018949364000000002,-0.014306312000000002,0.0054592712,-0.0039047240000000005,0.00153538124,6.535,0,0
0.0022491580000000002,-0.011800292,0.0087833092,-0.003912588000000001,0.0017275780000000002,6.536,0,0
0.002274438,-0.008181522,0.0088186666,-0.0037426860000000003,0.0015972442000000001,6.537,0,0
0.002347802,-0.002831086,0.0055844626,-0.003024544,0.0011222606000000001,6.538,0,0
0.00226352,0.0049729100000000005,0.0025862731999999997,-0.0022131534000000004,0.0006878908000000001,6.539,0,0
0.0017008398000000003,0.01767731,-1.363679999999987e-05,-0.0016799378000000003,0.00014693880000000005,6.54,0,0
0.0011823728000000002,0.033452590000000004,-0.0023336728000000004,-0.0010590604,-0.0004059532,6.541,0,0
0.0007616176,0.04373868,-0.0039637394,-4.894039999999995e-05,-0.0008074874000000001,6.542,0,0
0.000206603,0.035108,-0.005646973400000001,0.0006247556,-0.0009652634000000001,6.543,0,0
-0.0007043770000000001,0.01199774,-0.006279250000000001,0.001142189,-0.0009531244,6.544,0,0
-0.0021440288000000004,-0.008894040000000002,-0.005249038,0.0017579494,-0.0007808046000000001,6.545,0,0
-0.0020294734,-0.024819380000000002,-0.0031525660000000003,0.0020455960000000002,-0.0004961776000000001,6.546,0,0
8.738579999999999e-05,-0.033947973,0.0004647319999999998,0.001985194,-0.0001074604,6.547,0,0
0.0010284024,-0.027608495000000004,0.00555441,0.0018511460000000001,0.00027051320000000007,6.548,0,0
0.0008773804000000001,-0.009605917,0.008598056,0.0016281388000000002,0.00036359360000000004,6.549,0,0
0.0012476464000000004,0.005802603000000001,0.007986504000000002,0.0011369886000000002,0.0003855724,6.55,0,0
0.00010457200000000026,0.015311443000000001,0.005936986,0.0006021708,0.00045343124000000003,6.551,0,0
-0.00239257,0.017714795999999998,0.0018781140000000002,0.00010806879999999998,0.00026288104,6.552,0,0
-0.0034610040000000006,0.013502638000000003,-0.004337486,-0.00033633740000000006,-2.5546960000000002e-05,6.553,0,0
-0.003608098,0.007309740000000001,-0.008602002000000001,-0.00045740220000000005,-0.00026415656,6.554,0,0
-0.003282174,-0.0016233799999999985,-0.009096144000000002,-8.821600000000001e-05,-0.00086102316,6.555,0,0
-0.0020684582,-0.010406740000000001,-0.00735377238,0.0003816638000000001,-0.001675683,6.556,0,0
-0.0011933541999999998,-0.015190660000000002,-0.004152430380000001,0.0009714158,-0.002294834,6.557,0,0
-0.0008443373999999999,-0.01648068,5.762162000000001e-05,0.001655096,-0.0030736540000000003,6.558,0,0
0.0004345706000000001,-0.010588122000000002,0.00467855762,0.0020517260000000002,-0.0037579740000000003,6.559,0,0
0.0022410506,0.0022295179999999998,0.00794106162,0.0019779000000000003,-0.00341105,6.56,0,0
0.0026186248000000002,0.017329598,0.008348628,0.0019421500000000001,-0.0026599438000000004,6.561,0,0
0.0018922948000000001,0.032729458,0.006240810000000001,0.00231039,-0.0018472502,6.562,0,0
0.0014002999999999997,0.047172198000000005,0.0015936380000000014,0.002467424,-0.0006233401999999999,6.563,0,0
0.00041850799999999994,0.04634812000000001,-0.0042466019999999995,0.0022479104,0.0007753597999999999,6.564,0,0
-0.001364268,0.026399320000000004,-0.008134858,0.0019329138,0.0017188538,6.565,0,0
-0.0023809820000000002,0.008715120000000003,-0.0084541506,0.0013085418,0.0021222895999999996,6.566,0,0
-0.002272726,-0.008035819999999999,-0.0050576826,-0.00015411420000000002,0.0023195960000000006,6.567,0,0
-0.0014109820000000003,-0.02549096,-0.0001960026,-0.0011782102,0.0020013027999999998,6.568,0,0
6.535199999999997e-05,-0.02319962,0.0033760574,-0.0008711046000000002,0.0015396168000000002,6.569,0,0
0.001000048,-0.00859396,0.0054672874000000005,-0.0002689500000000002,0.0012578368,6.57,0,0
0.0009329940000000001,-0.009686120000000001,0.003879582,0.00019387739999999996,0.000980809,6.571,0,0
0.0007154200000000002,-0.016510820000000002,-0.0011358780000000008,0.000642211,0.0006982510000000001,6.572,0,0
-0.00011562399999999994,-0.02046326,-0.0035382680000000007,0.0008425803999999998,0.0009188662,6.573,0,0
-0.0011723936,-0.03364618,-0.003335238,-9.018160000000009e-05,0.0009284632,6.574,0,0
-0.00029746960000000006,-0.042674340000000005,-0.0034640146000000003,-0.0014887336,2.964920000000004e-05,6.575,0,0
0.0013253424,-0.03857042,-0.0027474726,-0.0022998830000000004,-0.000934805,6.576,0,0
0.0021313264000000004,-0.029749392000000003,-0.0026889126,-0.0028901286000000003,-0.0017903090000000001,6.577,0,0
0.0029097964000000002,-0.020811048000000002,-0.0039064106,-0.003354928,-0.0022740587999999996,6.578,0,0
0.003229742,-0.009722596,-0.0039049306000000002,-0.0036303640000000005,-0.0022560545999999997,6.579,0,0
0.0025313580000000005,0.0016684439999999998,-0.0033869499999999997,-0.00375175,-0.0015312346,6.58,0,0
0.0012174200000000003,0.013855504000000001,-0.0023037099999999996,-0.00355617,-3.3545999999999966e-06,6.581,0,0
-0.00025912799999999975,0.026216756,0.0006576360000000001,-0.0028260978000000003,0.0014246694,6.582,0,0
-0.00115831,0.031781412,0.0024978400000000003,-0.0021372626000000002,0.0023483172,6.583,0,0
-0.0016855919999999999,0.029343768,0.0018701528000000002,-0.0011337186000000001,0.0031240040000000005,6.584,0,0
-0.00259398,0.022280494,0.0015170388000000001,0.0005640894,0.0034922200000000003,6.585,0,0
-0.002636668,0.013626638,0.0021943908000000003,0.0016499054,0.003346298000000001,6.586,0,0
-0.00197378,0.004652018,0.0026319307999999996,0.0021060872,0.003151146,6.587,0,0
-0.002044928,0.0008260579999999997,0.0023446897999999995,0.002410348,0.002619624,6.588,0,0
-0.002164038,0.0006666160000000001,0.0023460145999999993,0.0022385194,0.0017499560000000002,6.589,0,0
-0.0018012582000000003,0.00015393999999999998,0.0026336885999999997,0.001628541,0.0009483040000000002,6.59,0,0
-0.0003401582000000004,-0.0028188280000000002,0.0018242178,0.0010740674,0.0004014342000000001,6.591,0,0
0.0020289098,-0.005099304,0.0010078624000000001,0.0005269662000000001,5.581380000000003e-05,6.592,0,0
0.0041030918,-0.00023036400000000026,0.0014021814,-0.00027752779999999996,-0.00021262579999999998,6.593,0,0
0.0057670458,0.010344810000000001,0.0018021938,-0.0011036172,3.995420000000002e-05,6.594,0,0
0.006653284000000001,0.0221444,0.0025499838,-0.0020457588,0.0005818642,6.595,0,0
0.005864002000000001,0.029468944000000004,0.0029218706000000002,-0.0027773092,0.0008195404,6.596,0,0
0.003291278,0.030928696000000002,0.0011376220000000002,-0.0032827480000000003,0.0008725476,6.597,0,0
0.0007977000000000001,0.019107476,-0.002022052,-0.0034111160000000005,0.0010224114,6.598,0,0
-0.001092716,-0.0038625839999999988,-0.006065652000000001,-0.002745107,0.0010797074000000002,6.599,0,0
-0.00289271,-0.023623684000000002,-0.009624932000000001,-0.0018608572,0.0008300802,6.6,0,0
-0.0031183418,-0.035099084,-0.007867838000000002,-0.0010415608000000002,0.0003120518000000001,6.601,0,0
-0.0016201158,-0.037673544,-0.0013501800000000012,0.0001532291999999999,-0.0003536050000000001,6.602,0,0
-0.0003953997999999999,-0.029657324000000002,0.0038338800000000004,0.0017824832,-0.0007956152,6.603,0,0
-0.0001966138,-0.014213984,0.007602962000000001,0.0029216922,-0.0015582632,6.604,0,0
-0.00024969779999999995,-0.002286044,0.010253296,0.0038511224,-0.0026245260000000003,6.605,0,0
-0.001679242,0.00451776,0.008501832,0.004760014,-0.0032843140000000004,6.606,0,0
-0.0031681500000000002,0.007044536,0.0037205199999999997,0.0049789759999999995,-0.003561522,6.607,0,0
-0.0027724,0.005789641999999999,0.0012706199999999999,0.004408672000000001,-0.003782918,6.608,0,0
-0.0017548379999999999,0.0020886419999999995,0.0017498120000000001,0.0037529440000000002,-0.0038298840000000004,6.609,0,0
-0.0004392160000000001,-0.0019651520000000004,0.001982508,0.0034103280000000002,-0.003224984,6.61,0,0
0.001228914,-0.0018223120000000002,0.0015560762,0.002714736,-0.002241758,6.611,0,0
0.00224232,-0.00039660400000000005,0.0019818102,0.001831443,-0.0014532874740000002,6.612,0,0
0.0017171553999999999,-4.379560000000054e-05,0.0031914482000000004,0.0009830250000000002,-0.0009157565400000001,6.613,0,0
0.0012117205999999999,0.0012313744,0.0031665182,0.00023662900000000008,-1.4725399999999315e-06,6.614,0,0
0.0008149496000000001,0.0016595523999999998,0.0024780926,-0.000885671,0.0008191934600000001,6.615,0,0
0.000501437,-0.0008294036,0.0024302640000000006,-0.0021360190000000003,0.0010107978600000002,6.616,0,0
0.000780867,-0.0032780996000000007,0.0009485300000000001,-0.002724844,0.0011189105340000001,6.617,0,0
0.0007316432,-0.002382868,-0.002387308,-0.0027863280000000002,0.000997246,6.618,0,0
0.0002264919999999999,0.006604202,-0.004422742,-0.0026713020000000004,0.0003781200000000001,6.619,0,0
-6.410500000000006e-05,0.027216858,-0.0048698864000000005,-0.002658474,-0.00013640219999999997,6.62,0,0
-0.0003440278000000001,0.05301579,-0.004896517600000001,-0.0018834056,-0.00025903,6.621,0,0
-0.0014036218000000001,0.073240366,-0.0032563976000000005,-0.0005346436,-0.00022556699999999995,6.622,0,0
-0.0019175594000000002,0.08185485999999999,-0.0003366856000000002,0.0005242804,0.00023721860000000005,6.623,0,0
-0.0025383714000000003,0.05505209999999999,0.0014939444000000002,0.0014911164,0.0006148072,6.624,0,0
-0.0038059454000000004,-0.012973859999999997,0.0013181344,0.0029904904000000003,0.0006044118000000001,6.625,0,0
-0.00337,-0.07773666000000001,-8.399399999999956e-05,0.004145464000000001,0.00047501700000000005,6.626,0,0
-0.0017415400000000004,-0.10903110000000002,-0.00147945,0.004160732,-4.187919999999994e-05,6.627,0,0
-0.0016385840000000002,-0.10988718,-0.0021133522,0.003827896,-0.0007262292000000001,6.628,0,0
-0.0016770360000000002,-0.08095582000000001,-0.0023237322,0.002803688,-0.0009546192,6.629,0,0
-0.0005133819999999999,-0.0286399,-0.0023042142,0.001035392,-0.0007710198,6.63,0,0
-0.0008505662,0.012142504,-0.0025959482,-0.000847288,-0.0004614816,6.631,0,0
-0.0017507062,0.019965964000000003,-0.0035828402,-0.002467316,0.00011442439999999999,6.632,0,0
-0.0006296661999999999,0.006448123999999999,-0.004874362,-0.003970436,0.0007776884,6.633,0,0
0.0011254058,-0.0065118760000000015,-0.0051609538,-0.004519828,0.0014349258,6.634,0,0
0.0019075258,-0.00938402,-0.0032655997999999995,-0.0038316444000000005,0.0016309140000000002,6.635,0,0
0.0020779229999999997,-0.006859203999999999,-0.0005053517999999999,-0.0030788938000000004,0.0014655705999999998,6.636,0,0
0.002001953,0.0006252159999999988,0.0020783222,-0.0021631918,0.0014289603999999999,6.637,0,0
0.0014229892,0.011570316,0.0038812782000000002,-0.0008502656000000001,0.0010980884000000002,6.638,0,0
0.0005670050000000001,0.022634516,0.0039318276,-6.93122e-05,0.0003768216000000001,6.639,0,0
-8.7795e-05,0.02927906,0.0029136484,-0.0002864338,-0.0002898124,6.64,0,0
-0.000569932,0.0314575,0.0021017124,-0.00027725600000000003,-0.000630785,6.641,0,0
-0.0008066758,0.031531,0.0016630124,-1.5364000000000024e-05,-0.0007695508,6.642,0,0
-0.000599268,0.028066519999999998,0.0014199164,-8.223299999999994e-05,-0.0009414206,6.643,0,0
0.00024366220000000003,0.020676048,0.0011759368,2.51804e-05,-0.0012452058,6.644,0,0
0.0011750422000000001,0.012448467999999999,0.002672048,0.0007390804000000002,-0.0014414358,6.645,0,0
0.0019009062,0.0060048459999999994,0.0070943740000000005,0.001136784,-0.0018006618000000001,6.646,0,0
0.0027035580000000004,0.0018559856000000003,0.009652260000000001,0.0007282962000000001,-0.0019856422,6.647,0,0
0.0030001640000000005,-0.0005665064,0.006172332,0.000344369,-0.0017837616000000002,6.648,0,0
0.0026341260000000005,-0.0004595304,-7.37460000000004e-05,1.2452199999999887e-05,-0.0014206344000000002,6.649,0,0
0.0024610640000000002,0.007156709600000001,-0.006856500000000001,-0.0004595194000000001,-0.0005758224000000001,6.65,0,0
0.0022398502,0.018119411600000003,-0.01605318,-0.0008717848000000001,0.00047489760000000005,6.651,0,0
0.0011399622,0.023820572,-0.022382480000000003,-0.0007153190000000001,0.001233408,6.652,0,0
0.00040409280000000005,0.02516831,-0.018279972000000002,-0.0003454692,0.0016470311999999998,6.653,0,0
-0.00045256120000000005,0.024999638000000005,-0.008308791999999999,-0.0005151112,0.001999114,6.654,0,0
-0.0018736372000000001,0.015443538,-0.0006395719999999997,-0.0005026252,0.00232498,6.655,0,0
-0.0020858548,-0.007774842000000002,0.00406567,-6.956979999999996e-05,0.002537614,6.656,0,0
-0.0017697768,-0.031172982000000002,0.005479250000000001,-2.2059399999999967e-05,0.0023858000000000004,6.657,0,0
-0.0020154294,-0.043375328000000005,0.0022289220000000004,0.00019860880000000002,0.0020349012000000005,6.658,0,0
-0.0016260624,-0.045940796000000006,-0.003247126,0.0009006848000000001,0.0014233212,6.659,0,0
-0.0004341382000000001,-0.042177938000000005,-0.006912064,0.0009299564,0.0006097072000000001,6.66,0,0
-0.0005762688000000001,-0.029732778,-0.006868386,0.0005027824000000001,-0.00014655620000000007,6.661,0,0
-0.0015219628,-0.016115918,-0.004768016,0.00041826320000000017,-0.0009656262000000001,6.662,0,0
-0.0023235468000000004,-0.010882158,-0.0007053359999999998,8.011420000000001e-05,-0.0012158216000000002,6.663,0,0
-0.0034050098,-0.011157138,0.006949112,-0.0004945218,-0.0009210616,6.664,0,0
-0.004496776,-0.01357388,0.01336683,-0.0007216018,-0.0006549772000000001,6.665,0,0
-0.0048607319999999996,-0.014683666000000001,0.015513670000000002,-0.00038679980000000006,-0.00026987180000000003,6.666,0,0
-0.004177746,-0.011474440000000002,0.017051352000000002,-9.482699999999999e-05,0.0003921002,6.667,0,0
-0.0031783842000000003,-0.0038347200000000002,0.016045116,-0.00022064000000000003,0.0010162084,6.668,0,0
-0.0018481866,0.004929055999999999,0.00997846,-1.9477399999999964e-05,0.0013015164,6.669,0,0
-0.0008615524,0.014172,0.004513022,0.0002487556,0.0013185622000000002,6.67,0,0
-0.0002875542,0.022883286000000003,0.002656624,-0.00011588939999999998,0.0010822752000000002,6.671,0,0
0.0009904198,0.031127600000000005,0.0014792400000000002,-0.000299543,0.0005458752,6.672,0,0
0.002383972,0.033391080000000004,0.001431968,0.00015398300000000003,-0.00018588279999999995,6.673,0,0
0.0028511604000000003,0.021479240000000004,0.0029893420000000003,0.00025437126,-0.0005544294,6.674,0,0
0.0030254082000000003,0.01132618,0.00434942,0.00022251826000000002,-0.0006404576,6.675,0,0
0.0029169572,0.010840560000000003,0.0036919872000000004,0.00056548326,-0.0008764226000000001,6.676,0,0
0.0023539152,0.010232100000000001,-0.0008318608000000001,0.0006296776600000001,-0.0010862786,6.677,0,0
0.0018946371999999999,0.006399896000000001,-0.0068925728,6.958565999999996e-05,-0.0015005026000000001,6.678,0,0
0.0015337188,-0.0008433039999999996,-0.011123490800000002,-5.9268800000000045e-05,-0.0018722639999999998,6.679,0,0
0.0017700568,-0.010474703999999998,-0.013984726800000003,0.00011357539999999996,-0.0019320732000000001,6.68,0,0
0.0022282136,-0.018768526,-0.014805644000000003,-0.0004270426000000001,-0.0015949273999999998,6.681,0,0
0.0016270322000000001,-0.026261116,-0.010980001200000002,-0.0010151634,-0.0009005594,6.682,0,0
0.0006424136,-0.029955871999999998,-0.005289891200000001,-0.0013411614000000001,8.67686e-05,6.683,0,0
0.0002625144,-0.018712016,-0.0021909768,-0.0017960698000000002,0.0013654566,6.684,0,0
2.0040400000000006e-05,-0.005442824,-0.0015312268,-0.0019914554,0.0025688278000000004,6.685,0,0
0.0001642504000000001,-0.0032980920000000007,-0.0011812048000000002,-0.0015452132000000002,0.0031346,6.686,0,0
0.0006864258000000001,-0.0017337340000000004,-0.0006732356000000002,-0.0012019032000000003,0.0030484328,6.687,0,0
0.0015337164000000002,0.004252906,-0.0005980535999999999,-0.0006514267999999999,0.00275636398,6.688,0,0
0.002021464,0.006091160000000001,2.0922000000000258e-05,7.792119999999999e-05,0.00175659798,6.689,0,0
0.0013079200000000002,0.00011406800000000016,0.0015241900000000001,-2.8891200000000006e-05,0.00065336044,6.69,0,0
0.0008632557680000001,-0.0028468419999999996,0.002313534,-0.0002052466,-0.00026028556,6.691,0,0
0.0011799997680000001,-0.0002918699999999992,0.0020660838,1.9923999999999994e-05,-0.0011921043600000001,6.692,0,0
0.0008914697680000001,0.001495910000000001,0.0030030238000000003,6.739360000000001e-05,-0.00160556954,6.693,0,0
0.000632451568,0.004139780000000001,0.0041459078,-7.449757999999999e-05,-0.00184443954,6.694,0,0
0.0013328755680000002,0.011561860000000002,0.0029732938,-0.00021288778,-0.00230435,6.695,0,0
0.0020397878000000006,0.017696180000000002,0.0019415818,-0.00021368017999999999,-0.002327378,6.696,0,0
0.0027854338,0.017029600000000002,0.002485318,0.00014647522,-0.0014164488000000001,6.697,0,0
0.0035568858000000004,0.012718878000000003,0.002253688,0.0006597252199999999,-0.0005517888000000004,6.698,0,0
0.0035305562,0.007676028000000002,0.001456396,0.0011339584,-1.7628000000000706e-06,6.699,0,0
0.0025364842,0.002384028,0.002351156,0.0019550124,0.0007039352,6.7,0,0
0.0010554622000000001,-0.0023689799999999997,0.0032040238,0.002555644,0.0014010732000000001,6.701,0,0
-0.0007068918000000001,-0.004314288,0.0024445912000000004,0.0024334920000000006,0.001480938,6.702,0,0
-0.0021525438,-0.003997116,0.0011264405999999998,0.0024431500000000003,0.0011695286,6.703,0,0
-0.0025974500000000003,0.000516294,-0.00046630140000000005,0.002455062,0.0010771696799999999,6.704,0,0
-0.00248619,0.010644174000000001,-0.00028185340000000007,0.002244626,0.0005799956799999999,6.705,0,0
-0.002570294,0.022131222000000002,0.0017974727999999999,0.00231545,-0.00015886431999999998,6.706,0,0
-0.0030680580000000002,0.03220887,0.0023006714,0.002294012,-0.0005563779199999999,6.707,0,0
-0.0036467120000000003,0.03879752,0.000981632,0.00181883,-0.00109980052,6.708,0,0
-0.004426866000000001,0.030606120000000004,0.0005998640000000003,0.00163085,-0.0014557816,6.709,0,0
-0.0054215900000000004,0.003536819999999996,0.00010072880000000013,0.001541758,-0.0011419668000000002,6.71,0,0
-0.005539384000000001,-0.022919320000000007,-0.0018457215999999998,0.0009103760000000001,-0.0012320308000000001,6.711,0,0
-0.0048490392,-0.03838882000000001,-0.0020409055999999997,0.0005435788,-0.0017563672,6.712,0,0
-0.0043841312,-0.04639822200000001,-0.00040682559999999997,0.000325801,-0.0015214472000000003,6.713,0,0
-0.0035440572000000003,-0.04175123200000001,0.0005877456000000001,-0.000363629,-0.0011083990000000001,6.714,0,0
-0.0018184159999999998,-0.024538992000000006,0.0003700528,-0.001185377,-0.0008432118,6.715,0,0
0.000113652,-0.010777252000000001,-0.00021387479999999997,-0.0019158810000000001,9.154199999999893e-06,6.716,0,0
0.0013265932,-0.008120872000000001,-0.0014188668,-0.0028130478,0.00084593,6.717,0,0
0.0023001592,-0.009533090000000001,-0.0041045788000000005,-0.003564428,0.001091917,6.718,0,0
0.0034389132,-0.010122040000000002,-0.007995802,-0.003872202,0.0010663844,6.719,0,0
0.003979672,-0.008921416,-0.01258147,-0.003997130000000001,0.00044604639999999994,6.72,0,0
0.003693116,-0.008073182000000002,-0.014860792000000001,-0.003604688,-0.0004874076,6.721,0,0
0.0035599320000000005,-0.009406882000000002,-0.01333516,-0.002717146,-0.0007635968,6.722,0,0
0.0036873740000000006,-0.010287502,-0.0085286,-0.0019382616,-0.0005690097999999999,6.723,0,0
0.0033168200000000003,-0.010029924,-0.00011042000000000083,-0.001291462,-0.0003679673999999999,6.724,0,0
0.00341724,-0.007007108,0.00979376,-0.00029626800000000003,-0.0001035394,6.725,0,0
0.0037861260000000008,0.0021467179999999997,0.01622192,0.000427188,0.00041307320000000003,6.726,0,0
0.0033983700000000004,0.014573118,0.01911176,0.0005673068,0.00041519700000000007,6.727,0,0
0.002292714,0.030289938000000002,0.019250140000000002,0.0007771046,-6.27918e-05,6.728,0,0
0.0014135340000000001,0.0501061,0.013958292000000002,0.0007676676000000001,-0.00018517220000000006,6.729,0,0
0.001013048,0.06681292000000001,0.0070405580000000014,0.0003004734,-0.00037428060000000004,6.73,0,0
0.0004730320000000001,0.07286498,0.0017661200000000001,-0.00020908380000000002,-0.0003799916,6.731,0,0
1.956999999999995e-06,0.07114477999999999,-0.003234994,-0.0006929086000000001,0.000250772,6.732,0,0
-0.0004471970000000001,0.04813758000000001,-0.005484458000000001,-0.0010978228,0.0006493426,6.733,0,0
-0.001364621,-0.0010422800000000065,-0.003341574000000001,-0.0010834304000000002,0.0006885462,6.734,0,0
-0.002869465,-0.03971406000000001,-0.0006821200000000003,-0.0009293962000000002,0.001046731,6.735,0,0
-0.0040912150000000005,-0.05706754,0.001247968,-0.0008281938,0.0012448214,6.736,0,0
-0.004554824000000001,-0.06743088,0.0023008819999999998,-0.00044709820000000006,0.0010546894,6.737,0,0
-0.004162816,-0.0584041,0.0004649160000000001,6.407380000000001e-05,0.0010818956,6.738,0,0
-0.002989708,-0.02889834,-0.0021935500000000003,0.0004065128000000001,0.0011970224,6.739,0,0
-0.0019210333999999999,-0.017845640000000003,-0.0036398460000000004,0.0007150488000000001,0.0012294662,6.74,0,0
-0.0016892394,-0.025289680000000002,-0.0052394040000000005,0.0009924556000000001,0.0010923654,6.741,0,0
-0.0016722314,-0.02517848,-0.006375144,0.001510786,0.0006941978000000001,6.742,0,0
-0.0010894452000000002,-0.023425964,-0.005276292,0.002045956,0.00041625740000000004,6.743,0,0
-0.0005535792000000001,-0.019135264,-0.003518976,0.002262734,-9.632059999999999e-05,6.744,0,0
7.85122e-05,-0.0040379640000000015,-0.002005166,0.0024105199999999998,-0.0008779128000000001,6.745,0,0
0.0011691642,0.012611896,0.00013717800000000006,0.0026310659999999996,-0.0015174280000000004,6.746,0,0
0.0017811622000000003,0.019654496,0.002685346,0.0027256380000000003,-0.0017374244000000001,6.747,0,0
0.0013736440000000003,0.021465119999999997,0.004055722,0.002235888,-0.0017852424,6.748,0,0
0.0005777400000000001,0.018639428,0.0035947789999999998,0.0018117242000000003,-0.0015534844000000003,6.749,0,0
-1.5865999999999553e-06,0.010853576000000002,0.0018038909999999997,0.0014713664000000001,-0.0006032264,6.75,0,0
2.1055400000000103e-05,0.0037406380000000006,-0.001670665,0.0009028160000000001,0.0003725856,6.751,0,0
0.0011544954,-0.0008163759999999995,-0.006548893,0.0006450320000000001,0.0013016616000000002,6.752,0,0
0.0027574694,-0.0023166239999999998,-0.011791331,0.0007551060000000002,0.0020123100000000002,6.753,0,0
0.0037888013999999998,-0.0013773159999999995,-0.016048154000000002,0.0006584338000000002,0.002461636,6.754,0,0
0.0037937802,0.0024670760000000003,-0.01852212,0.0005681192600000001,0.00250166,6.755,0,0
0.0030538964,0.0065084340000000004,-0.01792438,0.0007025818600000001,0.0018747484,6.756,0,0
0.0017585276,0.008391090000000002,-0.013551052000000001,0.0003837273,0.0005718704000000002,6.757,0,0
0.0001355816,0.012358518,-0.008085358,0.0001164403,-0.0005615275999999999,6.758,0,0
-0.0010579024,0.019648982000000002,-0.003033956,0.0002036673,-0.0011344026,6.759,0,0
-0.0013345286,0.028056301999999998,0.004322883999999999,0.00062159164,-0.0019713386,6.76,0,0
-0.0006542028000000002,0.037336802,0.014535964,0.0012606734400000001,-0.0025153070000000005,6.761,0,0
-0.00014351199999999994,0.0445701,0.021072356,0.0014603800000000003,-0.0025154170000000003,6.762,0,0
0.000541606,0.03913081399999999,0.022009762,0.0012776556000000001,-0.0023861230000000004,6.763,0,0
0.0014021280000000003,0.016073314,0.021661057999999997,0.0008592926000000002,-0.0024907940000000006,6.764,0,0
0.0011211580000000001,-0.014320606000000003,0.0177879344,0.00017567660000000003,-0.0023533380000000004,6.765,0,0
-0.0001445340000000001,-0.041335946,0.0092635804,-0.0004986894,-0.0018090062000000002,6.766,0,0
-0.001498984,-0.058877586,0.0029471324,-0.0009082756,-0.0008544522000000001,6.767,0,0
-0.003014974,-0.06138,0.0022744084,-0.0011577122,2.2935799999999917e-05,6.768,0,0
-0.005364588,-0.046215194,0.0021952744000000002,-0.0012512822,0.00031180560000000006,6.769,0,0
-0.007385578,-0.024471534000000003,-0.00028544200000000033,-0.0017035082,0.0007830390000000001,6.77,0,0
-0.00845107,-0.006974514,-0.003059348000000001,-0.0024650801999999998,0.0010241512,6.771,0,0
-0.008603162000000001,0.0042177659999999995,-0.005153324000000001,-0.0024497496000000004,0.0006849966000000001,6.772,0,0
-0.007581677199999999,0.007602104,-0.007073478000000001,-0.0021776236000000003,0.00016226740000000004,6.773,0,0
-0.004973509199999999,0.007436774,-0.008661432000000002,-0.0017450460400000002,8.658999999999986e-06,6.774,0,0
-0.0018372991999999998,0.00609502,-0.007737136,-0.0006840540400000002,-0.00014643386000000002,6.775,0,0
0.00025007479999999987,0.0036781400000000003,-0.005649694,0.00013853075999999996,-0.0006531318600000001,6.776,0,0
0.0019501168,0.001951356,-0.004993686,2.045635999999994e-05,-0.0009361212600000001,6.777,0,0
0.0042611920000000005,0.002470724,-0.0042901120000000004,-0.00030851964000000014,-0.0007997906600000001,6.778,0,0
0.007076224000000001,0.003999948,-0.00237564,-0.0002560800000000001,-0.00073553386,6.779,0,0
0.008443964000000002,0.006124162000000001,-0.000401078,-0.0008054218000000002,-0.0006900822,6.78,0,0
0.0082025274,0.009269102000000001,0.00052110204,-0.0013983566000000001,0.00026729380000000005,6.781,0,0
0.007624949400000001,0.010900546,0.0011985994400000003,-0.0016586245999999998,0.0012820658,6.782,0,0
0.006068589400000001,0.0127457,0.0016645354400000002,-0.0022024326,0.0017924704000000001,6.783,0,0
0.0037254854000000003,0.014935940000000002,0.00130712744,-0.0028343818000000002,0.0025511282000000002,6.784,0,0
0.0025568094000000003,0.014787860000000002,0.00043737544,-0.0031488580000000005,0.003233508,6.785,0,0
0.002851758,0.015880340000000003,0.000264736,-0.002781579,0.0033901680000000003,6.786,0,0
0.002706288,0.018064,0.0006965546,-0.0019513350000000004,0.0032293940000000004,6.787,0,0
0.0013429039999999998,0.01742954,0.0013824926000000001,-0.0008962410000000001,0.0027490114,6.788,0,0
-0.0003570499999999999,0.0164912,0.0023248666000000003,-0.0002702866,0.0018197974,6.789,0,0
-0.0018997000000000003,0.015376228000000002,0.00288514,8.106820000000004e-05,0.0008067414000000002,6.79,0,0
-0.0034322420000000003,0.0017766880000000002,0.0034642474000000003,9.239500000000005e-05,-0.00044386460000000013,6.791,0,0
-0.004395566,-0.022723892000000002,0.0035201374,-0.000263244,-0.0018061146000000004,6.792,0,0
-0.004289882,-0.037852972000000006,0.0022176868000000002,-0.00023301099999999998,-0.002680294,6.793,0,0
-0.00385542,-0.044709952000000004,0.0004943928,-0.0003416706,-0.003034532,6.794,0,0
-0.0031781255999999997,-0.046322143200000006,-0.0005058526000000001,-0.0004544134,-0.0028855060000000004,6.795,0,0
-0.0020530548,-0.031054923200000004,-0.0013311546000000002,-0.0003567938,-0.0024072586,6.796,0,0
-0.0011674462,-0.002494643200000002,-0.0014177946,-0.0002159978,-0.0016976047999999997,6.797,0,0
-0.0006449986,0.018135656800000004,-0.00039673599999999996,-2.1370799999999995e-05,-0.0006660448,6.798,0,0
-3.46546e-05,0.026235296800000002,0.000835952,0.00022475320000000002,0.00043515920000000013,6.799,0,0
0.00023776920000000005,0.026997796000000004,0.001878796,0.0005225862000000001,0.0008582172,6.8,0,0
-0.00048259359999999995,0.012789756000000001,0.0021268576000000004,0.0004914616000000001,0.0012153058000000001,6.801,0,0
-0.0013257302,-0.0049989039999999985,0.0020542444,0.00031164060000000006,0.0017071120000000002,6.802,0,0
-0.0020029718000000004,-0.009841444,0.0019540924000000003,-0.00036063340000000004,0.0013167874000000004,6.803,0,0
-0.0025762118,-0.005990883999999998,0.0016922464,-0.0011792942,0.00079520308,6.804,0,0
-0.002312594,0.0011632000000000014,0.0020017224,-0.001368059,0.00058551748,6.805,0,0
-0.0008453620000000002,0.015195880000000002,0.0025054648,-0.0010358538,7.949748000000002e-05,6.806,0,0
0.001476346,0.0205385,0.0016971240000000004,-0.00040015980000000003,-0.00048662852,6.807,0,0
0.0035612840000000005,0.002924419999999997,-5.961999999999981e-05,0.0004750882000000002,-0.00064556992,6.808,0,0
0.004866042000000001,-0.014544240000000002,-0.0012558760000000002,0.0016098482000000002,-0.0008035526,6.809,0,0
0.005247848,-0.021169492,-0.001452918,0.002256746,-0.0010679194,6.81,0,0
0.004396322,-0.023718912000000005,-0.001397526,0.002511614,-0.0010756614,6.811,0,0
0.0026339340000000005,-0.017145872000000003,-0.001266566,0.0025876140000000002,-0.0009024966,6.812,0,0
0.0010584239999999996,-0.0004016039999999994,-0.0005916084000000001,0.002644668,-0.0006384639639999999,6.813,0,0
-0.00018452599999999993,0.012744056,0.00013928280000000004,0.0028930940000000006,-0.00026121096399999994,6.814,0,0
-0.0011098692,0.015970487999999998,8.286280000000004e-05,0.0030545500000000005,0.0005036554360000001,6.815,0,0
-0.0011946432,0.016110328,-0.00047520860000000006,0.00322314,0.001502737436,6.816,0,0
-0.0011461672,0.016174468,-0.0009568866000000001,0.003233868,0.0021948046360000003,6.817,0,0
-0.0007073728000000001,0.01673958,-0.0015580842,0.0031969579999999997,0.0025496600000000005,6.818,0,0
0.0008524932000000001,0.010912704000000002,-0.0019803354,0.002817048,0.0024813684,6.819,0,0
0.0018261864000000002,-0.005756416,-0.0022404014,0.0019193099999999998,0.0020597722,6.82,0,0
0.0018945638000000002,-0.022084736,-0.002712218,0.0010747731999999999,0.0013584344,6.821,0,0
0.0019591546,-0.029812056000000003,-0.00286307,0.00035711140000000004,0.00042199239999999997,6.822,0,0
0.0011364722,-0.030489106000000002,-0.003052,-0.00038014860000000006,-0.0005261836000000002,6.823,0,0
-0.0006696598,-0.02116647,-0.003121214,-0.0009222618000000001,-0.001331478,6.824,0,0
-0.0021390058,-0.00023961000000000295,-0.0014566400000000004,-0.0009130758,-0.0017158218,6.825,0,0
-0.0025933572,0.01828741,0.0012893839999999998,-0.0009306370000000001,-0.001872428,6.826,0,0
-0.0024039840000000005,0.024936054000000003,0.002992526,-0.0011925452000000002,-0.001873972,6.827,0,0
-0.0019902739999999998,0.023447382,0.003456962,-0.0012526532000000001,-0.001527214,6.828,0,0
-0.001847886,0.015820162000000002,0.0034330499999999996,-0.001538664,-0.0008354494000000002,6.829,0,0
-0.0013921740000000004,0.007293064,0.002347458,-0.001949756,-0.00039881339999999995,6.83,0,0
-0.0009170032,0.0016966780000000003,0.001050744,-0.002039348,-0.00016276779999999997,6.831,0,0
-0.0008924658,-0.0016130440000000001,0.0009618039999999998,-0.0019980040000000003,0.00039310820000000005,6.832,0,0
-5.770979999999992e-05,-0.0034148680000000006,0.0014701159999999998,-0.0017639016,0.0010173282,6.833,0,0
0.00046581819999999996,-0.0045367720000000005,0.0018278113999999999,-0.0012337444,0.0013652856000000001,6.834,0,0
0.00015198419999999993,-0.005022892,0.0011065348,-0.0008079704,0.0015060116,6.835,0,0
-0.00022329659999999999,-0.006523194000000001,-0.0006084072000000001,-0.0001820964,0.001945188,6.836,0,0
-0.000531302,-0.005409308000000001,-0.0020377472,0.0007250876,0.0018642424,6.837,0,0
-0.00026053200000000006,-5.112200000000023e-05,-0.0024444711999999998,0.0010381032000000001,0.0011818144,6.838,0,0
0.0005278019999999999,0.006957622,-0.0029299226,0.0013594860000000002,0.0006258787999999999,6.839,0,0
0.0010586373725999998,0.0132133,-0.0026696854,0.0017865402000000002,4.4700800000000004e-05,6.84,0,0
0.0013606633725999997,0.021404848,-0.001720317,0.0013649332,-0.0007870512,6.841,0,0
0.0017389197725999998,0.026210800000000003,-0.002790785,0.0008243126000000002,-0.0016329476,6.842,0,0
0.0007558135726,0.011918459999999999,-0.0025453074000000003,0.0008165506000000001,-0.0018350936,6.843,0,0
-0.0010211204273999999,-0.008867360000000001,-0.00011087339999999975,0.0006796266,-0.0018671550000000003,6.844,0,0
-0.0022678258,-0.01993324,5.166000000000025e-05,0.0007024524,-0.0019627010000000003,6.845,0,0
-0.0033680978000000003,-0.028746500000000005,0.0001651600000000002,0.0013572674,-0.0019418830000000002,6.846,0,0
-0.0041531282,-0.033210826000000006,0.003146904,0.001603082,-0.0013977260000000002,6.847,0,0
-0.00390457,-0.020048666000000003,0.0039828044,0.0012154052,-0.0007263674,6.848,0,0
-0.0026864700000000003,-0.0025799260000000015,0.0024668764,0.0010555652000000001,-0.00036951219999999997,6.849,0,0
-0.0013563198,0.00356023,0.0027316824,0.0007521894,0.00034315180000000004,6.85,0,0
-0.00032217779999999994,0.007292174,0.00304761,-0.00012433860000000003,0.0009921498,6.851,0,0
-0.0004528597999999999,0.01022248,0.0031196720000000004,-0.0002417784,0.0013594468,6.852,0,0
-0.0009404417999999998,0.011334680000000001,0.0034273340000000006,0.00011226839999999995,0.0014974662000000003,6.853,0,0
-0.0005058697999999999,0.013461,0.0028567786000000006,4.962239999999996e-05,0.001967524,6.854,0,0
0.00036379800000000014,0.016472704,0.0015390806000000002,0.00018016259999999997,0.002287724,6.855,0,0
0.0017993940000000002,0.018403000000000003,8.65966000000004e-05,0.00018703659999999995,0.0016728680000000003,6.856,0,0
0.003632084,0.01892856,-0.0020288094,-0.0003616336,0.000940926,6.857,0,0
0.004374085999999999,0.016436738,-0.0048752794,-0.0011321936,0.00016598600000000002,6.858,0,0
0.0036434320000000003,0.009279578,-0.006647597999999999,-0.0016912976,-0.0011335100000000001,6.859,0,0
0.0025483458,0.003275922,-0.007493041999999999,-0.002118928,-0.0025226840000000003,6.86,0,0
0.0010779258,0.00017700879999999985,-0.009737558,-0.002180942,-0.002694264,6.861,0,0
-6.915579999999995e-05,-0.0056410912,-0.013240338,-0.002034544,-0.0021873792800000003,6.862,0,0
9.360420000000002e-05,-0.0166841492,-0.015241764000000001,-0.0020322580000000003,-0.00180227488,6.863,0,0
0.0005381982,-0.025381969200000003,-0.014496794000000002,-0.001936392,-0.0014807028800000001,6.864,0,0
0.0006167076,-0.029293653200000002,-0.009060720000000001,-0.001883886,-0.00099996688,6.865,0,0
0.0005890456,-0.032875980000000006,0.0011524800000000009,-0.001787086,-0.00073906148,6.866,0,0
0.00018100919999999995,-0.032900900000000004,0.0107482,-0.0015202721999999999,-0.0009282946000000001,6.867,0,0
-0.0011555408,-0.025131740000000003,0.01671396,-0.0011349545999999999,-0.0007285654,6.868,0,0
-0.0024717928,-0.014255937400000002,0.019082256000000002,-0.0005148338,-0.00047707340000000003,6.869,0,0
-0.003067628,-0.0069789173999999995,0.016042436,0.0006472022,-0.00025372720000000005,6.87,0,0
-0.0034706340000000002,-0.0015427074,0.008784736,0.0018696962000000002,-0.00010168620000000002,6.871,0,0
-0.0033698620000000004,0.0021131426000000003,0.002821462,0.0028311284,-7.32738e-05,6.872,0,0
-0.0026095396,0.0044127126,0.00020104999999999982,0.0038555188000000003,-0.0001382008,6.873,0,0
-0.0016372196,0.00829043,-0.0007240180000000001,0.004029312,-7.25566e-05,6.874,0,0
-0.0004749096000000001,0.011468009999999999,-0.000615032,0.0031143232,0.00021268920000000002,6.875,0,0
0.0011772383999999999,0.0127869,0.001369572,0.001980332,0.00032817,6.876,0,0
0.0028596404000000002,0.01410045,0.0041913060000000005,0.000767968,0.0005942144000000001,6.877,0,0
0.0039001360000000002,0.01775036,0.0066265180000000005,-0.00042693000000000006,0.0008692738000000001,6.878,0,0
0.00464027,0.02357876,0.007837418,-0.001104918,0.0008399944000000001,6.879,0,0
0.005168252,0.031801460000000004,0.006177306,-0.0014277172,0.0005972970000000001,6.88,0,0
0.004627177999999999,0.041132680000000005,0.002156542,-0.0020924660000000003,0.0006861238,6.881,0,0
0.003122352,0.0492199,-0.003407998,-0.0025843840000000003,0.0008197254,6.882,0,0
0.0021899333999999995,0.047003922000000004,-0.009034518000000002,-0.002842328,0.0007933034000000001,6.883,0,0
0.0008339154,0.020413922,-0.013818686000000002,-0.00320551,0.0009678464000000002,6.884,0,0
-0.0017787286000000002,-0.014461358000000004,-0.016288860000000002,-0.003401206,0.0007102170000000002,6.885,0,0
-0.0030689166,-0.035190658,-0.0170125,-0.002977294,0.0004013520000000001,6.886,0,0
-0.0031015246000000007,-0.05539295800000001,-0.0183539,-0.0019369460000000002,0.00020072200000000007,6.887,0,0
-0.003758226,-0.07438222000000001,-0.019391620000000002,-0.0011910028,-0.000422084,6.888,0,0
-0.0037556800000000004,-0.06566272000000001,-0.019227940000000002,-0.00045882880000000005,-0.0011079718,6.889,0,0
-0.0020551236,-0.04231784,-0.016243584,0.00037773920000000005,-0.001367145,6.89,0,0
-0.0007552796,-0.029074400000000004,-0.009540943999999999,0.0007227604,-0.001529634,6.891,0,0
-2.0679599999999998e-05,-0.014574780000000002,0.002717476,0.00044189800000000003,-0.0017707,6.892,0,0
0.0007890784,0.00481666,0.018515776,0.000375923,-0.0013832832,6.893,0,0
0.00117358896,0.01669584,0.028960656,0.00042760840000000003,-0.0008423672000000001,6.894,0,0
0.0014226545600000001,0.018815560000000002,0.030072286,0.0001654962,-0.0003706244,6.895,0,0
0.00130590456,0.01640216,0.026101178000000003,5.70856e-05,0.0002616576,6.896,0,0
0.0014573065600000002,0.017581140000000002,0.01852333,-7.246720000000001e-05,0.0008801096000000001,6.897,0,0
0.00242798056,0.023547820000000004,0.006934886000000002,-0.0002309662,0.0012630948,6.898,0,0
0.003769464,0.028983780000000004,-0.0009501000000000001,-0.00047067280000000005,0.0014469106,6.899,0,0
0.004714816,0.032380320000000004,-0.002180284,-0.00032263740000000005,0.0014776166000000002,6.9,0,0
0.005705964,0.0365332,-0.00131942,-0.00014542457999999997,0.0011760238,6.901,0,0
0.006677636000000001,0.031832032,-0.000555092,-0.00021382718,0.0007822466,6.902,0,0
0.005528963400000001,0.012023412,0.000306118,-0.00030493198,0.0002919802,6.903,0,0
0.0025914694,-0.004610108000000001,0.0010983688,-0.00021381158,0.00023769600000000002,6.904,0,0
1.5465399999999366e-05,-0.009846212000000003,-0.0005505931999999999,5.731721999999997e-05,0.0005989492000000002,6.905,0,0
-0.0018274206000000004,-0.014320052000000003,-0.0037805692,0.00039979380000000007,0.0008463740000000001,6.906,0,0
-0.0036596886000000006,-0.011710744000000004,-0.0044564272,0.0009331796,0.0011614192000000002,6.907,0,0
-0.004281802000000001,0.006449356000000001,-0.0028688832,0.001156191,0.0012394260000000003,6.908,0,0
-0.0027787656,0.020566656000000003,-0.0015283439999999998,0.0010967302000000003,0.0006254924000000001,6.909,0,0
-0.0013684002,0.022388420000000003,0.0005450159999999997,0.0007043380000000001,-7.150959999999992e-05,6.91,0,0
-0.0011720782,0.01651602,0.0019742979999999998,0.0002675758,-0.00039452503999999996,6.911,0,0
-0.0013927102000000002,1.59200000000026e-05,0.00022355599999999975,-6.39542e-05,-0.00038304903999999995,6.912,0,0
-0.0021765382,-0.019856939999999997,-0.0029486,-0.0001065704,-5.3969439999999934e-05,6.913,0,0
-0.0033639526,-0.03506018,-0.005623292000000001,1.47304e-05,0.00054468796,6.914,0,0
-0.004037686,-0.045549820000000005,-0.006742268000000001,0.0002957046,0.0011354979600000001,6.915,0,0
-0.004103748000000001,-0.04840722000000001,-0.0054393208,0.0006087528,0.0013332874000000002,6.916,0,0
-0.0037462538,-0.04015044,-0.0032666078000000006,0.0006578302,0.0009546120000000002,6.917,0,0
-0.0023602222,-0.027941756,-0.0019591164000000005,0.0010816486,0.00043495520000000007,6.918,0,0
-0.0004770702000000001,-0.017399620000000005,-0.0006242650000000001,0.0015609314000000003,0.0005323846,6.919,0,0
0.0011703138,-0.007378020000000001,0.0007124270000000001,0.0016947234000000001,0.00015952419999999999,6.92,0,0
0.0021144978,0.001915860000000001,0.0020037978,0.001667852,-0.0006657418,6.921,0,0
0.002429517,0.009153020000000001,0.0041098648,0.0017994746000000001,-0.0011381844000000001,6.922,0,0
0.0031187874,0.013966776,0.0058198314,0.0014956618000000002,-0.0014739976,6.923,0,0
0.0027708174,0.01796994,0.005875986000000001,0.0007255357999999999,-0.0017427984000000002,6.924,0,0
0.0011319694,0.01978908,0.004298272,0.00021815499999999993,-0.001953344,6.925,0,0
0.0002549134,0.017407492,0.0014554099999999999,-0.00022109160000000007,-0.0018579080000000001,6.926,0,0
-0.0002313320000000001,0.01407119,-0.002513314,-0.0008047536,-0.00120692,6.927,0,0
-0.0011525200000000002,0.011907562000000002,-0.006602506,-0.0011902388,-0.00025551599999999996,6.928,0,0
-0.0014562462000000003,0.009987702000000001,-0.008852844,-0.0011765868000000001,-1.2329799999999863e-05,6.929,0,0
-0.0013336302000000002,0.010430462000000001,-0.009420528000000001,-0.0015540760000000002,0.00037668400000000007,6.93,0,0
-0.0016483542000000002,0.01460877,-0.009563146000000002,-0.002085794,0.0011344000000000003,6.931,0,0
-0.0017825382000000002,0.020709392,-0.009225754,-0.002181658,0.00145191,6.932,0,0
-0.0015441145999999998,0.02613256,-0.0068254744,-0.0019513190200000003,0.001992252,6.933,0,0
-0.0013800286,0.02716084,-0.0014572143999999993,-0.00152985182,0.0026318718000000003,6.934,0,0
-0.0013848526,0.020994788,0.005322347600000001,-0.00059179982,0.0025829606000000002,6.935,0,0
-0.0014580586000000001,0.011902368,0.011290227600000001,0.00106716018,0.0020773386,6.936,0,0
-0.0017640446,-0.002969051999999999,0.0158783596,0.0024910181800000004,0.0013548006,6.937,0,0
-0.0028263762000000003,-0.026893052,0.018875879999999998,0.0034866952,5.314060000000001e-05,6.938,0,0
-0.003618004,-0.039747872000000004,0.017170028,0.00427882,-0.0012017694,6.939,0,0
-0.0030426416,-0.034301660000000005,0.010096568000000002,0.004779646,-0.001649486,6.94,0,0
-0.0019445776000000003,-0.024342579999999996,0.0025697880000000004,0.004527276,-0.0014303648,6.941,0,0
-0.0006869316000000001,-0.01057006,-0.00217043,0.003827124,-0.0013640592,6.942,0,0
0.0010534964,0.006874232000000001,-0.005600126,0.0028698488,-0.0013431792,6.943,0,0
0.0025714624,0.011919232000000002,-0.007277410000000001,0.0013006808,-0.0007272240000000001,6.944,0,0
0.0031249220000000005,-0.0020871279999999997,-0.004663126,-0.00027805119999999993,-0.00030547459999999996,6.945,0,0
0.0034328979999999998,-0.021191528,-0.0017757920000000002,-0.0016802372,-0.0005974217999999999,6.946,0,0
0.003346104000000001,-0.033134128,-0.002280534,-0.0026059352000000003,-0.0005050198,6.947,0,0
0.0025880753999999997,-0.034036032,-0.0033272500000000003,-0.0030922980000000003,-4.275880000000003e-05,6.948,0,0
0.0017134906,-0.026821512,-0.0036458940000000002,-0.0031644900000000003,-0.000219884,6.949,0,0
0.000951686,-0.009493492000000001,-0.0041629604,-0.0033947600000000006,-0.0004902114000000001,6.95,0,0
-6.240000000000672e-07,0.012983008,-0.0034251944000000005,-0.0037571040000000007,-0.00031455080000000003,6.951,0,0
-0.0009420240000000001,0.028376148000000004,-0.0001948824000000001,-0.0036286640000000006,-0.00013517920000000002,6.952,0,0
-0.0013588834,0.036110460000000004,0.0023668516,-0.0034955160000000006,-0.00023171299999999998,6.953,0,0
-0.0021165066,0.03132640800000001,0.0027558607999999996,-0.003144886,-0.00019178480000000002,6.954,0,0
-0.0027478,0.022987656,0.0028139641999999996,-0.002406311,0.0002812372,6.955,0,0
-0.0021161780000000002,0.023748976,0.0024377984,-0.0014549768,0.0006959786000000001,6.956,0,0
-0.0008753580000000001,0.027594756,0.0009733203999999999,-0.0015079248000000002,0.0008428854,6.957,0,0
0.00013940199999999995,0.025147916,-0.0004936956,-0.0018193688,0.0010939882,6.958,0,0
0.0009438786000000001,0.012500708000000003,-0.0008458768,-0.001395949,0.0014991600000000002,6.959,0,0
0.0008916946,-0.0037949000000000004,-0.0010740298,-0.0012460596,0.0019268720000000003,6.96,0,0
-0.00013707740000000002,-0.01933638,-0.001888786,-0.0006120558000000001,0.0021252980000000003,6.961,0,0
-0.0009586670000000002,-0.034183500000000006,-0.0029313360000000005,0.0008299562,0.002369406,6.962,0,0
-0.001162601,-0.040930054,-0.0039011740000000003,0.0023235902,0.0027633300000000005,6.963,0,0
-0.0008316795999999999,-0.028638732000000004,-0.00523587,0.0032903404000000002,0.0026690000000000004,6.964,0,0
0.0003524044,-0.011268718,-0.007785698000000001,0.004335586,0.001905743,6.965,0,0
0.0026464664000000002,-0.004106832,-0.011031916,0.005282988000000001,0.001010627,6.966,0,0
0.005200324,0.0003263579999999999,-0.01408142,0.005712424,-0.00020652699999999986,6.967,0,0
0.006569738,0.004582412,-0.015797308000000003,0.006242915999999999,-0.0022296630000000002,6.968,0,0
0.007155550000000001,0.007208758,-0.014255862,0.0065347980000000005,-0.004172837,6.969,0,0
0.007908696000000002,0.007131029999999999,-0.009715192,0.0068046140000000005,-0.005317346000000001,6.97,0,0
0.007487542,0.006392242,-0.002384232,0.006784852000000001,-0.0060825919999999995,6.971,0,0
0.0056821680000000005,0.005121197300000001,0.008330408000000001,0.00629201,-0.006796204000000001,6.972,0,0
0.0041015456,0.0013625393,0.018199328,0.0050389764,-0.00667684,6.973,0,0
0.0026136436,0.00011848130000000003,0.024024010000000002,0.0028856324,-0.0059324519999999995,6.974,0,0
0.0003901576000000001,0.0016888953000000003,0.026431960000000004,-1.1053600000000656e-05,-0.005381942000000001,6.975,0,0
-0.0020579224000000004,0.0021054513,0.023763838000000006,-0.0035436936000000003,-0.004416934,6.976,0,0
-0.0040654244,0.0018982022000000004,0.015754766000000003,-0.0066364956,-0.0025242860000000006,6.977,0,0
-0.005292094000000001,0.0031127482000000003,0.007956228000000001,-0.009190042,-0.000523464,6.978,0,0
-0.00556086,0.003582984200000001,0.00298114,-0.01029482,0.0016716040000000001,6.979,0,0
-0.005190938,0.0038434242000000003,-0.00031366200000000003,-0.010799342,0.0035365860000000004,6.98,0,0
-0.004432672,0.005777210200000001,0.00026120000000000006,-0.009894738,0.0032039480000000007,6.981,0,0
-0.0030676754400000006,0.0069642540000000005,0.0028409499999999996,-0.005597246,0.0011632740000000008,6.982,0,0
-0.0020853942400000003,0.008768542,0.002133824,-0.0009177859999999999,-0.0015376440000000001,6.983,0,0
-0.0014003894400000001,0.012021916,-0.0020178080000000003,0.0026955879999999996,-0.004708054000000001,6.984,0,0
0.00021969455999999992,0.014901936000000001,-0.006961026,0.006169648,-0.007322644000000001,6.985,0,0
0.0024671225600000003,0.019480476,-0.012729566,0.007874122,-0.007455164,6.986,0,0
0.0049714220000000005,0.020808436,-0.018501184,0.00559231,-0.005389568,6.987,0,0
0.0068900308,0.010569380000000001,-0.020974600000000003,0.0016479860000000002,-0.0021289659999999995,6.988,0,0
0.00746547,-0.0010574999999999994,-0.01964076,-0.0023909459999999997,0.0022972520000000005,6.989,0,0
0.005871916,-0.011564399999999999,-0.016531806000000003,-0.006554346000000001,0.007322470000000001,6.99,0,0
0.0014315300000000003,-0.032847060000000004,-0.011108956000000001,-0.009650724,0.011805210000000002,6.991,0,0
-0.00485525,-0.051914,0.00013414400000000184,-0.011416984,0.014681800000000002,6.992,0,0
-0.009844874,-0.05397273999999999,0.011194664000000002,-0.011737756,0.01629838,6.993,0,0
-0.013172442,-0.04962671999999999,0.015242252000000001,-0.010731748,0.01626046,6.994,0,0
-0.014944700000000002,-0.0403717,0.0163432386,-0.0081847912,0.01385827,6.995,0,0
-0.013133674,-0.017931719999999998,0.013903962600000003,-0.0045401652,0.0098571,6.996,0,0
-0.009573054,0.008819320000000002,0.005686488600000001,-0.0005359071999999992,0.005314930000000001,6.997,0,0
-0.00614316,0.028344040000000004,-0.0007135233999999999,0.0041546288,0.0004152440000000004,6.998,0,0
-0.002483748,0.04057090000000001,-0.0009797394,0.0087595008,-0.0045196360000000005,6.999,0,0
0.000301656,0.044099040000000006,0.0014089200000000001,0.011897204000000002,-0.008406926,7.0,0,0
0.0014039898,0.03753274,0.004687534,0.013625238000000001,-0.010884696000000001,7.001,0,0
0.0027644718000000004,0.026799704000000004,0.0058476840000000006,0.013700720000000001,-0.011848006000000001,7.002,0,0
0.0038231418000000007,0.013366164,0.004876648000000001,0.012047108,-0.010901186000000002,7.003,0,0
0.004470151800000001,0.0005142039999999999,0.004685796000000001,0.009172496,-0.0083197848,7.004,0,0
0.0065331078,-0.007086314,0.003023484,0.005518958,-0.0047069348000000006,7.005,0,0
0.0083017,-0.00784979,0.0005429219999999998,0.0014162800000000002,-0.00014674480000000014,7.006,0,0
0.0074979320000000006,0.002641506,0.0003059340000000001,-0.00252853,0.0041982152,7.007,0,0
0.00470923,0.023767306000000002,-0.000173856,-0.005812438000000001,0.0070336771999999995,7.008,0,0
0.0013456520000000001,0.040374586,-0.003815776,-0.008457286000000001,0.008700318,7.009,0,0
-0.0026538660000000004,0.041423775999999995,-0.008157144000000002,-0.009713956000000001,0.009092088,7.01,0,0
-0.006130472000000001,0.030039591999999997,-0.01140207,-0.009451000000000001,0.0077634340000000005,7.011,0,0
-0.007448754000000001,0.0044122519999999985,-0.015115937999999999,-0.007697936400000001,0.0055351924000000005,7.012,0,0
-0.006210906,-0.023660608,-0.018911999999999998,-0.0044626924,0.0030898844000000003,7.013,0,0
-0.003978676000000001,-0.041718948000000006,-0.01941298,-0.0004863764000000005,-0.00011568560000000012,7.014,0,0
-0.0017728240000000003,-0.05384296,-0.013142459999999998,0.0033833016000000002,-0.0037165656,7.015,0,0
0.0009869380000000001,-0.05603746,-0.00241564,0.0064655276,-0.006497441600000001,7.016,0,0
0.003752848,-0.0447792,0.007015460000000001,0.008685554000000002,-0.0085382,7.017,0,0
0.005861058,-0.033392912,0.01435426,0.009587912,-0.009689396000000001,7.018,0,0
0.007427588,-0.026369464000000002,0.018217338,0.009000346,-0.00946205,7.019,0,0
0.008651012,-0.011687424,0.013890016000000002,0.00744765,-0.007856284,7.02,0,0
0.008855381999999998,0.0035964960000000002,0.003976156,0.004977714,-0.0051492199999999995,7.021,0,0
0.007641706,0.009587098,-0.0037299040000000005,0.0014702059999999997,-0.0020361859999999997,7.022,0,0
0.005412694,0.011407062000000003,-0.0065064696,-0.002401668000000001,0.0009423920000000004,7.023,0,0
0.002887488,0.011676834000000002,-0.0054468676,-0.005503634,0.0038497700000000006,7.024,0,0
-0.00027677200000000065,0.011085534000000001,-0.0010321456000000006,-0.007682124,0.006661404000000001,7.025,0,0
-0.0038330900000000004,0.011810214000000001,0.0041743744,-0.008598358,0.008324400000000001,7.026,0,0
-0.006618056000000001,0.012402164000000002,0.006476106400000001,-0.007790066,0.008818442000000001,7.027,0,0
-0.008684084000000002,0.010855474200000001,0.005357138000000001,-0.0059244464,0.00850391,7.028,0,0
-0.009779032,0.0089511202,0.00264946,-0.0033624963999999997,0.007079354,7.029,0,0
-0.009148086000000001,0.007468400200000001,-0.0002567644000000002,-0.0002931184000000001,0.004205884,7.03,0,0
-0.006794326,0.0057957202,-0.0022160266,0.0026066856000000003,0.0003000339999999996,7.031,0,0
-0.002727236,0.0062672882,-0.0011181986000000001,0.0049304656,-0.003274782,7.032,0,0
0.0024694040000000006,0.010529406,0.0023246554000000003,0.006651668,-0.006197701999999999,7.033,0,0
0.006477154,0.01722158,0.006244173400000001,0.0075315220000000006,-0.008302238,7.034,0,0
0.00929537,0.023810740000000004,0.0100834778,0.007404894,-0.008956374,7.035,0,0
0.011127870000000002,0.02756006,0.011865414000000001,0.006424176,-0.007950744,7.036,0,0
0.010911762000000002,0.028499420000000004,0.009260534,0.004358478,-0.0060793352,7.037,0,0
0.008814446,0.0197805,0.0031352740000000004,0.0014878120000000002,-0.0037522332000000003,7.038,0,0
0.005427124,-9.975999999999909e-05,-0.0032995259999999992,-0.0017144460000000003,-0.0008086712000000002,7.039,0,0
0.0014808460000000003,-0.02064946,-0.00793205,-0.0051956400000000005,0.0021841368000000004,7.04,0,0
-0.00244881,-0.033558080000000004,-0.008944856,-0.0080329,0.004772072800000001,7.041,0,0
-0.005393022,-0.03291406000000001,-0.005772604,-0.009418566000000001,0.007070324000000001,7.042,0,0
-0.006954428000000001,-0.02088056,-0.002342368,-0.009643000000000002,0.008670828,7.043,0,0
-0.007352224000000001,-0.0071148259999999994,-0.002056208,-0.008970878,0.008734898000000001,7.044,0,0
-0.007265584,0.0005975140000000004,-0.003589144,-0.006984226000000001,0.007431385999999999,7.045,0,0
-0.006753058000000001,0.0010464340000000015,-0.004803964000000001,-0.004359494,0.005229187999999999,7.046,0,0
-0.0061401780000000005,-0.006114106,-0.005040655999999999,-0.0018915100000000003,0.0022145940000000003,7.047,0,0
-0.0051410916000000015,-0.01480464,-0.003654413999999999,0.000905326,-0.00121936,7.048,0,0
-0.0027071796000000003,-0.015604604600000002,-8.691999999999988e-05,0.00357666,-0.00417132,7.049,0,0
0.00030434639999999996,-0.008505344599999999,0.0030085860000000006,0.005580418,-0.006145388000000001,7.05,0,0
0.0028523064,0.0008666154,0.0036904760000000003,0.006904618,-0.007485230000000001,7.051,0,0
0.0043095584,0.0051605314,0.0029512228000000006,0.007093352,-0.008096672000000001,7.052,0,0
0.004851804,0.0047483734,0.0012454348,0.006260180000000001,-0.007591716,7.053,0,0
0.004791512000000001,0.004365747999999999,-0.0015976652000000004,0.005084592000000001,-0.006152268000000001,7.054,0,0
0.004302696000000001,0.001587812,-0.0049434912000000004,0.0035749668000000004,-0.0041896599999999996,7.055,0,0
0.003602028,-0.003380368,-0.007771149200000001,0.0016871068000000001,-0.0019112159999999999,7.056,0,0
0.0029828630000000005,-0.0037442879999999997,-0.009981176,-0.0001207532000000002,0.0005222320000000002,7.057,0,0
0.002249996,-0.000350136,-0.010691386,-0.0015993792000000002,0.002541652,7.058,0,0
0.0010117740000000002,0.001683476,-0.007858718,-0.0028329792000000003,0.003750116,7.059,0,0
-0.0003711199999999999,0.005247272000000001,-0.0016100780000000005,-0.0037960940000000003,0.00405027,7.06,0,0
-0.001845026,0.010267912,0.004671562000000001,-0.004231386,0.0035313130599999997,7.061,0,0
-0.0027453850000000004,0.010711922,0.009679502000000001,-0.0034530196,0.00209598106,7.062,0,0
-0.003064036,0.007799571999999999,0.013281782,-0.0015482976,-1.1978940000000092e-05,7.063,0,0
-0.0033845720000000006,0.003868355999999999,0.01406015,0.0005153303999999999,-0.00213475894,7.064,0,0
-0.003333338,-0.0009634980000000008,0.011898436,0.0027382564,-0.00381751294,7.065,0,0
-0.0029275160000000002,-0.004690026,0.0080148686,0.0046190404,-0.004454344000000001,7.066,0,0
-0.0028475020000000005,-0.0063384980000000014,0.0035830866,0.005381606000000001,-0.003906852800000001,7.067,0,0
-0.002782586,-0.006446920000000002,0.0009310726000000001,0.005166138000000001,-0.0025894948,7.068,0,0
-0.0022309346,-0.006508700000000001,-0.00017054340000000002,0.004180322,-0.0011081688000000001,7.069,0,0
-0.0018537672,-0.006239672000000001,-0.0028705854000000003,0.0024983880000000003,0.0003422032000000001,7.07,0,0
-0.00127752336,-0.0053106366,-0.004531714,0.000646756,0.0016941492000000003,7.071,0,0
-0.00038712536000000007,-0.0053158486,-0.004396624,-0.0011023360000000002,0.0029860960000000006,7.072,0,0
0.00015591664,-0.0034595046,-0.00617529,-0.002855906,0.004249912,7.073,0,0
0.00050074524,0.0032235554,-0.009248604,-0.004010218,0.005600406,7.074,0,0
0.0010758798400000002,0.011903701400000001,-0.010647228000000002,-0.004319816000000001,0.006855902,7.075,0,0
0.00139524,0.019194814,-0.011584152,-0.0038838760000000005,0.0069768799999999995,7.076,0,0
0.0010105922000000001,0.028442552000000003,-0.011137348,-0.0030124039999999998,0.0057055608,7.077,0,0
0.0007815822,0.041906479999999996,-0.003358008,-0.001877242,0.0033358948,7.078,0,0
0.0008489882000000001,0.04440148000000001,0.006776252,-0.000771532,0.00031135679999999967,7.079,0,0
0.0009708902,0.035380286,0.011522972000000001,-0.0001943546,-0.0024456272,7.08,0,0
0.0013856602,0.02991184,0.013913888000000001,7.495520000000004e-05,-0.0044646312,7.081,0,0
0.002177964,0.013399040000000001,0.015705718,7.500320000000004e-05,-0.0056590600000000005,7.082,0,0
0.002623846,-0.01899446,0.011814419999999999,-0.00035509079999999996,-0.0055633,7.083,0,0
0.0025096254000000003,-0.03784208,0.0045503240000000006,-0.000606859154,-0.004711032,7.084,0,0
0.0021222694,-0.04773118600000001,0.0023316484000000005,-0.000616819954,-0.004054664,7.085,0,0
0.0014842402000000002,-0.06533004,0.0037927424,-0.001110595754,-0.0030704976,7.086,0,0
0.0009782344,-0.0671497,0.0043058324,-0.0017787417540000002,-0.0014557836,7.087,0,0
0.0010256024000000002,-0.050862524000000006,0.0038851584000000002,-0.0022985037540000004,-5.66656e-05,7.088,0,0
0.0016700390000000001,-0.03909515720000001,0.0040656284,-0.0030813114000000003,0.0012226644,7.089,0,0
0.002297555,-0.028239473200000004,0.003751462,-0.0037387640000000003,0.0029133304,7.09,0,0
0.0028442842,-0.008844173200000001,0.001156106,-0.0032869500000000003,0.0042856660000000005,7.091,0,0
0.00322869,0.0104927468,-0.0025862660000000003,-0.0021642956000000003,0.004618760000000001,7.092,0,0
0.0025951848,0.024809870799999998,-0.006596234000000001,-0.0009856296,0.0041469032000000005,7.093,0,0
0.0005737247999999999,0.036690723999999994,-0.009580988,0.0005706643999999999,0.0029620532,7.094,0,0
-0.0011581932000000001,0.046136960000000005,-0.01090778,0.0022680764,0.0006747032000000001,7.095,0,0
-0.0020999892,0.04536288000000001,-0.011994534000000001,0.0033304144000000004,-0.0021669908,7.096,0,0
-0.0029547732000000004,0.029533260000000002,-0.013412714000000001,0.003874758,-0.0046385008000000005,7.097,0,0
-0.002035276,0.014700159999999999,-0.014405234,0.0043143420000000005,-0.006353584000000001,7.098,0,0
0.000108384,0.010218020000000003,-0.014654494000000002,0.00421701,-0.007399678,7.099,0,0
0.0010200182200000001,0.007930880000000001,-0.0127990504,0.0035195300000000003,-0.007621118,7.1,0,0
0.00109266222,0.006010422,-0.006245090399999999,0.0027102060000000006,-0.006730748,7.101,0,0
0.0016649282200000002,0.009706342000000001,0.0009507696000000008,0.0019566760000000005,-0.005180418599999999,7.102,0,0
0.00146009222,0.0013035620000000012,0.0054656556,0.0006589459999999999,-0.0033766626,7.103,0,0
0.0003872080200000001,-0.026157258000000003,0.0104758956,-0.0009276040000000001,-0.0013320845999999996,7.104,0,0
3.857180000000005e-05,-0.04526787800000001,0.012947265999999999,-0.002209536,0.0010116314000000004,7.105,0,0
-9.382419999999991e-05,-0.048631,0.010508840000000002,-0.003535072,0.0033737874000000006,7.106,0,0
-0.00030331672000000003,-0.04480046000000001,0.009745799999999999,-0.004512667999999999,0.005115440000000001,7.107,0,0
-0.00072697172,-0.02978218,0.012004034,-0.004446665999999999,0.006075410000000001,7.108,0,0
-0.00126105952,-0.0041139400000000026,0.011242904,-0.0035860848,0.006423130000000002,7.109,0,0
-0.00209142752,0.01727152,0.007463288,-0.0025907184000000002,0.005994056000000001,7.11,0,0
-0.0033570035200000004,0.03086262,0.00464532,-0.0011638584,0.00477903,7.111,0,0
-0.0044624190000000005,0.038570600000000003,0.003125668,0.0007834875999999999,0.0031669768200000004,7.112,0,0
-0.005171450000000001,0.03975092,0.001810966,0.0023329396000000002,0.0015447508200000003,7.113,0,0
-0.005337794000000001,0.0380686,0.00179645,0.0033852324000000003,2.123482000000016e-05,7.114,0,0
-0.0045725,0.029971438,0.002606778,0.004019002,-0.00121438718,7.115,0,0
-0.0031657520000000004,0.012439618000000003,-1.5868000000000045e-05,0.0037986404000000004,-0.00215115718,7.116,0,0
-0.0031558800000000007,-0.006404781999999999,-0.004923236,0.0027781984,-0.002703748,7.117,0,0
-0.003673536,-0.016831982000000002,-0.00819149,0.0013984684,-0.002637178,7.118,0,0
-0.0036257340000000002,-0.020556341,-0.009507238000000001,0.000227905,-0.0021075420000000004,7.119,0,0
-0.0033528205999999996,-0.019765157000000002,-0.0074722,-0.0005842722,-0.0013753756,7.12,0,0
-0.0010139365999999998,-0.010675957,-0.002940162,-0.0012930026,-0.0003190596,7.121,0,0
0.0024814514,0.000989602999999999,-0.0003663380000000001,-0.0015679626,0.0014046084,7.122,0,0
0.0049054114,0.004345413,-0.00037860800000000033,-0.001440233,0.0029086624000000004,7.123,0,0
0.0066109714,0.0012208320000000003,-0.0021034860000000003,-0.0014293804,0.0036137124000000004,7.124,0,0
0.0072725260000000005,-0.002765010000000001,-0.004657710000000001,-0.0007001492000000001,0.004183226,7.125,0,0
0.005599344000000001,-0.004609630000000002,-0.005525694,0.0010007568,0.004024624,7.126,0,0
0.003053295,-0.0012955100000000015,-0.0038474900000000007,0.0020795288,0.0029313718000000006,7.127,0,0
0.001352359,0.00565758,-0.001822236,0.0028800432,0.0017575158,7.128,0,0
0.00020567699999999987,0.012558680000000001,-0.0008269740000000001,0.003989098,0.0006535158,7.129,0,0
-0.000285504,0.01780812,0.00019225539999999998,0.0038185640000000004,-0.00015428579999999997,7.13,0,0
-7.835399999999999e-05,0.0194227,-0.00016165460000000005,0.0027959504000000003,-0.0007590798,7.131,0,0
0.00034400300000000006,0.0072959,-0.0014027485999999999,0.0022726064,-0.0013802736,7.132,0,0
0.000375399,-0.011672680000000001,-0.00032529659999999986,0.0016534604000000002,-0.0017823435999999998,7.133,0,0
0.0007497857999999999,-0.019619880000000003,0.0021455214,0.0006925184,-0.0018118616,7.134,0,0
0.0015699108000000002,-0.020890952000000004,0.004823146,0.00018371580000000004,-0.0017717948,7.135,0,0
0.0019996688000000003,-0.020557032000000003,0.008721322,-0.00027057460000000003,-0.0012920648000000002,7.136,0,0
0.0027590888,-0.008282992000000003,0.010686994,-0.0010868166000000002,-0.0003784548,7.137,0,0
0.0035463908000000007,0.011580568000000001,0.008900410000000001,-0.0015116846,0.0005113592000000001,7.138,0,0
0.0030566860000000003,0.020472748,0.005246298000000001,-0.0019555986,0.0018054872000000002,7.139,0,0
0.000985842,0.020568406,-0.0013823019999999997,-0.0027983400000000003,0.002949404,7.14,0,0
-0.0018689120000000001,0.017216872000000005,-0.008891282,-0.003292952,0.003127922,7.141,0,0
-0.00401474,0.009336752,-0.013756968,-0.00319424,0.0028422364000000003,7.142,0,0
-0.004972728000000001,-0.004741688000000001,-0.016338404,-0.0030107159999999997,0.0028948223999999997,7.143,0,0
-0.005076612000000001,-0.021190868,-0.015523762,-0.0026453944,0.0023970403999999997,7.144,0,0
-0.0040219240000000005,-0.03031199400000001,-0.009005001999999998,-0.0015536104000000001,0.0012529622000000001,7.145,0,0
-0.001929918,-0.03369628,-0.0008580819999999996,-0.0003020263999999999,0.0007610934,7.146,0,0
-0.0004033900000000001,-0.03240602600000001,0.003808796000000001,0.0005615776,0.0006268024,7.147,0,0
-0.000437302,-0.023541150000000004,0.006275548000000001,0.0009939942,-0.00017858560000000003,7.148,0,0
-0.0007788179999999999,-0.009889370000000001,0.007770818000000001,0.0010090018,-0.0012151896,7.149,0,0
-0.001052656,0.0009696900000000005,0.006628656000000001,0.000830943,-0.0020690334,7.15,0,0
-0.0014645672,0.00795291,0.004086988000000001,0.0004188268,-0.0030009946,7.151,0,0
-0.0012905212,0.011106716,0.0040119000000000005,0.00011042460000000001,-0.0033228040000000004,7.152,0,0
-0.00032465520000000015,0.0101926482,0.006061352000000001,0.00018555799999999997,-0.0029001321999999998,7.153,0,0
0.0008758507999999999,0.0092354202,0.008161324000000001,0.0003304548,-0.0021489032,7.154,0,0
0.0018177967999999998,0.011512620200000002,0.009216806000000001,0.000531421,-0.0011510150000000002,7.155,0,0
0.0026473399999999998,0.018942520200000004,0.008987666,0.0007792552,-3.659280000000002e-05,7.156,0,0
0.0028615259999999997,0.029333260200000003,0.00807135204,0.0008701854,0.00035763580000000003,7.157,0,0
0.003053318,0.03944969200000001,0.00538667004,0.0008913794,0.00040160939999999996,7.158,0,0
0.00320062,0.046355400000000005,0.00037205004000000035,0.0009834498,0.0004865066,7.159,0,0
0.0027769110000000004,0.04413152000000001,-0.0050236499599999995,0.0011272944,9.160039999999992e-05,7.16,0,0
0.0020803874,0.018437860000000007,-0.009984621959999999,0.0012042484000000001,-0.00014939340000000008,7.161,0,0
0.0006798174000000002,-0.022777319999999997,-0.013806018,0.0009354620000000002,-0.00038013520000000005,7.162,0,0
-0.0008538426,-0.04925698,-0.016180979999999998,0.0007007770000000002,-0.0014693026000000002,7.163,0,0
-0.0020335506,-0.058568761999999996,-0.01801922,0.0005287746000000002,-0.0029215788000000005,7.164,0,0
-0.0028900116000000003,-0.060473696,-0.019652500000000003,-0.0004148634,-0.0040406688,7.165,0,0
-0.003378426,-0.043584144000000005,-0.0204691,-0.0015987174,-0.0053993672,7.166,0,0
-0.0029115048000000004,-0.011822484,-0.019817240000000003,-0.002183239,-0.005975002000000001,7.167,0,0
-0.0016950188000000004,0.008241616,-0.016072822000000004,-0.0025873700000000003,-0.004976377,7.168,0,0
-0.0004728108000000001,0.016156338,-0.0024424220000000014,-0.0026171156,-0.0032546050000000007,7.169,0,0
0.0003873796,0.023850912000000002,0.016913078,-0.002107223,-0.0010039550000000004,7.17,0,0
0.0008790709999999999,0.03048712,0.028671478,-0.0014720650000000003,0.001338427,7.171,0,0
0.0013049538,0.033438999999999997,0.032981564000000005,-0.0006268648,0.0031521630000000004,7.172,0,0
0.001078718,0.030716099999999996,0.033096582,-0.00010897219999999997,0.003972186,7.173,0,0
0.000547364,0.013621800000000002,0.0235032516,-9.731579999999999e-05,0.0038023659999999997,7.174,0,0
0.00036223960000000003,-0.015469480000000002,0.009137995600000002,0.0003375896,0.003284062,7.175,0,0
0.0001889102,-0.038351640000000006,0.0026516036,0.0012130956000000002,0.002787628,7.176,0,0
1.1811599999999987e-05,-0.04924068000000001,0.0017580276000000003,0.0017727754,0.0018796024,7.177,0,0
0.0001668074,-0.05058386400000001,0.0018996236000000002,0.0025162688,0.0009295064,7.178,0,0
0.0003801614,-0.035832084000000014,0.00221855,0.003241318,0.0005776223999999999,7.179,0,0
0.0006446386,-0.004629864000000001,0.0017165242000000002,0.0030812208000000007,0.00021094300000000006,7.18,0,0
0.0011035026,0.024619816000000003,0.0012679642000000002,0.0027485448000000006,-0.00017444740000000002,7.181,0,0
0.0011741744,0.041390876,-0.0005498278,0.0023011488,-0.00035863260000000005,7.182,0,0
0.0009427643999999999,0.04842076000000001,-0.0031415598,0.0015776712000000002,-0.0006533206,7.183,0,0
0.0008953857999999999,0.05012696,-0.0041997338,0.0013181292,-0.0005887502000000001,7.184,0,0
0.0007127065999999999,0.037962760000000005,-0.0030424199999999997,0.0014727624000000002,-9.334479999999998e-05,7.185,0,0
1.3598600000000016e-05,0.010797540000000001,-0.00028284800000000004,0.0011715564000000002,0.0002842336000000001,7.186,0,0
-0.0007887246000000001,-0.00865014,0.0010819102,0.0006771823999999999,0.0008082684000000001,7.187,0,0
-0.0010833066,-0.017056852,-0.0005632298,0.00021492400000000002,0.0018408964000000002,7.188,0,0
-0.0007474660000000002,-0.023516036000000004,-0.0037420918,-0.000663566,0.002343856,7.189,0,0
-0.00025432800000000017,-0.024011442000000004,-0.0088088038,-0.0013607,0.002027262,7.19,0,0
0.0002004116,-0.015756022,-0.014105123800000001,-0.0017131779999999999,0.002307514,7.191,0,0
0.0007518076000000002,-0.00861297,-0.013672692000000002,-0.002102088,0.00270527,7.192,0,0
0.0007223016,-0.004493778,-0.008263840000000001,-0.0023766760000000003,0.002423382,7.193,0,0
-0.0004230224000000001,4.400600000000008e-05,-0.0022068200000000004,-0.0022563720000000004,0.0024174039999999997,7.194,0,0
-0.0018850444000000004,0.0024144180000000006,0.0032108560000000006,-0.0021214000000000003,0.0027244640000000002,7.195,0,0
-0.002308902,0.0068151326,0.0048845320000000005,-0.00207551,0.0023062330000000004,7.196,0,0
-0.001881448,0.0106639806,0.0011050440000000003,-0.0014911246000000001,0.0012325810000000002,7.197,0,0
-0.0015515282400000003,0.0085298526,-0.0041515879999999995,-0.0006647786000000001,0.000441603,7.198,0,0
-0.0011300242400000002,0.0072738126,-0.006313708,-0.0002695616,-3.392880000000008e-05,7.199,0,0
-0.00059174024,0.0146981466,-0.006988709999999999,-7.410759999999993e-05,-0.0005348688,7.2,0,0
-0.0006956022399999999,0.019657812,-0.006283257,0.00042493100000000003,-0.0009700418,7.201,0,0
-0.00092388384,0.011017372,-0.0017525129999999996,0.0008405076000000001,-0.0011785498,7.202,0,0
-0.0005231696,0.0016868799999999982,0.0027986950000000003,0.0006570346000000001,-0.0013387258,7.203,0,0
0.0001569424000000001,-0.004556619999999999,0.002055659,0.00023973959999999992,-0.001849088,7.204,0,0
0.0014988504,-0.013349393999999999,-0.0026416150000000004,-2.552640000000008e-05,-0.002596336,7.205,0,0
0.0027411424,-0.01769998,-0.007846763999999999,-0.000562393,-0.002939298,7.206,0,0
0.003119966,-0.009040499999999998,-0.013938248,-0.0012813650000000002,-0.002649541,7.207,0,0
0.0031199220000000002,0.004114660000000001,-0.019326556,-0.0016207320000000002,-0.002231664,7.208,0,0
0.00264195368,0.008706296,-0.017755978000000002,-0.00166493,-0.0016622717799999998,7.209,0,0
0.00143994168,0.00363719,-0.002092377999999999,-0.0012728118,-0.00106823778,7.21,0,0
-0.00010606632000000006,-0.012325004,0.019483162000000002,-0.0006710657999999999,-0.00093027178,7.211,0,0
-0.0013073023200000002,-0.030385584,0.033264022000000004,-0.00041454619999999997,-0.0010811587800000002,7.212,0,0
-0.00206015032,-0.037550744,0.039515224,-0.00034875560000000006,-0.0012941217800000002,7.213,0,0
-0.0023346540000000002,-0.03394724,0.037490836,-0.0002880256,-0.0015151520000000003,7.214,0,0
-0.0018556199999999999,-0.019184899999999998,0.023458516000000006,-0.0004711722000000001,-0.0014298378000000003,7.215,0,0
-0.0008205179999999999,0.008949700000000001,0.0037335960000000005,-0.0008604390000000002,-0.0010261544000000002,7.216,0,0
-0.00034802400000000005,0.03820806,-0.012912004000000001,-0.000957575,-0.0004951864,7.217,0,0
-0.0001207214,0.05421242,-0.026858366,-0.0009175600000000001,1.7917399999999972e-05,7.218,0,0
2.945600000000035e-06,0.05689094,-0.03776902,-0.0012318720000000002,0.0001065896,7.219,0,0
-0.000363353,0.047534132,-0.04301126,-0.0016460196,0.0002181668,7.22,0,0
-0.0007537554000000001,0.017026572000000007,-0.040274468,-0.0016431686,6.104539999999997e-05,7.221,0,0
-0.0014437574,-0.026112828,-0.024168468000000002,-0.0014672922,-0.00036588440000000005,7.222,0,0
-0.0024386400000000006,-0.051435148,0.007985552000000003,-0.0015399878000000003,-0.00039169780000000004,7.223,0,0
-0.0029535210000000006,-0.052606248,0.044555412,-0.0015858598,-0.00040791700000000005,7.224,0,0
-0.0026085880000000002,-0.040526519999999996,0.065517512,-0.0015315418,-0.0006460984,7.225,0,0
-0.0017025436000000006,-0.009363860000000002,0.065918874,-0.0012778988,-0.0003984082,7.226,0,0
-0.0002444276000000002,0.02707958,0.048846754000000006,-0.0008875767999999999,0.0004355056000000001,7.227,0,0
0.0010359968,0.03367514,0.018459014000000003,-0.00019820079999999994,0.0005733052000000002,7.228,0,0
0.0016591878000000002,0.020501299999999997,-0.011278166,0.0011456152,0.00038568020000000013,7.229,0,0
0.0012580514000000002,0.009002917999999997,-0.027465386,0.0023463792,0.00017052820000000005,7.23,0,0
0.00017857139999999996,-0.001407122000000001,-0.029114622000000003,0.0028891100000000003,-0.0005698500000000001,7.231,0,0
-0.0001480246,-0.011360162000000002,-0.023209802000000005,0.00289645,-0.001431448,7.232,0,0
0.00014156099999999995,-0.017369722000000004,-0.019055282,0.00286782,-0.0018980408,7.233,0,0
0.00044315000000000007,-0.019398622,-0.018653902,0.003002812,-0.0018511428,7.234,0,0
0.000937282,-0.0220558,-0.018049382000000003,0.0026895020000000003,-0.001489482,7.235,0,0
0.001909654,-0.023629523999999996,-0.019619260000000003,0.0021412246,-0.0008794094,7.236,0,0
0.0023899660000000003,-0.019136063999999998,-0.021934980000000003,0.0018283058,-0.0002894514,7.237,0,0
0.002256808,-0.005227764,-0.021099180000000002,0.0011568557999999999,0.00048231340000000014,7.238,0,0
0.002591242,0.006809516,-0.01919596,0.00014507779999999997,0.0015169274000000003,7.239,0,0
0.0029540100000000004,0.010801092,-0.011812660000000003,-0.00040922060000000006,0.0023217006,7.24,0,0
0.0021599096000000004,0.0090397394,0.00010890000000000032,-0.0006119882000000001,0.002356614,7.241,0,0
0.0008890376000000002,0.0038411594,0.00800294,-0.0006757081400000001,0.001704474,7.242,0,0
-0.00010246039999999978,0.0017906463999999998,0.014671556,-0.0006487521400000001,0.001075748,7.243,0,0
-0.0014177284,0.0036274664000000003,0.018994682,-0.0007364381399999999,0.00029491459999999995,7.244,0,0
-0.0023674364,0.006201050400000001,0.017241402000000003,-0.0008926057400000001,-0.000513345,7.245,0,0
-0.0024644244,0.006953693,0.018209162,-0.00129146274,-0.00041465779999999997,7.246,0,0
-0.0022679984,0.007596393,0.022685562000000003,-0.0018154680000000002,0.0001035222,7.247,0,0
-0.0022743004,0.0075611728800000005,0.023605186000000004,-0.00191384,0.0002244606,7.248,0,0
-0.0020101624000000004,0.00809435288,0.023878598000000004,-0.0018089210000000002,0.000473846,7.249,0,0
-0.0014910364,0.011924572880000001,0.021947014,-0.001566029,0.0012009636,7.25,0,0
-0.001515412,0.01721568688,0.012796192000000001,-0.0006425270000000002,0.0018153484,7.251,0,0
-0.001598758,0.021259382880000004,0.0041380060000000005,0.000474963,0.0019695304000000003,7.252,0,0
-0.0015683160000000002,0.018919596000000004,0.0004811800000000001,0.0007464556,0.0019183042000000003,7.253,0,0
-0.0012702339999999999,0.005032116000000003,-0.003032466,0.0006289926,0.0014411762,7.254,0,0
-0.0005269059999999997,-0.010305804,-0.008757102000000001,0.0008341244,0.0004728022,7.255,0,0
0.0007328460000000003,-0.01507986,-0.01494142,0.0005423004,-0.0004309418,7.256,0,0
0.0023348480000000005,-0.014009496000000001,-0.021159274,7.09714e-05,-0.0011254458000000001,7.257,0,0
0.003734978,-0.010502810000000001,-0.025889667999999998,0.0009670108000000001,-0.001502546,7.258,0,0
0.00426408,-0.00369478,-0.024817124,0.0027030688,-0.001495732,7.259,0,0
0.00409957,0.00924352,-0.018696644,0.004161915,-0.0013349260000000002,7.26,0,0
0.004142774,0.022922356,-0.008958984,0.005640979,-0.00110938,7.261,0,0
0.00360009,0.026556596000000002,0.0021417760000000006,0.007455516000000001,-0.000738258,7.262,0,0
0.0027659888,0.024813958000000004,0.009373578,0.008511804,-0.0003290451999999999,7.263,0,0
0.0021648507999999997,0.027279628,0.011359270000000001,0.008265902,0.00018923480000000004,7.264,0,0
0.0017162768,0.012444788,0.0095038342,0.006751148,0.0010910688,7.265,0,0
0.0009917248,-0.032559472,0.007628874200000001,0.00296882,0.0018760988000000001,7.266,0,0
-0.00017260319999999997,-0.064941152,0.008439374200000002,-0.0021882360000000005,0.0023352628,7.267,0,0
-0.000416474,-0.07014693999999999,0.010951772200000001,-0.007036378,0.00288001,7.268,0,0
0.00014084400000000005,-0.06760278,0.016717584200000003,-0.011210116000000001,0.0031745300000000005,7.269,0,0
-7.901500000000003e-05,-0.046315379999999996,0.02389712,-0.013663960000000001,0.002847052,7.27,0,0
-0.0009506689999999999,0.005093620000000007,0.022079598000000002,-0.013333142000000001,0.0026026620000000004,7.271,0,0
-0.00027067339999999995,0.05393302,0.013748538000000001,-0.01149346,0.0023840140000000003,7.272,0,0
0.0007467906000000001,0.07115637999999999,0.009131300000000002,-0.00907295,0.0016982502000000002,7.273,0,0
0.0007069226,0.06877364800000002,0.0019711179999999996,-0.0061103194,0.0009749224000000003,7.274,0,0
0.0009428616000000001,0.05517651,-0.007775022000000001,-0.0034766954000000007,-2.9047600000000023e-05,7.275,0,0
0.0015804144,0.027876630000000003,-0.01134596,-0.0009759813999999999,-0.0015697336000000002,7.276,0,0
0.0010951468,-0.012068229999999996,-0.013434820000000002,0.0010636746000000001,-0.0028986796000000006,7.277,0,0
-0.00027097520000000003,-0.045085009999999995,-0.021199262000000003,0.0023504926000000002,-0.0034714538000000005,7.278,0,0
-0.0011089192,-0.056217418,-0.03077136,0.0033516220000000003,-0.0033106537800000006,7.279,0,0
-0.0024455912,-0.0546959238,-0.04070446,0.004032608,-0.00200665378,7.28,0,0
-0.003529914,-0.0449883438,-0.05159450000000001,0.004683474,-0.0005097977800000001,7.281,0,0
-0.0030220204,-0.0225137638,-0.058035300000000005,0.005000956000000001,0.00071963422,7.282,0,0
-0.0014306003999999999,0.006157376200000001,-0.057927240000000005,0.004860254,0.00198049022,7.283,0,0
3.134360000000007e-05,0.023795436200000002,-0.04553394,0.005870446,0.002262082,7.284,0,0
0.0012381710000000001,0.024662444000000002,-0.021752020000000004,0.008161255999999999,0.0016464050200000002,7.285,0,0
0.0013286329999999996,0.012475904000000001,0.0051058599999999985,0.010005698,0.00111162182,7.286,0,0
-0.0007661666000000002,-0.003076716,0.03286066,0.011733338,0.00072611462,7.287,0,0
-0.0033309566000000006,-0.013167296000000002,0.055208020000000003,0.012989283999999999,0.00025768082,7.288,0,0
-0.005202610600000001,-0.017278976,0.05940282,0.012140052,0.0009971868200000001,7.289,0,0
-0.006105084000000001,-0.014432220000000003,0.054113220000000004,0.009572598,0.0025767158000000005,7.29,0,0
-0.005790476000000001,-0.0018118000000000014,0.049720280000000006,0.0065707044,0.004200815,7.291,0,0
-0.0037601038000000006,0.01581656,0.031968420000000004,0.0042009664000000006,0.0057932162,7.292,0,0
-0.0017869718000000003,0.029110039999999997,0.007111920000000001,0.0030560784000000004,0.006461290000000001,7.293,0,0
-0.0012838578,0.0350406,-0.01110298,0.0020640456000000002,0.005476277400000001,7.294,0,0
-0.0011508338000000003,0.03698008,-0.026605580000000004,0.0005415975999999999,0.0028137314,7.295,0,0
-0.0010367478,0.034680908,-0.03756584,-0.0009486068000000002,-0.00041205259999999976,7.296,0,0
-0.001676374,0.022514608,-0.028447660000000003,-0.0030102588000000003,-0.0033642226000000003,7.297,0,0
-0.002742772,0.005076987999999998,0.0016368400000000005,-0.0054857148,-0.005863426600000001,7.298,0,0
-0.0020684000000000006,-0.006763552000000001,0.03258848,-0.00745141,-0.008135836,7.299,0,0
0.00020280600000000004,-0.013091074000000001,0.05111998,-0.008458746000000001,-0.009288024,7.3,0,0
0.00257527,-0.024311082000000005,0.055225746000000006,-0.008808114,-0.009514606000000002,7.301,0,0
0.00519254,-0.033840962,0.045721666,-0.00886265,-0.009827262000000002,7.302,0,0
0.008158628000000001,-0.0265864474,0.023361646,-0.008991486,-0.010036038,7.303,0,0
0.009594516,-0.009392267400000003,0.0043839280000000005,-0.009146332,-0.009844398,7.304,0,0
0.009556662,0.0101281746,-0.0014743920000000006,-0.009448514,-0.009471272,7.305,0,0
0.009356428,0.0342540546,-0.006305038000000001,-0.010425848000000001,-0.009259936,7.306,0,0
0.008324548,0.056064974600000005,-0.014394238,-0.010829682,-0.009047434,7.307,0,0
0.006937408000000001,0.04840568,-0.020899138,-0.011458014,-0.008938448000000002,7.308,0,0
0.005531328,0.002551139999999997,-0.026241900000000002,-0.012447320000000001,-0.007984946,7.309,0,0
0.0036562739999999997,-0.04579868000000001,-0.030563196,-0.012068308000000002,-0.0059603038,7.31,0,0
0.002140036,-0.07237862,-0.026909208,-0.010089310000000002,-0.0033281018000000007,7.311,0,0
0.0012097142,-0.08307762,-0.015105396000000002,-0.006986978,0.0007170641999999995,7.312,0,0
-0.0005025098,-0.07279478,-0.0040514700000000015,-0.0034066820000000003,0.005886028200000001,7.313,0,0
-0.0021077558,-0.037579800000000003,0.0023436060000000002,-0.00011895399999999989,0.010457686200000002,7.314,0,0
-0.0031081038000000004,-0.0035816000000000008,0.0058392420000000006,0.0019584800000000003,0.013613278000000001,7.315,0,0
-0.0050229898000000005,0.01768234,0.006474508,0.0033095220000000005,0.0157926,7.316,0,0
-0.007096936000000002,0.033919880000000006,0.0039815960000000004,0.003822288,0.01653318,7.317,0,0
-0.008340852000000001,0.0441358,0.00046215000000000015,0.004427422,0.0157575,7.318,0,0
-0.009158854000000001,0.051203500000000006,-0.003944146000000001,0.006578114000000001,0.014539420000000003,7.319,0,0
-0.009646912,0.05572936000000001,-0.010682786,0.009078128000000001,0.013717740000000003,7.32,0,0
-0.009414624,0.05315036000000001,-0.01532698,0.010705968000000001,0.013455120000000003,7.321,0,0
-0.008788384,0.041213684,-0.01670276,0.011224130000000002,0.012234136000000001,7.322,0,0
-0.007699292,0.022382584,-0.015729701999999998,0.010853892,0.00984551,7.323,0,0
-0.006089604,-0.005514856000000002,-0.005244342,0.009500168,0.007118136000000001,7.324,0,0
-0.004174586,-0.035537516000000005,0.008688698000000002,0.009429548,0.003269726,7.325,0,0
-0.0021765380000000004,-0.051859275999999996,0.015454318,0.012458088,-0.0023355740000000004,7.326,0,0
-0.0009639530000000002,-0.052897363999999995,0.0199182,0.016382548,-0.00808303,7.327,0,0
0.0001036779999999999,-0.04173674399999999,0.020372690000000002,0.019534856,-0.012660604000000002,7.328,0,0
0.0017517459999999998,-0.017104744000000005,0.007835250000000002,0.0206533,-0.01636937,7.329,0,0
0.0025600939999999997,0.009989976000000001,-0.00981845,0.018223787999999998,-0.01756522,7.33,0,0
0.0022024719999999996,0.020227856000000002,-0.023820630000000002,0.012167018,-0.015744866000000003,7.331,0,0
0.0022061518,0.019321836,-0.039581512,0.004960352000000001,-0.012065524000000001,7.332,0,0
0.0018940348,0.017928736000000004,-0.05204816,-0.0005867120000000003,-0.006657706,7.333,0,0
-0.00024321119999999986,0.015094716000000001,-0.05166128,-0.004910172,-0.0009846120000000002,7.334,0,0
-0.0030960911999999997,0.007955664,-0.038205699999999995,-0.01008366,0.002934688,7.335,0,0
-0.0047630272000000005,0.0017171039999999997,-0.011046199999999999,-0.01625935,0.005365258,7.336,0,0
-0.004613334,-0.0012422120000000017,0.024430280000000002,-0.022201124000000003,0.006799952000000001,7.337,0,0
-0.0027589380000000003,-0.011091392,0.05120596,-0.028243,0.0069688680000000005,7.338,0,0
0.0004476520000000002,-0.022387792,0.05863914,-0.03312662,0.006245036000000001,7.339,0,0
0.004923058,-0.022849654,0.054447527999999995,-0.03421838,0.0038773460000000007,7.34,0,0
0.009856532000000001,-0.011466234000000002,0.040461967999999994,-0.03123174,-0.000494198,7.341,0,0
0.012998922,0.004458185999999999,0.017308228,-0.025252685999999996,-0.005346554,7.342,0,0
0.014075999999999998,0.021744265999999998,0.001861928,-0.017513536,-0.009739408000000001,7.343,0,0
0.013840626000000002,0.031942686,0.0007887120000000002,-0.008549056,-0.01295615,7.344,0,0
0.01154679,0.03199276,0.0028097440000000003,0.0007037640000000004,-0.013397913999999999,7.345,0,0
0.006959972,0.030344160000000002,-0.0018683159999999996,0.008543684,-0.01098033,7.346,0,0
0.0006500119999999997,0.026823400000000004,-0.008246456000000001,0.013654470000000002,-0.007071561999999999,7.347,0,0
-0.006548968,0.02398596,-0.012386416,0.01673006,-0.0026672779999999995,7.348,0,0
-0.013598014,0.01561086,-0.013685160000000002,0.018393800000000002,0.0017394179999999997,7.349,0,0
-0.018427538,0.001752280000000002,-0.006556279999999998,0.0188367,0.006377412000000001,7.35,0,0
-0.01823083,-0.010146159999999998,0.005817619999999999,0.0190366,0.011004188000000002,7.351,0,0
-0.01302479,-0.02309206,0.01672674,0.01915944,0.01473282,7.352,0,0
-0.006080730000000001,-0.032194007999999996,0.02353682,0.019285800000000002,0.016451316,7.353,0,0
0.0010875300000000002,-0.0289245,0.024783477999999998,0.018299620000000003,0.015451434,7.354,0,0
0.00800269,-0.024086040000000003,0.015480902,0.015755019999999998,0.011230294,7.355,0,0
0.0113913,-0.0331312,-0.0009642179999999993,0.01126137,0.004465494,7.356,0,0
0.01147338,-0.04301848,-0.014142918000000003,0.0044972300000000005,-0.002222846,7.357,0,0
0.01202126,-0.046051112,-0.022568778,-0.00279485,-0.007093336,7.358,0,0
0.01294848,-0.0424808,-0.028824356000000002,-0.00874567,-0.009870874,7.359,0,0
0.012423288,-0.025389159999999994,-0.031513016000000005,-0.01306767,-0.010841036,7.36,0,0
0.010926627999999999,-0.0006781599999999971,-0.023686732000000002,-0.01558322,-0.009948456,7.361,0,0
0.008757567999999999,0.01960446,-0.008893792,-0.015028940000000001,-0.007772182,7.362,0,0
0.004766892,0.02945426,0.0027721480000000003,-0.012767892000000001,-0.005454644,7.363,0,0
-0.00012302199999999998,0.03334732,0.009171242000000001,-0.00970025,-0.004153204,7.364,0,0
-0.00439545,0.03303856,0.012922618,-0.00611494,-0.0036154760000000003,7.365,0,0
-0.0070567320000000005,0.030341800000000002,0.015202954000000001,-0.0023531199999999998,-0.002855588,7.366,0,0
-0.008104068,0.028638260000000002,0.015251474000000001,0.00201596,-0.0025462056,7.367,0,0
-0.008747408000000002,0.024267246000000003,0.014936314000000001,0.006154892,-0.0025949735999999998,7.368,0,0
-0.007278194000000001,0.017765276000000003,0.01035748,0.00943127,-0.0014388396000000001,7.369,0,0
-0.0043341460000000005,0.01119552,-0.0042179999999999995,0.011718820000000001,0.0014459044000000002,7.37,0,0
-0.0045311760000000005,0.0041032379999999995,-0.0189174,0.013231000000000001,0.0041496904,7.371,0,0
-0.006749,-0.0028587020000000003,-0.023519232,0.013238560000000002,0.006242045999999999,7.372,0,0
-0.007435284,-0.010152348,-0.022495192000000004,0.01166466,0.008859206,7.373,0,0
-0.008119552,-0.013791158000000001,-0.011799612000000003,0.008999258000000001,0.011401536,7.374,0,0
-0.008270408000000002,-0.019101102000000002,0.008109788,0.005302618,0.012431366,7.375,0,0
-0.004816076,-0.026341140000000006,0.013192147999999997,0.0008642380000000002,0.011154079999999999,7.376,0,0
0.0011642640000000004,-0.021059700000000004,0.003650219999999999,-0.003716562,0.006368867999999999,7.377,0,0
0.007996404,-0.01115308,-0.0015803399999999997,-0.007686541999999999,-0.002418832000000001,7.378,0,0
0.014449992000000002,-0.005532169999999999,-0.007730105999999999,-0.01128598,-0.011729592,7.379,0,0
0.018512,0.0069840100000000006,-0.012623046,-0.014266459999999998,-0.018233492,7.38,0,0
0.02004496,0.02280209,-0.004653209999999999,-0.016840679999999997,-0.02102704,7.381,0,0
0.01919037,0.02512389,0.0017236700000000005,-0.019956500000000002,-0.018915806,7.382,0,0
0.015726758,0.02467347,-0.004384809999999999,-0.023123480000000002,-0.012766142000000001,7.383,0,0
0.011303134000000001,0.022581308,-0.008944964,-0.02398886,-0.006309422,7.384,0,0
0.006486632000000001,0.007139208000000001,-0.01092897,-0.021702754,-0.0011302339999999997,7.385,0,0
0.000699692,-0.006716272,-0.015520246000000001,-0.017045945000000003,0.004526126,7.386,0,0
-0.004961438,-0.012363830000000001,-0.017371706,-0.008374524999999999,0.011226692000000002,7.387,0,0
-0.010421086,-0.015304888,-0.010069662000000002,0.004483915,0.018370568000000004,7.388,0,0
-0.017078702,-0.013975940000000001,0.0035481179999999994,0.018041835,0.026121988,7.389,0,0
-0.02378802,-0.006520528,0.008418123999999999,0.029711749000000003,0.03341372,7.39,0,0
-0.029088960000000004,-0.005059988,0.011895368,0.03833204,0.03839058,7.391,0,0
-0.033119579999999996,-0.01273995,0.025157208,0.04140172,0.03934936,7.392,0,0
-0.034344480000000004,-0.017883212000000002,0.032937644,0.036941180000000004,0.03660584,7.393,0,0
-0.032107340000000005,-0.017632642000000004,0.025470144000000004,0.027131054000000005,0.031283160000000004,7.394,0,0
-0.027363080000000005,-0.015539588000000002,0.017944045999999998,0.016127468000000006,0.024258480000000002,7.395,0,0
-0.019936238000000002,-0.012623348,0.013458042000000002,0.0065970479999999995,0.016892604000000002,7.396,0,0
-0.010814730000000002,-0.00542922,0.0063616099999999984,-0.001100932,0.009408368,7.397,0,0
-0.00212121,0.006584560000000001,0.007830489999999999,-0.006298532000000001,0.0020001880000000004,7.398,0,0
0.00564597,0.014658414000000002,0.01851979,-0.009028766,-0.006838152,7.399,0,0
0.01256871,0.017747548000000002,0.028207968000000003,-0.01124868,-0.018335972,7.4,0,0
0.018102988000000004,0.024929608000000002,0.029298588000000004,-0.012098746,-0.031169656,7.401,0,0
0.0225752,0.01907876,0.022142620000000002,-0.011479986000000001,-0.04450036,7.402,0,0
0.0256715,-0.002238180000000001,0.0048042,-0.011360466,-0.05668084,7.403,0,0
0.026780500000000002,-0.012270320000000001,-0.01720514,-0.011953026000000002,-0.06273678,7.404,0,0
0.0275703,-0.009136380000000003,-0.031876440000000006,-0.013633286000000001,-0.05985652,7.405,0,0
0.027934320000000002,-0.002243960000000003,-0.04097674,-0.017536700000000002,-0.05091046,7.406,0,0
0.025704000000000005,0.016907440000000003,-0.04776858,-0.022052040000000002,-0.038228398000000004,7.407,0,0
0.021609480000000004,0.04482218,-0.05035586,-0.024772760000000005,-0.022910882000000004,7.408,0,0
0.017743566000000002,0.06215042,-0.04654474,-0.025571980000000005,-0.007315161999999999,7.409,0,0
0.013298612,0.06800458000000001,-0.037667822,-0.022663100000000002,0.0047811780000000005,7.41,0,0
0.008868254,0.05783610200000001,-0.022632542000000002,-0.015440286000000001,0.012485038,7.411,0,0
0.006092636000000001,0.032351162,-0.008065574000000002,-0.006231166000000001,0.018586416,7.412,0,0
0.0041606804,-0.006048338000000004,0.0050562260000000005,0.003718254,0.02255616,7.413,0,0
0.0016497784,-0.057077998000000005,0.019889906,0.013522374,0.02246706,7.414,0,0
-0.0026882475999999997,-0.09495731800000001,0.028636948000000002,0.020536053999999998,0.02015448,7.415,0,0
-0.006635189600000001,-0.10501624000000001,0.031427188,0.023469100000000003,0.01831804,7.416,0,0
-0.0087236656,-0.09532602,0.03261622,0.024025980000000002,0.016934400000000002,7.417,0,0
-0.01001948,-0.06834796,0.025109500000000003,0.023121860000000004,0.01576812,7.418,0,0
-0.01092502,-0.030385799999999998,0.0062874800000000015,0.02015298,0.01521042,7.419,0,0
-0.0121362,-0.005413806400000001,-0.004305006000000001,0.015897280000000003,0.014288097999999999,7.42,0,0
-0.014285619999999999,0.0023998836000000004,-0.003082846,0.011384285,0.011397098199999999,7.421,0,0
-0.017197366000000002,0.005393869600000001,0.008631214000000002,0.006526443000000001,0.007578430199999999,7.422,0,0
-0.021209696000000004,0.004386029600000001,0.032235594000000006,0.0018387310000000003,0.004105767,7.423,0,0
-0.025389520000000002,0.0037943496,0.042823534,-0.002732669,0.0004469830000000001,7.424,0,0
-0.024477380000000003,0.008882296000000001,0.033446380000000005,-0.007195309,-0.001881021,7.425,0,0
-0.018693598000000002,0.022349666,0.021952500000000003,-0.010795294,-0.0026609472000000004,7.426,0,0
-0.011587278000000001,0.04731954000000001,0.005726220000000001,-0.013248432000000001,-0.0041311032,7.427,0,0
-0.002215338,0.07788052000000001,-0.0169985,-0.014856620000000001,-0.00763926,7.428,0,0
0.008451282,0.10435164,-0.02768692,-0.014082210000000001,-0.011780895999999999,7.429,0,0
0.017126502,0.11199642000000001,-0.030908400000000003,-0.010728922000000002,-0.01376281,7.43,0,0
0.02261858,0.09241866,-0.040165940000000004,-0.00652561,-0.012915399599999999,7.431,0,0
0.025696119999999996,0.04870912,-0.05370242,-0.0023530820000000003,-0.009725977599999998,7.432,0,0
0.023975299999999998,-0.02541028,-0.06367020000000001,2.273259999999996e-05,-0.0035101376,7.433,0,0
0.0181925,-0.10578208,-0.059393360000000006,0.0010144446,0.0042338024,7.434,0,0
0.011968388000000002,-0.14282640000000002,-0.04820013,0.0020678826000000003,0.008624914400000001,7.435,0,0
0.0037489480000000006,-0.13158622,-0.027699750000000002,0.0028814186000000004,0.009589618000000001,7.436,0,0
-0.006289672,-0.0970488,0.010988890000000001,0.0031839426000000006,0.009017308,7.437,0,0
-0.012352112,-0.03917920000000001,0.04826873,0.003945912,0.0066496635999999994,7.438,0,0
-0.013343272,0.0261919,0.07285711,0.005091236,0.0042498536,7.439,0,0
-0.0146361,0.06331554,0.08826724000000001,0.005016878000000001,0.0029964776,7.44,0,0
-0.013997566,0.07257670000000001,0.08530674,0.0030932740000000005,0.0018327168000000003,7.441,0,0
-0.008406388,0.06671993999999999,0.05724472,0.0006756960000000004,-0.00023057319999999972,7.442,0,0
-0.0022729079999999997,0.051954020000000004,0.018709660000000003,-0.0007874679999999998,-0.0021026508,7.443,0,0
0.0022539320000000006,0.030593600000000006,-0.013021460000000004,-0.0020422080000000002,-0.003957432800000001,7.444,0,0
0.006874952000000001,0.00963572,-0.030879840000000006,-0.0026739157600000002,-0.006859088800000001,7.445,0,0
0.010422938,-0.012270860000000001,-0.0356212,-0.0018636137599999999,-0.00875449,7.446,0,0
0.011637100000000001,-0.033754040000000006,-0.025860200000000003,-0.0020900617600000003,-0.00799003,7.447,0,0
0.011687000000000001,-0.04075538000000001,-0.0033447400000000006,-0.00406594176,-0.00559146,7.448,0,0
0.010100468000000001,-0.03469847400000001,0.01198072,-0.00470700176,-0.0019478680000000006,7.449,0,0
0.008102570400000002,-0.027081744000000005,0.013789902000000001,-0.004192090000000001,0.003251412,7.45,0,0
0.005344022400000001,-0.018726004,0.009205561999999999,-0.003115784,0.008154326,7.451,0,0
