bandpass 1,bandpass 2,bandpass 3,bandpass 4,bandpass 5,time,onset,mark
0.0004720344000000001,-0.0010931553999999999,-0.00043568036,-0.0037124080000000004,0.00011771220000000001,7.487,0,0
0.0002672544000000001,-0.0014899414,-0.0009275923600000001,-0.005324452,-0.0004134618,7.488,1,1
-0.00026325959999999994,-0.0010239174,-0.00173749436,-0.006383906,-0.0015360478,7.489,0,0
-0.0012415576,-0.00018718800000000002,-0.00221965636,-0.0063674560000000005,-0.0026907066,7.49,0,0
-0.0020352956,0.000520204,-0.00260216,-0.005912412000000001,-0.0038016328000000004,7.491,0,0
-0.0022353320000000005,0.001751152,-0.002653796,-0.0037138259999999995,-0.004719984,7.492,0,0
-0.0020745426000000006,0.0029661600000000002,-0.0018623660000000003,-0.0012036679999999998,-0.004749088,7.493,0,0
-0.0015339722400000003,0.003083808,-0.00062623,0.00023841200000000024,-0.0040318080000000004,7.494,0,0
-0.0009293634400000001,0.002841466,0.0005468300000000001,0.0016817900000000003,-0.0030485180000000005,7.495,0,0
-0.00060081824,0.00278672,0.00178255,0.0028805440000000005,-0.0013735260000000003,7.496,0,0
-0.00014982684000000002,0.0022487104000000003,0.003153136,0.0028044080000000004,0.00033633200000000006,7.497,0,0
0.00029802976000000006,0.0013727922,0.0038105120000000003,0.0024765620000000003,0.001188096,7.498,0,0
0.00023977860000000005,0.000789565624,0.0039888200000000006,0.0024110100000000003,0.0019854960000000002,7.499,0,0
4.8181800000000034e-05,0.00025435682400000003,0.003738816,0.0020900362,0.002565238,7.5,0,0
-0.00020765139999999994,-0.0007916871760000001,0.002702105,0.0014672002000000002,0.0026609760000000007,7.501,0,0
-0.0009011508,-0.001480359576,0.0016541656,0.0012355762,0.0031204300000000004,7.502,0,0
-0.001283825,-0.001781959376,0.0007381572000000001,0.0009215102,0.0038788660000000003,7.503,0,0
-0.0004041521999999999,-0.0020293148000000002,-0.00032944680000000006,-7.543799999999994e-06,0.004247504,7.504,0,0
0.0011319838000000003,-0.0018302872000000002,-0.0014206148,-0.000982138,0.0042797140000000004,7.505,0,0
0.0027072138000000003,-0.0008682591999999999,-0.0020978778,-0.001531912,0.0035245852,7.506,0,0
0.0035439018,3.287279999999993e-05,-0.0029459944,-0.0024779900000000002,0.0018915672000000003,7.507,0,0
0.003091132,0.00040204837999999996,-0.003591952,-0.003270592,5.5085199999999925e-05,7.508,0,0
0.0019193459999999997,0.0006088089800000001,-0.0030976918,-0.002315534,-0.0017175628,7.509,0,0
0.0004356894,0.0002916281800000001,-0.0021579567999999998,-0.00086047,-0.0031280008000000004,7.51,0,0
-0.0009371546,-0.00011002482000000002,-0.001232837,0.00025253600000000014,-0.003954780000000001,7.511,0,0
-0.0017266206,-0.00071650682,0.0001902470000000001,0.0019282580000000004,-0.0044024960000000005,7.512,0,0
-0.0011982812,-0.0007754574,0.001784301,0.0033278900000000004,-0.003964344,7.513,0,0
0.00028875480000000017,0.0005853379999999999,0.0023546408,0.003417350000000001,-0.002003624,7.514,0,0
0.0012374534000000003,0.001970212,0.0025620198,0.003754734000000001,0.0001986480000000005,7.515,0,0
0.0018461514000000004,0.002484843,0.0026438518,0.004569462000000001,0.0019204900000000004,7.516,0,0
0.0025404622000000003,0.0030217490000000002,0.0018473418,0.0040999240000000004,0.0031972240000000002,7.517,0,0
0.0021713948,0.0031222206,0.0005183558000000001,0.002926244,0.0034808798000000004,7.518,0,0
0.0004880208000000003,0.0015904826000000003,-0.00038194020000000006,0.002190734,0.0025280158,7.519,0,0
-0.0011683872,0.00019788860000000006,-0.0011311842,0.0005625800000000001,0.0011621005400000001,7.52,0,0
-0.0021933072000000003,-0.00036401900000000004,-0.002173906,-0.0019431920000000003,0.00020714994,7.521,0,0
-0.002690746,-0.0007617304000000001,-0.0025115520000000002,-0.003349364,-0.00047672806,7.522,0,0
-0.0026064058,-0.0007599315999999999,-0.0023034086,-0.00360137,-0.00079452586,7.523,0,0
-0.0019721922,-0.0009805956,-0.0023294406,-0.003826434,-0.00095452026,7.524,0,0
-0.0009050628,-0.0013604256,-0.0019663574,-0.0033994240000000003,-0.0012881750000000001,7.525,0,0
6.62072e-05,-0.0013224788,-0.0009376188000000001,-0.001674746,-0.0021747844,7.526,0,0
0.0008811052,-0.0014320574000000002,-0.00042699480000000004,-5.772200000000007e-05,-0.0030397384000000003,7.527,0,0
0.001354931,-0.0013259952000000002,-0.0003129142000000001,0.001002696,-0.0031772764000000007,7.528,0,0
0.0015119994000000001,-0.0002490172,0.0003845398,0.00242496,-0.0030394902000000002,7.529,0,0
0.002058116,0.0008524667999999999,0.0011232246000000001,0.003600332,-0.0024240602000000005,7.53,0,0
0.002042916,0.0013244735999999998,0.0014544120000000002,0.0031406562,-0.0010094481999999999,7.531,0,0
0.0011588980000000002,0.0017297859999999999,0.00230854,0.0024737032,0.0009704878,7.532,0,0
0.000780496,0.0015566844,0.0038424520000000005,0.0024132772,0.0025514598,7.533,0,0
0.0004299920000000001,0.0005747144000000001,0.004558356,0.0011479891999999997,0.0030387080000000006,7.534,0,0
-0.0008717200000000001,-0.00030458959999999995,0.0042191039999999996,-0.00025539480000000015,0.0030859100000000003,7.535,0,0
-0.0018819500000000003,-0.0010250656000000001,0.003957814,-0.0003527068000000001,0.003194844,7.536,0,0
-0.0019719320000000005,-0.0014492479999999998,0.0025668220000000003,-0.0010631918,0.002772424,7.537,0,0
-0.0023068940000000003,-0.001817118,-0.000312222,-0.0023900838,0.0019280340000000001,7.538,0,0
-0.002541766,-0.0019034499999999999,-0.0028622079999999998,-0.0025670578000000005,0.001702556,7.539,0,0
-0.001979836,-0.0015335823999999998,-0.004616782,-0.0028040918,0.0016665540000000002,7.54,0,0
-0.0013752282000000001,-0.0015562604,-0.005582034,-0.0033274900000000002,0.0012224404000000001,7.541,0,0
-0.0009168889999999999,-0.0015833324000000001,-0.0051378464,-0.002283132,0.0007516652000000002,7.542,0,0
-0.00022796499999999995,-0.001042178,-0.0041385964,-0.000579056,0.0003511934,7.543,0,0
0.000543209,-0.000631558,-0.0043491664,0.00041433800000000026,-0.00019124660000000002,7.544,0,0
0.001148025,-0.0005343382,-0.0043999064000000004,0.001444434,-0.0007571206,7.545,0,0
0.0017407172000000002,0.0002486138,-0.0043289024,0.0025034280000000003,-0.001085061,7.546,0,0
0.00225562,0.0010648098,-0.004507156,0.002354872,-0.0014209958,7.547,0,0
0.002396626,0.0012282194000000001,-0.0026833100000000004,0.0013377260000000002,-0.0015566380000000002,7.548,0,0
0.0022531499999999998,0.0012762276,0.0013619180000000004,0.0009122424,-0.0012940822,7.549,0,0
0.001928494,0.0012217960479999998,0.005071994000000001,6.514840000000014e-05,-0.0009660928000000002,7.55,0,0
0.0015676914,0.000612164048,0.006897574000000001,-0.0018810876,-0.0007495620000000002,7.551,0,0
0.0012347732,-0.000349171952,0.007306061200000001,-0.0028567616,-0.0002934890000000001,7.552,0,0
0.0006993648,-0.001119475952,0.006320135200000001,-0.0029361496,0.000367605,7.553,0,0
-0.0001578892,-0.001779848152,0.004472025200000001,-0.0038002919999999994,0.0003085418,7.554,0,0
-0.0009283211999999999,-0.0018737662,0.0021423598,-0.00427409,-0.0002300696,7.555,0,0
-0.0012695559999999998,-0.0015936892000000002,0.0007467378000000001,-0.003254546,-0.0007148724000000001,7.556,0,0
-0.0016260658,-0.0014347672,0.0004018145999999999,-0.0029309,-0.0012542554000000003,7.557,0,0
-0.0018841834000000001,-0.0010931312000000003,-0.0005372154,-0.003237192,-0.0019413273999999998,7.558,0,0
-0.0015456054000000004,-0.00020149919999999996,-0.0012786914000000001,-0.00209003,-0.002505544,7.559,0,0
-0.0011419836000000003,0.00027886500000000005,-0.001351884,-0.00028475599999999994,-0.002352882,7.56,0,0
-0.0008912604000000001,0.000608524,-0.0011768732,0.0011702580000000002,-0.0017574556000000002,7.561,0,0
-0.0004549704000000001,0.002026014,-0.0005238632,0.0027418160000000002,-0.0012249672000000003,7.562,0,0
4.2114999999999986e-05,0.003035334,0.0004437728,0.004378522,-0.00034327320000000013,7.563,0,0
0.00016600719999999998,0.0030870540000000005,0.0011913268,0.005089512000000001,0.0010409948,7.564,0,0
-0.00012234860000000003,0.003047612,0.0018364948,0.004953522,0.0016943248000000001,7.565,0,0
-0.00043317440000000007,0.0028300600000000006,0.002184388,0.004394808,0.0016736886000000002,7.566,0,0
-0.0008930524,0.0019205006,0.0016064338000000003,0.0033005546,0.0018516272000000003,7.567,0,0
-0.0013860658,0.0011516,0.0004957758000000002,0.0020322546,0.0017413892,7.568,0,0
-0.001419107,0.0007485420000000002,-0.0005217222000000001,0.0009865747999999999,0.0013999252,7.569,0,0
-0.0011822096,-0.000161124,-0.0015889282000000002,-0.00017350519999999997,0.0011333742,7.57,0,0
-0.001101069,-0.0010604120000000002,-0.0027814762,-0.0015491832,0.000826612,7.571,0,0
-0.0009771648,-0.0018409306,-0.00373873,-0.0021917418,0.0003827890000000001,7.572,0,0
-0.0007232696000000001,-0.002372356,-0.004305558,-0.0024912038000000003,-4.0537839999999966e-05,7.573,0,0
-0.0007702728000000001,-0.0021930708000000004,-0.004672724,-0.0033016660000000004,-0.00027016404,7.574,0,0
-0.0007862818000000001,-0.00162187622,-0.0043867459999999995,-0.003270376,-0.00031703144,7.575,0,0
-0.0003083184,-0.0008845342200000002,-0.0033292392000000004,-0.0021613960000000003,-0.00015061944000000003,7.576,0,0
0.0002162234,-3.3314219999999934e-05,-0.0015947712,-0.0013510280000000002,3.550516000000001e-05,7.577,0,0
0.0006511662,0.00047353738,0.0007720508,-0.0003553680000000001,-2.444539999999998e-05,7.578,0,0
0.0012178004,0.00042753718,0.0027626928,0.0016032800000000001,-0.00028233960000000004,7.579,0,0
0.00166809,0.000381526,0.0038826048,0.0028871680000000003,-0.0005861392,7.58,0,0
0.001817608,0.0004395474,0.003977314000000001,0.0024887964000000003,-0.0007228192,7.581,0,0
0.0021172260000000003,0.0005204894,0.0032301284,0.0023477374,-0.0005470362,7.582,0,0
0.00228245,0.0005954366000000001,0.0019103307999999999,0.0021239034,-7.914800000000035e-06,7.583,0,0
0.0018442346000000001,0.0002622336,0.0003592348000000002,0.0006934994000000001,0.0007785016,7.584,0,0
0.0014521368000000002,0.00014215880000000006,-0.0005540365999999999,-0.0003580486,0.0014043956000000001,7.585,0,0
0.0008483456,0.00011499340000000004,-0.0005664886,-0.0004039172,0.0016624646,7.586,0,0
-7.348840000000003e-05,-0.00041207820000000004,-0.0008398489999999999,-0.0009120342,0.0014048366000000002,7.587,0,0
-0.0008168704000000001,-0.0007413174,-0.0018927514000000002,-0.0017600402000000001,0.0005620026,7.588,0,0
-0.0013111190000000001,-0.0007060854,-0.0023430074000000004,-0.0015340956,-0.0008481733999999999,7.589,0,0
-0.0015123632000000001,-0.000927114,-0.002748144,-0.0012233912000000002,-0.0019984574,7.59,0,0
-0.0014543738,-0.001110502,-0.003711616,-0.0010561750000000001,-0.0023986784,7.591,0,0
-0.0008876058,-0.0006848564000000001,-0.0033042508,-0.00014210100000000005,-0.0022430698800000003,7.592,0,0
3.438220000000008e-05,-0.00011832200000000002,-0.0009569508000000005,0.000867303,-0.0016306658799999998,7.593,0,0
0.0010003262000000002,0.000537178,0.0014280292000000002,0.0010354888,-0.00097670948,7.594,0,0
0.0022471302,0.0012516580000000001,0.0035386352,0.0010938318,-0.00055090748,7.595,0,0
0.0033923220000000006,0.0018176660000000003,0.0060015232,0.0012368824,-0.00063096748,7.596,0,0
0.0034843640000000006,0.0019460440000000003,0.0064042000000000005,0.0004028464,-0.0011151876,7.597,0,0
0.0026627290000000004,0.0014645824000000002,0.0038368080000000006,-0.0003224036,-0.001243603,7.598,0,0
0.0015826069999999998,0.0008215684000000002,0.0008724479999999998,9.779e-05,-0.0006371134,7.599,0,0
0.00017403100000000006,0.00015157840000000011,-0.001690874,0.0005468566000000001,0.00018160659999999994,7.6,0,0
-0.0012647910000000001,-0.0006934196,-0.004108022,0.0004351970000000001,0.0011305386,7.601,0,0
-0.0019029670000000002,-0.0013394756000000001,-0.004266906,0.000532323,0.0017934708,7.602,0,0
-0.0017811918000000002,-0.0013447790000000002,-0.002354072,0.00043345899999999997,0.0015817158,7.603,0,0
-0.0014894398,-0.0011893876,-0.000678372,-0.001058635,0.000923642,7.604,0,0
-0.0013744578000000002,-0.0010619295999999999,0.000538672,-0.0028775890000000003,0.0003247311999999999,7.605,0,0
-0.0009901438000000002,-0.00062353026,0.001987178,-0.0030087202000000004,-0.00012038620000000002,7.606,0,0
-0.0009526486,-0.00049053906,0.0034141780000000004,-0.0023933162,-2.7938400000000003e-05,7.607,0,0
-0.0016193968000000002,-0.00121247806,0.0027776704,-0.0018917414000000005,0.00055071,7.608,0,0
-0.0019955448000000004,-0.0015156234600000001,0.0007170784000000005,-0.00021184139999999997,0.0007247700000000001,7.609,0,0
-0.0022907188,-0.00100561546,-0.0005312415999999996,0.0016527666000000002,0.0008846788000000001,7.61,0,0
-0.0025052868,-0.0009220840000000001,-0.0020339195999999997,0.0021514668,0.0012589082000000003,7.611,0,0
-0.001799194,-0.0004532631999999999,-0.0039590256,0.0025793148000000004,0.0015355082000000002,7.612,0,0
8.619999999996946e-07,0.0011647248,-0.003292238,0.0033392760000000004,0.0016708402,7.613,0,0
0.00162453,0.0022850408,-0.0006471619999999997,0.0031727260000000007,0.00184241,7.614,0,0
0.0028092140000000004,0.0027617228,0.0011658660000000002,0.0025642538600000003,0.0017287376,7.615,0,0
0.0035403580000000004,0.003399572,0.0022231840000000004,0.0021518738600000004,0.0009608275999999998,7.616,0,0
0.0030696778,0.003615338,0.0024089486000000004,0.0012552094600000003,0.0002312546000000001,7.617,0,0
0.0016820697999999999,0.0029789913999999995,0.0013930006000000003,-0.00022721853999999996,-0.0005692830000000001,7.618,0,0
0.00045701979999999986,0.0019506514,-0.0001970254,-0.00101255254,-0.001293827,7.619,0,0
-0.0006928982000000001,0.0005969414000000001,-0.0014641574,-0.0012234678,-0.0015197566000000001,7.62,0,0
-0.0024594102,-0.0015887026000000002,-0.0020029294,-0.0018770678000000003,-0.0017250206,7.621,0,0
-0.002757056,-0.0037136126,-0.0030172660000000002,-0.0019921194,-0.0021827676,7.622,0,0
-0.0011989120000000001,-0.004327052,-0.005108120000000001,-0.0013630534,-0.0022934300000000004,7.623,0,0
9.71000000000023e-06,-0.0039626492000000004,-0.005907354000000001,-0.0011474384000000001,-0.0021377400000000004,7.624,0,0
0.0007052766000000003,-0.003538064,-0.004457552000000001,-0.0005240850000000001,-0.0018697230000000002,7.625,0,0
0.0017064246000000002,-0.0019193108000000003,-0.002173332000000001,0.000994647,-0.0007559950000000001,7.626,0,0
0.0016199006000000003,-0.00011198280000000006,0.0007215199999999994,0.001814891,0.0007535489999999998,7.627,0,0
0.0003001629999999999,0.0002644808,0.004373026,0.002232379,0.001788997,7.628,0,0
-0.00020253300000000007,0.0003330218,0.007235904,0.002978566,0.0022392163999999997,7.629,0,0
-0.00010382880000000009,0.0005516048000000001,0.007622238,0.0031732880000000002,0.0022808312,7.63,0,0
0.0002138186,0.0005061132,0.006376422,0.0023997682,0.0017684615999999998,7.631,0,0
0.0007694566000000002,0.0003585888,0.00537661,0.0017006998000000002,0.0007381862,7.632,0,0
0.0011338942000000002,0.000541427,0.004727100000000001,0.0010598478,4.150120000000001e-05,7.633,0,0
0.0008367806000000001,0.0001964732,0.0033351772,-0.00046313020000000003,0.0005347198000000001,7.634,0,0
0.0003115197999999999,-0.000514621,0.0017679191999999998,-0.0016508382,0.00110814,7.635,0,0
-8.851560000000004e-05,-0.0008887686000000001,-0.0005043668000000001,-0.0022750844000000003,0.0009548681999999998,7.636,0,0
-0.0006081856,-0.0013629762000000002,-0.0040009448,-0.0034994040000000002,0.000982605,7.637,0,0
-0.0012788536000000001,-0.0020062580000000003,-0.0068167808,-0.004485152000000001,0.0005147539999999999,7.638,0,0
-0.0018593160000000002,-0.0019478568,-0.00844652,-0.004533098,-0.0008753220000000001,7.639,0,0
-0.0015705182000000002,-0.0010135048,-0.008063614200000001,-0.0046787800000000004,-0.00210829,7.64,0,0
-0.0009850962,-0.0004619268,-0.0046215162,-0.004808448,-0.0028451706,7.641,0,0
-0.000496131,0.0002495712000000001,0.0005401037999999995,-0.0037751960000000006,-0.003393848,7.642,0,0
0.00015744500000000004,0.0015441412,0.005185283800000001,-0.0020625820000000003,-0.0037234800000000004,7.643,0,0
0.0006586910000000001,0.0023514060000000003,0.0080416078,-0.0006806,-0.0033379379999999995,7.644,0,0
0.00038789320000000006,0.002318178,0.008715048,0.000665734,-0.0023054580000000002,7.645,0,0
0.00014991868000000002,0.0023060800000000003,0.0068660274,0.002310148,-0.0013487452000000002,7.646,0,0
0.0005404434800000001,0.0024647460000000003,0.0027552194,0.0035036580000000006,-0.0002841552,7.647,0,0
0.00059968748,0.001974856,-0.0007582746,0.003828102,0.0013260248000000001,7.648,0,0
0.00105955148,0.001685272,-0.0015062425999999999,0.004145114,0.0025271628,7.649,0,0
0.0017543154800000002,0.002023372,-0.0016835466000000004,0.004162004,0.0025424828000000003,7.65,0,0
0.001360352,0.001990668,-0.0017879564,0.0030826164000000004,0.0023536932000000005,7.651,0,0
0.00033965399999999994,0.001510746,-0.00046363640000000015,0.0017357804000000005,0.0020603880000000002,7.652,0,0
-0.00044040600000000007,0.001004858,0.0004044436000000002,0.0006140604000000002,0.0011643872,7.653,0,0
-0.001474482,-0.00016890599999999992,-0.0013843663999999999,-0.0008843776,0.0004192848,7.654,0,0
-0.002787514,-0.001849902,-0.0040953164,-0.0024310876,0.0001034996,7.655,0,0
-0.003410064,-0.002782114,-0.005668276,-0.00274354,3.696339999999999e-05,7.656,0,0
-0.0030314746000000004,-0.002855732,-0.0065212000000000004,-0.002678604,0.0002340206,7.657,0,0
-0.0015248426,-0.002360116,-0.005823030000000001,-0.00273076,0.0006956034000000001,7.658,0,0
0.0002866373999999999,-0.0012926419999999999,-0.0024414600000000008,-0.0016507280000000002,0.0010951078,7.659,0,0
0.0015527694,0.00012937399999999992,0.0016978199999999996,-0.00014332600000000004,0.0018186490000000003,7.66,0,0
0.0023742102000000004,0.001173338,0.00438126,0.000652178,0.0025760440000000004,7.661,0,0
0.0026460768,0.0016832700000000002,0.0059478000000000005,0.001637928,0.0025615660000000004,7.662,0,0
0.0022286147999999997,0.001934284,0.006139338,0.0028487140000000005,0.0024210600000000005,7.663,0,0
0.0013653228000000002,0.0021757540000000002,0.00471432,0.003035288,0.0017695160000000005,7.664,0,0
0.0011412738000000002,0.002325428,0.003158616,0.0026377860000000005,0.00044671800000000025,7.665,0,0
0.001776625,0.0022811140000000003,0.002287126,0.0023223400000000004,-0.001157744,7.666,0,0
0.0016051628,0.002085958,0.002064526,0.0014585940000000003,-0.003185612,7.667,0,0
0.0005594328000000001,0.001269234,0.0015872189999999997,-0.0003949279999999999,-0.005160471999999999,7.668,0,0
-0.00022962120000000002,0.000294636,0.00043506899999999984,-0.002084076,-0.006638412,7.669,0,0
-0.0008567362000000002,-0.00038215920000000004,-0.0008077990000000001,-0.003180772,-0.007328546,7.67,0,0
-0.0018358462000000004,-0.0012637772000000003,-0.001731037,-0.004186348,-0.006646324,7.671,0,0
-0.002726674,-0.0022016212,-0.002629411,-0.004296396000000001,-0.004649384,7.672,0,0
-0.0030402780000000004,-0.0022458932,-0.00351148,-0.0033573194,-0.0023912439999999994,7.673,0,0
-0.003225578,-0.0019362348,-0.003741944,-0.0023900414,0.00033899599999999994,7.674,0,0
-0.0033199420000000006,-0.0021407276,-0.0038472439999999997,-0.0013134868,0.003115072,7.675,0,0
-0.0030146340000000004,-0.0018337856,-0.003772094,0.00016969520000000005,0.004341136000000001,7.676,0,0
-0.002211712,-0.0009497734,-0.0032631134,0.0008650932,0.004699846000000001,7.677,0,0
-0.0015563802000000003,-0.0005180966,-0.0024490172000000004,0.0010054094,0.005288017999999999,7.678,0,0
-0.0008169236000000002,-3.710499999999995e-05,-0.0013808672,0.0017787294,0.005039308,7.679,0,0
2.4498399999999996e-05,0.000807335,-0.0002797012000000001,0.0022542748,0.0037080398,7.68,0,0
0.0003737746,0.001475823,0.0009706307999999999,0.0018725692000000002,0.0030255518,7.681,0,0
0.0008298786000000001,0.0016792628,0.0019930501999999998,0.0018358612000000001,0.0024868226,7.682,0,0
0.0013613328,0.0013963194,0.003644268,0.0022770684000000003,0.0010483086000000002,7.683,0,0
0.0017894842,0.0006066213999999999,0.0057524,0.0019797224,2.4430600000000023e-05,7.684,0,0
0.0021999842000000004,-0.0006155186,0.0056189192,0.00131847512,-0.00036940040000000006,7.685,0,0
0.002377562,-0.0016242026000000001,0.0030720112,0.00107252812,-0.0009640524,7.686,0,0
0.0020596055999999997,-0.0024829646,0.00033394719999999987,0.00021492212000000005,-0.0012930492000000002,7.687,0,0
0.0016352468000000002,-0.002917804,-0.0028066508,-0.0012775458800000001,-0.0012496632,7.688,0,0
0.0011989252000000003,-0.0025590012,-0.0064373848,-0.00228882788,-0.0012962352,7.689,0,0
0.0004191702000000001,-0.0018446678000000002,-0.007606488,-0.0027075046000000005,-0.001552412,7.69,0,0
-0.0003270838,-0.001217945,-0.006129356,-0.00298514,-0.001917636,7.691,0,0
-0.0007960354,-0.000628811,-0.0042685833999999995,-0.002412394594,-0.002195176,7.692,0,0
-0.0009979528000000001,0.00020624900000000004,-0.0025645336000000006,-0.000988928594,-0.0020911268,7.693,0,0
-0.0009759612,0.0007000062,-0.0011017778000000002,-0.0002549977940000001,-0.0016225444000000002,7.694,0,0
-0.0005341942000000001,0.0008350620000000001,0.00017049619999999992,0.000322513406,-0.0008628744000000002,7.695,0,0
0.00015049979999999996,0.0008531224000000001,0.0016822001999999999,0.001469275406,0.0005661596000000001,7.696,0,0
0.0008946018000000001,0.0011142864,0.0029983835999999996,0.002044118,0.0021684296,7.697,0,0
0.002133626,0.0019632304,0.0032926237999999996,0.0015567302000000002,0.0029542964000000005,7.698,0,0
0.003603116,0.0025023944,0.004112054,0.0018498154000000002,0.0030031360000000004,7.699,0,0
0.004291758,0.0025777494,0.00532441,0.0024163262000000004,0.0027678434000000004,7.7,0,0
0.004287328,0.0027681142,0.004915622,0.0013229202,0.0019089260000000002,7.701,0,0
0.0040673346,0.0024367040000000005,0.004819152,0.00018558819999999995,0.0005930479999999999,7.702,0,0
0.0026269445999999998,0.0009459140000000002,0.004724052000000001,-0.00016717999999999995,-0.0003373660000000001,7.703,0,0
0.0001988745999999998,-0.0007401,0.0018543740000000002,-0.00124815,-0.0007748220000000001,7.704,0,0
-0.0015690474000000002,-0.0018779222,-0.001960266,-0.002436428,-0.0010533074,7.705,0,0
-0.0024045154000000004,-0.0028461882,-0.004351706,-0.0022345076,-0.0013153700000000002,7.706,0,0
-0.00356496,-0.0037428899999999996,-0.006679842,-0.0021418256,-0.001424092,7.707,0,0
-0.004614778,-0.004253968,-0.007848034,-0.0021307616,-0.0012040168,7.708,0,0
-0.0039768647999999995,-0.0035885388,-0.005884694600000001,-0.0010330156,-0.0010176328000000001,7.709,0,0
-0.0026722608000000004,-0.0020510468000000002,-0.0031362766000000005,-0.0001174816,-0.0005834728000000001,7.71,0,0
-0.0018236948,-0.0008995467999999998,-0.0013749332000000001,0.00017550780000000015,0.0001449892,7.711,0,0
-0.0005483208,0.00024643920000000006,-0.00017647320000000008,0.0011551898,0.00019690119999999994,7.712,0,0
0.0012436232,0.0015139112000000002,0.0013098208,0.0022861898000000004,-0.0001769600000000001,7.713,0,0
0.001878132,0.0016946508,0.0021569094000000004,0.0022987158,-0.0003992880000000002,7.714,0,0
0.0026379380000000003,0.0009405776,0.0024282114,0.0021833838000000004,-0.0011098440000000002,7.715,0,0
0.004506128,0.0006504908000000002,0.00337358,0.002523434,-0.0018677520000000003,7.716,0,0
0.005313214,0.0009455648,0.00414179,0.002181857,-0.0015582244400000002,7.717,0,0
0.0048530624,0.0006492078,0.003432104,0.0007621910000000001,-0.0013301044400000001,7.718,0,0
0.0037162743999999996,0.000138855,0.001799582,-0.0005002530000000001,-0.00141540644,7.719,0,0
0.0013085643999999994,0.0004416832000000001,0.0006201480000000003,-0.001764055,-0.00114105644,7.72,0,0
-0.0020758876000000004,0.0005171840000000001,-0.0005658206000000001,-0.003382715,-0.00077985144,7.721,0,0
-0.004400817600000001,-0.00030294799999999993,-0.0017251306000000003,-0.004123276,-0.0002729430000000001,7.722,0,0
-0.005161658,-0.0006386089999999999,-0.0019488226,-0.0035543488,0.000493233,7.723,0,0
-0.005287344000000001,-0.000227513,-0.0015369306000000004,-0.0027035787999999997,0.001161957,7.724,0,0
-0.005027198000000001,-0.00028604099999999995,-0.0013803826,-0.0017990127999999998,0.0015495738000000001,7.725,0,0
-0.004412768000000001,-0.0003608868,-0.0012148060000000001,-0.0001627048,0.0017150366,7.726,0,0
-0.00360256,5.0913000000000005e-05,-0.0009485456000000001,0.0015252352,0.0013227178,7.727,0,0
-0.003295496,0.000591849,-0.0010756796,0.0027460040000000002,0.0006929664000000001,7.728,0,0
-0.0027944940000000002,0.001196229,-0.0006491218000000001,0.00416513,0.00039934400000000004,7.729,0,0
-0.0016433180000000002,0.0015663720000000001,0.0004860242,0.0050962,0.0007908332,7.73,0,0
-0.001005036,0.001498982,0.0011865342,0.0047540168,0.0013790174,7.731,0,0
-0.000347476,0.0014647726,0.0019520378,0.0038384428,0.0017063962000000003,7.732,0,0
0.001034118,0.0016357746,0.0034299378000000004,0.0026941288,0.0021995936000000003,7.733,0,0
0.0022891499999999998,0.0015254366,0.004128078,0.0010005708000000002,0.002711212,7.734,0,0
0.002895084,0.0020233746,0.003558626,-0.0005291132,0.002554872,7.735,0,0
0.00330361,0.0030346024,0.0034073180000000003,-0.00128513,0.001677359,7.736,0,0
0.002600306,0.00295687,0.0036405299999999995,-0.00235403,0.0005479829999999999,7.737,0,0
0.0006355200000000001,0.002296862,0.0014826999999999998,-0.00374126,-0.0011437930000000002,7.738,0,0
-0.001083792,0.00201764,-0.0030979700000000002,-0.00469649,-0.003445749,7.739,0,0
-0.002557022,0.0011793618,-0.006287538,-0.004713776,-0.005209157000000001,7.74,0,0
-0.0036515480000000006,-0.0004914982,-0.0073271199999999995,-0.0040074554,-0.005968918,7.741,0,0
-0.0036339460000000003,-0.0015752062,-0.007707254,-0.0024131974000000007,-0.006142814000000001,7.742,0,0
-0.002769186,-0.0022702762,-0.005978417999999999,0.0003116506000000001,-0.0047849362,7.743,0,0
-0.0021504582,-0.0034369421999999998,-0.001690348,0.0029529006000000003,-0.0019449402000000005,7.744,0,0
-0.0010543242000000002,-0.004220232,0.001762708,0.004797352600000001,0.0005094858000000001,7.745,0,0
0.0012139178,-0.0035986003999999997,0.00293394,0.006362975999999999,0.0023011358,7.746,0,0
0.0032504018000000003,-0.0024090039999999997,0.00288096,0.0071740580000000005,0.0038267498000000002,7.747,0,0
0.0045138298,-0.0016058435999999998,0.002363631,0.006361928,0.004548598,7.748,0,0
0.005886294,-0.0004567754,0.002243325,0.0054404119999999995,0.004343016000000001,7.749,0,0
0.00658767,0.00028204719999999996,0.002234703,0.0042698148000000005,0.00439283,7.75,0,0
0.005041584200000001,-0.00045519440000000005,0.0018987210000000001,0.0015837928000000002,0.004939664000000001,7.751,0,0
0.0029174082000000003,-0.0012126628,0.0015373974,-0.0009700931999999998,0.005321810000000001,7.752,0,0
0.0016821722,-0.0011763214,0.001217269,-0.0021450491999999996,0.005128550000000001,7.753,0,0
0.00029615179999999987,-0.0012535588000000002,0.0006966332,-0.0037581792,0.004295125000000001,7.754,0,0
-0.0010894628,-0.0013090930000000003,0.0002745348,-0.005269472000000001,0.002929087,7.755,0,0
-0.0012593172000000003,-0.00054219,2.0688199999999976e-05,-0.005324840000000001,0.000987767,7.756,0,0
-0.0008150912000000001,0.00036910200000000006,-0.0002386976,-0.005391192000000001,-0.000997741,7.757,0,0
-0.0007959998,0.0006601342,-0.000215397,-0.005541990000000001,-0.002624825,7.758,0,0
-0.0006401213999999999,0.0008952134000000001,-0.0001756968,-0.004679802000000001,-0.0039185140000000005,7.759,0,0
-0.00024940680000000003,0.0010757968,-0.0003267558,-0.002978728,-0.004819368,7.76,0,0
-0.0001188886,0.0009650522000000001,-0.00048416400000000004,-0.001490924,-0.00494474,7.761,0,0
0.0002038054,0.0013054022,-0.00047140960000000004,0.00015265199999999997,-0.004661564,7.762,0,0
0.0007507340000000001,0.0019042582,-0.0004635988,0.001914772,-0.004296958000000001,7.763,0,0
0.000755034,0.0021767822,-0.0004206272,0.0030056759999999997,-0.003607744,7.764,0,0
0.00041702319999999994,0.0025941064000000002,-0.00037415159999999996,0.003295226,-0.002973998,7.765,0,0
0.00044354063999999996,0.00287155,-0.00010528579999999997,0.003349754,-0.002443386,7.766,0,0
0.00013114563999999998,0.002415344,0.0005487092,0.0028445294,-0.0017331972,7.767,0,0
-0.00048061036,0.0015148652000000003,0.0009806832,0.0010681374,-0.0005579872,7.768,0,0
-0.00029972376,0.00020750719999999986,0.0013758052,-0.0006033166000000002,0.0007997448000000001,7.769,0,0
-9.469375999999997e-05,-0.0013340748,0.0017754330000000003,-0.0019835186000000003,0.0019738268,7.77,0,0
-0.0003469832,-0.0027648428000000003,0.0014980708,-0.0036410466,0.0031539808,7.771,0,0
-0.000391651,-0.0038199608,0.0008205762,-0.004487324000000001,0.003975684,7.772,0,0
-0.000591945,-0.0038805377999999997,0.0006429710000000001,-0.004190876,0.003738934,7.773,0,0
-0.0015212716,-0.0035514338,0.000143045,-0.00388592,0.0026504899999999997,7.774,0,0
-0.0025563488000000002,-0.0038329078000000003,-0.000733275,-0.00331114,0.0013365439999999996,7.775,0,0
-0.0026317128000000003,-0.0029517258,-0.0008336026000000001,-0.001780298,-0.0004549780000000001,7.776,0,0
-0.002012294,-0.0009859518,-0.001245632,-0.00024596799999999995,-0.0024745020000000004,7.777,0,0
-0.0016226064,-0.00019247800000000016,-0.0020982488000000003,0.00096984,-0.004207876,7.778,0,0
-0.0010158938,0.000502,-0.0021837708,0.0026672700000000002,-0.005451360000000001,7.779,0,0
-8.573780000000004e-05,0.0019161388000000002,-0.0017455664000000002,0.00418546,-0.005878188000000001,7.78,0,0
-0.0002938898,0.0021958576,-0.0014071794000000003,0.004646876,-0.0054681059999999995,7.781,0,0
-0.0014340838,0.0011981918,-0.00046580939999999995,0.00479767,-0.0042178803999999995,7.782,0,0
-0.0020081474,0.0007035306,0.0008650566000000001,0.0048319520000000005,-0.0023353304,7.783,0,0
-0.002173706,0.00035196540000000006,0.0014216966000000003,0.0038332796000000004,-5.378840000000006e-05,7.784,0,0
-0.0013619099999999998,8.69922e-05,0.0017291742000000003,0.0021046835999999998,0.0018551816000000002,7.785,0,0
0.0008180139999999999,0.0006331974,0.001892472,0.0008298915999999999,0.0032830356000000003,7.786,0,0
0.002521796,0.0009537632000000001,0.001489664,-0.0005187664000000001,0.004564242,7.787,0,0
0.0032320534,0.0007642448,0.000565804,-0.0020607864,0.005082556,7.788,0,0
0.0034749000000000004,0.0009229692000000002,-9.834799999999995e-05,-0.002827724,0.004904354,7.789,0,0
0.0027732635999999995,0.0013197936,-0.0006368540000000001,-0.0029653459999999998,0.0043668859999999995,7.79,0,0
0.0010283036000000001,0.0012322976,-0.001506546,-0.003377832,0.0033571426000000002,7.791,0,0
-0.0001996632,0.0009978716,-0.0018840700000000003,-0.003340502,0.0019143652000000002,7.792,0,0
-0.0005302246,0.0010418212000000001,-0.0016353691999999999,-0.0018996260000000002,0.0004646352,7.793,0,0
-0.0010036992000000001,0.0007293597999999998,-0.0012186404000000001,-0.000533736,-0.0006537408,7.794,0,0
-0.0016691648000000002,-3.659620000000003e-05,-0.0007399847999999999,0.000573718,-0.0015316888,7.795,0,0
-0.0024918968000000002,-0.00044636819999999995,0.00041430920000000003,0.002398634,-0.0020686754,7.796,0,0
-0.003034966,-0.00045419220000000003,0.0016035272,0.003742678,-0.0020903848,7.797,0,0
-0.0032219920000000003,-0.0007224222000000002,0.0027362504,0.0034916900000000004,-0.0017499684000000003,7.798,0,0
-0.0030112760000000007,-0.0010161420000000003,0.0051336596,0.003015742,-0.0012351044000000002,7.799,0,0
-0.001425234,-0.0006260476000000001,0.006154690000000001,0.0025565996,-0.0005282510000000001,7.8,0,0
0.0013006440000000003,-0.00024591360000000004,0.00386909,0.0005898816,0.000296509,7.801,0,0
0.00304511,0.00022181240000000008,0.0013293180000000008,-0.0018644924000000003,0.0009104778000000001,7.802,0,0
0.003415359800000001,0.0012516784000000001,-0.0011346059999999998,-0.0038883424000000005,0.0014134274000000002,7.803,0,0
0.003392265800000001,0.0018904342000000001,-0.004839822,-0.006180020400000001,0.0015716178000000003,7.804,0,0
0.0018499878000000003,0.0017351318000000003,-0.006696946,-0.007969248,0.0017042344000000001,7.805,0,0
-5.767519999999999e-05,0.0013253662000000002,-0.005139857,-0.007810312000000001,0.0022151324,7.806,0,0
-0.00023739719999999994,0.0010438302,-0.0034468996000000004,-0.0064122856,0.0024080584000000004,7.807,0,0
0.0005565930000000002,0.0007872922,-0.0024990836000000002,-0.0051987876,0.0022220931999999997,7.808,0,0
0.0018011730000000003,0.0010417783999999999,-0.00128266052,-0.0032488770000000003,0.0015739368,7.809,0,0
0.003283447,0.0017225883999999999,-0.00032408252,-0.000970557,0.0008525228000000001,7.81,0,0
0.004137200000000001,0.0018911956,0.00027665648,0.00042724700000000007,-6.874460000000005e-05,7.811,0,0
0.00354947,0.0011479616,0.00108998108,0.0015395506,-0.0013467086,7.812,0,0
0.00219865,0.00020854360000000015,0.00161894748,0.0030520046,-0.0018276654000000004,7.813,0,0
0.0004991999999999998,-0.0008920564000000001,-0.0003305596000000002,0.00406397,-0.0016449794000000001,7.814,0,0
-0.0014855940000000002,-0.0020922184,-0.0032986956,0.004016606,-0.0016475134000000001,7.815,0,0
-0.0025880400000000002,-0.0022287640000000003,-0.004353919600000001,0.004058682,-0.0010048000000000001,7.816,0,0
-0.0024313299999999998,-0.0015364140000000003,-0.004553183600000001,0.0035884620000000006,0.0005886780000000001,7.817,0,0
-0.0015418979999999999,-0.001322472,-0.004063940000000001,0.0037358420000000005,0.001247152,7.818,0,0
-0.0005196320000000001,-0.000907948,-0.0010903339999999999,0.005754566000000001,0.001417593,7.819,0,0
0.000863122,0.0005117800000000001,0.003401224,0.00845627,0.0016533770000000001,7.82,0,0
0.00209984,0.001299306,0.007055302,0.011164366000000002,0.000722447,7.821,0,0
0.0027892380000000003,0.002314406,0.009342182000000001,0.01376841,-0.00046098800000000007,7.822,0,0
0.00370749,0.004380168,0.009492786,0.014400556000000002,-0.0005741460000000001,7.823,0,0
0.00447947,0.005541202,0.008532313,0.011797288000000001,-0.0001387290000000001,7.824,0,0
0.004542682,0.0050019242,0.008001291,0.00809988,8.021577999999999e-05,7.825,0,0
0.0034861652,0.0035006102,0.0059157770000000005,0.0028804539999999997,0.00041346977999999994,7.826,0,0
0.0015645932,0.0003824861999999999,0.002546573,-0.003983446000000001,0.00037559097999999996,7.827,0,0
-0.0009106268000000002,-0.004192517800000001,5.771499999999985e-05,-0.010249382000000001,-0.0007799990200000001,7.828,0,0
-0.0034436868,-0.0081619078,-0.002740078,-0.014942454,-0.00215981502,7.829,0,0
-0.0052564568,-0.011344898,-0.007376134000000001,-0.018668726000000004,-0.0031543038,7.83,0,0
-0.006735435999999999,-0.01319434,-0.011933080000000002,-0.02051106,-0.0043575998000000005,7.831,0,0
-0.007850618,-0.012914814000000002,-0.014281756000000001,-0.0188581,-0.005313826,7.832,0,0
-0.008265194,-0.010663762,-0.014318604000000002,-0.015244620000000004,-0.005182518,7.833,0,0
-0.008038992,-0.007195562,-0.012099298000000001,-0.010296422000000003,-0.004358656,7.834,0,0
-0.0070295,-0.0032421599999999996,-0.007719444000000001,-0.003701722000000001,-0.003092912,7.835,0,0
-0.00468017,0.000712622,-0.002020724,0.0031107579999999995,-0.0013078579999999999,7.836,0,0
-0.001394924,0.004103006,0.0032389560000000003,0.008724018,0.0006069180000000001,7.837,0,0
0.001969998,0.006282612,0.007623080000000001,0.013190298,0.002242,7.838,0,0
0.004984846,0.007213107999999999,0.011205494,0.01578372,0.0036542000000000007,7.839,0,0
0.006591410000000001,0.007474303999999999,0.012520540000000002,0.01561552,0.004716658,7.84,0,0
0.006934452,0.007034602000000001,0.011459434000000001,0.013557766,0.00475678,7.841,0,0
0.0065095940000000005,0.005794578,0.009494318000000002,0.0100750486,0.0040858788000000005,7.842,0,0
0.0049200164,0.0039447478,0.006393244,0.005093214600000001,0.003183158,7.843,0,0
0.0027875224,0.0020697818,0.0019198759999999998,-0.0009309454000000002,0.0014192199999999997,7.844,0,0
0.0008163583999999997,0.0002473118000000001,-0.002006842,-0.006287805400000001,-0.000650252,7.845,0,0
-0.0012591456000000001,-0.0017563662,-0.004957948,-0.010185011400000001,-0.001903434,7.846,0,0
-0.0033574076,-0.0035014542000000003,-0.007797432,-0.013625794,-0.0023534548,7.847,0,0
-0.0044487120000000005,-0.004099208,-0.009548098000000001,-0.01484426,-0.002572614,7.848,0,0
-0.004644812000000001,-0.003989948,-0.0099295,-0.012803548,-0.0023297300000000003,7.849,0,0
-0.0043995300000000005,-0.0035068106,-0.009775982,-0.010019504,-0.0016082588,7.85,0,0
-0.0033437850000000006,-0.0019832966,-0.008137700000000001,-0.006474646,-0.001081125,7.851,0,0
-0.0014733190000000003,-4.456860000000024e-05,-0.00470625,-0.0008135059999999999,-0.0006425456,7.852,0,0
0.0004838910000000002,0.0017794054,-0.0009499360000000002,0.004760634,0.0003918904,7.853,0,0
0.0020685470000000004,0.0035044494,0.002690722,0.008614682,0.0015200804000000002,7.854,0,0
0.0037552750000000006,0.005018054,0.0062419220000000004,0.011883198,0.0016989656000000002,7.855,0,0
0.004815766000000001,0.005980282000000001,0.008619772000000001,0.013370100000000003,0.0017337778000000002,7.856,0,0
0.004855184000000001,0.006096702000000001,0.009441696,0.012482804,0.0023184984,7.857,0,0
0.0047297960000000005,0.005523844000000001,0.009475200000000001,0.010823754,0.0029993944000000004,7.858,0,0
0.004387556000000001,0.004333508600000001,0.008426116,0.008272300000000002,0.0029045124000000003,7.859,0,0
0.002773916,0.0020347166,0.005690354,0.004328742,0.002484444,7.86,0,0
0.0004686499999999997,-0.0010943374,0.0021680659999999997,0.0001642620000000001,0.0019999,7.861,0,0
-0.0010774300000000003,-0.0030383834,-0.0012670420000000006,-0.003666342,0.000498314,7.862,0,0
-0.002548896,-0.003683675,-0.0049422400000000005,-0.007758932,-0.001682158,7.863,0,0
-0.004064394000000001,-0.0042658235999999995,-0.008083924,-0.010907938,-0.00302446,7.864,0,0
-0.004816648,-0.0037354395999999995,-0.009236872,-0.011626204000000001,-0.00330863,7.865,0,0
-0.004980018,-0.0017751336000000003,-0.008520356,-0.010365426,-0.003008116,7.866,0,0
-0.005167128,-0.00028899960000000017,-0.006744677,-0.007993530200000001,-0.0021682888000000003,7.867,0,0
-0.004721452,0.0005929639999999999,-0.004083377000000001,-0.0043449322,-0.0016040101999999997,7.868,0,0
-0.003129452,0.0018565819999999999,-0.0005659549999999999,-0.00016738219999999984,-0.0007287734000000001,7.869,0,0
-0.001220296,0.002764648,0.0028322710000000004,0.0033164238,0.0004949966,7.87,0,0
0.0009874460000000001,0.0031184059999999998,0.004990505,0.0059007338,0.0015376446,7.871,0,0
0.003124544,0.0030494199999999997,0.006399304000000001,0.0075604420000000006,0.0025539414,7.872,0,0
0.004059532,0.0021629084,0.00744267,0.007911042,0.0034867288,7.873,0,0
0.00404664,0.0009595844,0.007334062000000001,0.007131810000000001,0.0039045020000000007,7.874,0,0
0.004249208,0.00011503240000000013,0.006431996000000001,0.00596169,0.0035232380000000006,7.875,0,0
0.003749142,-0.0007392796,0.004928334,0.003735336000000001,0.0027135712,7.876,0,0
0.0019533099999999998,-0.0016741076,0.0026111780000000005,0.0005163340000000002,0.0012666832000000003,7.877,0,0
8.494199999999974e-05,-0.00219709,0.00013457800000000021,-0.0026629979999999998,-0.0004159947999999999,7.878,0,0
-0.002033426,-0.0028025100000000002,-0.002153388,-0.005461676,-0.0021616708000000004,7.879,0,0
-0.004626746,-0.0036475820000000003,-0.004214446,-0.008486938,-0.0038766848000000003,7.88,0,0
-0.0063882520000000005,-0.00431823,-0.005700282000000001,-0.010634092000000001,-0.00495441,7.881,0,0
-0.0061046500000000005,-0.004198304,-0.006086008,-0.010128742,-0.00510779,7.882,0,0
-0.004578368,-0.0032991459999999998,-0.005509596000000001,-0.008449168,-0.004521478,7.883,0,0
-0.0030949844000000004,-0.002042758,-0.0044005926,-0.006194304000000001,-0.0034748747999999996,7.884,0,0
-0.0016359944000000001,-0.00027298799999999994,-0.0024813486,-0.0025804220000000006,-0.0022801008000000005,7.885,0,0
-3.9414400000000013e-05,0.001745174,0.0002352834000000001,0.0015255960000000002,-0.001298983,7.886,0,0
0.0008414776000000001,0.0032032500000000004,0.0027332374,0.004264418,-0.000292335,7.887,0,0
0.0009063236,0.003908614,0.0043685654,0.006528438,0.001445223,7.888,0,0
0.0014772560000000001,0.004632908,0.005647322,0.008992454,0.0037968298,7.889,0,0
0.0031495240000000003,0.004842058,0.006294196,0.009525912000000001,0.0054902398,7.89,0,0
0.005224338,0.0038757548,0.005997626000000001,0.008418864,0.0059298120000000005,7.891,0,0
0.00662013,0.0026901840000000004,0.00530419,0.006963026,0.0053346902000000005,7.892,0,0
0.007031846,0.0014507600000000002,0.0038794089999999995,0.003949579999999999,0.0037364318,7.893,0,0
0.006493390800000001,-0.000391642,0.001697239,-0.0006585260000000002,0.0011209798,7.894,0,0
0.004689578800000001,-0.002078182,-0.0007362090000000003,-0.0036233940000000003,-0.0010224242000000001,7.895,0,0
0.0019611468,-0.0028090468,-0.003103603,-0.005474488,-0.0017860442000000002,7.896,0,0
-0.0005110811999999999,-0.0034727940000000004,-0.005382001000000001,-0.007484471999999999,-0.0019510484,7.897,0,0
-0.0023349832,-0.004074914000000001,-0.006808771999999999,-0.007631013999999999,-0.00198509,7.898,0,0
-0.003337346,-0.003627382,-0.007167345999999999,-0.0059011302,-0.0015495838,7.899,0,0
-0.00363209,-0.00300468,-0.006872198000000001,-0.0039264842,-0.00024393979999999982,7.9,0,0
-0.00366883,-0.0024409722,-0.0052681594,-0.0016887422,0.0007223522000000002,7.901,0,0
-0.003302812,-0.0010751061999999998,-0.0027498514000000003,0.0016498938000000002,0.0011849962,7.902,0,0
-0.001949236,0.00021569580000000018,-0.00019428540000000056,0.0045804638,0.0016686602000000003,7.903,0,0
4.9937999999999805e-05,0.0008104550000000002,0.0021756446000000002,0.006352684000000001,0.0015100794,7.904,0,0
0.001726936,0.0015438130000000002,0.0040918146,0.007620654000000001,0.0005756794000000001,7.905,0,0
0.0030559019999999997,0.0022267631999999997,0.004931654000000001,0.008278636,-0.0003060946,7.906,0,0
0.003586842,0.0020827832,0.004972558000000001,0.007920834,-0.0008101046000000001,7.907,0,0
0.0032841437999999996,0.0020431812000000003,0.004792564,0.006935244,-0.0017415066000000003,7.908,0,0
0.0023328572,0.002405086,0.004307234,0.0057475140000000004,-0.0024574180000000003,7.909,0,0
0.0009272012,0.002533392,0.0033562370000000006,0.0035664340000000007,-0.002443848,7.91,0,0
-0.0004979488000000001,0.002393974,0.0021881832000000003,0.0007005100000000001,-0.0022786874,7.911,0,0
-0.0015326488000000002,0.002172944,0.0011353463999999999,-0.002043512,-0.0019176646000000001,7.912,0,0
-0.0019525406000000002,0.0017443920000000002,0.0001262064000000001,-0.004480772,-0.0009095806,7.913,0,0
-0.0023775160000000005,0.0006199919999999999,-0.0016809436,-0.006644228,7.42018e-05,7.914,0,0
-0.002646274,-0.000540776,-0.0044551466,-0.007766271999999999,0.00010827580000000002,7.915,0,0
-0.002494038,-0.0015586180000000001,-0.006365442800000001,-0.0072349599999999995,-8.495480000000004e-05,7.916,0,0
-0.002213028,-0.0024436400000000004,-0.0068640739999999995,-0.00630606,-0.00042888360000000006,7.917,0,0
-0.00209959,-0.002919,-0.006225464000000001,-0.0046971943000000006,-0.0011754356,7.918,0,0
-0.0016489652000000001,-0.0029541080000000004,-0.0038633159999999995,-0.0021022883,-0.00161333,7.919,0,0
-0.0007249732,-0.0026873600000000006,-0.00036453999999999935,-8.962299999999831e-06,-0.0012370888000000002,7.92,0,0
0.00017496880000000023,-0.0024534640000000003,0.0023155680000000005,0.0017350877,-9.278679999999992e-05,7.921,0,0
0.0011778028000000002,-0.0019263062,0.0037374720000000004,0.0035626977,0.0014139372000000002,7.922,0,0
0.0018258428,-0.0012275648,0.004072244000000001,0.004059404,0.0023664352,7.923,0,0
0.002081332,-0.0006000768000000002,0.003301118,0.0030957434000000003,0.0025067456,7.924,0,0
0.002240158,-0.0003356648,0.0026547142,0.0025992434,0.002523019,7.925,0,0
0.002034442,-0.0004331428,0.001998604,0.001618516,0.002052139,7.926,0,0
0.0013469858,-0.0005391106,0.00041218599999999993,-0.0008148039999999999,0.0010176976000000001,7.927,0,0
0.0005189978,-0.0006603128800000001,-0.0012551320000000002,-0.002660796,0.0006653266000000001,7.928,0,0
-0.0003751422000000001,-0.00085513888,-0.002233176,-0.0034825754,0.0005657042000000002,7.929,0,0
-0.0016636862000000002,-0.00113130488,-0.0029345082000000002,-0.0046062594,0.0002605456000000001,7.93,0,0
-0.0028226762,-0.00117194888,-0.0023002739999999997,-0.0050505540000000005,9.284140000000002e-05,7.931,0,0
-0.0031159440000000003,-0.0008343324800000001,-0.00032233999999999995,-0.003488642,-8.909999999999997e-05,7.932,0,0
-0.00298657,-0.0004355795999999999,0.00020877000000000016,-0.001697958,-0.0001266378,7.933,0,0
-0.0028412560000000003,-0.0001485806,-0.0005098920000000001,-0.00014172399999999997,6.038920000000002e-05,7.934,0,0
-0.0018781376,0.0005585254000000001,-0.000694068,0.00191764,0.00030753400000000004,7.935,0,0
-0.0004914196,0.0016315154000000002,-0.0013086872,0.00354536,0.0002769014,7.936,0,0
0.0005008184000000001,0.001890635,-0.0024244516,0.0041901180000000005,0.00011568019999999999,7.937,0,0
0.0019613584,0.002060015,-0.0017622756000000002,0.004597058,-8.85294e-05,7.938,0,0
0.0034696584,0.0027169060000000007,0.0005289984,0.004871008,-0.00020682800000000005,7.939,0,0
0.0038111340000000003,0.0026792140000000005,0.0019879324,0.004202824,-0.0004467086000000001,7.94,0,0
0.003716024,0.0024299300000000003,0.0019852908000000005,0.0030735622,-0.0007399258000000001,7.941,0,0
0.0036586300000000004,0.0025766400000000003,0.0019548276,0.0023391711999999998,-0.0010390438000000002,7.942,0,0
0.00296135,0.002296318,0.0019389256000000002,0.0011414952,-0.0016990434,7.943,0,0
0.001800314,0.001224338,0.0003532136,-0.0006005468,-0.0023154758000000003,7.944,0,0
0.000809746,0.0001245459999999999,-0.0015429584000000002,-0.0015583368,-0.00280395,7.945,0,0
-7.5924e-05,-0.0007170360000000001,-0.0023241576,-0.002236211,-0.002948952,7.946,0,0
-0.001336098,-0.0015585619999999999,-0.0031961260000000005,-0.0037753120000000003,-0.0024773942,7.947,0,0
-0.002510216,-0.002153696,-0.003949594,-0.004887606000000001,-0.0016055630000000002,7.948,0,0
-0.0028618600000000004,-0.002216834,-0.0031255618000000005,-0.0042904779999999995,-0.0006264709999999999,7.949,0,0
-0.0029196840000000005,-0.00240091,-0.0014954038,-0.00341572,0.000481213,7.95,0,0
-0.002709874,-0.0027558200000000004,-0.0014486458000000004,-0.0023865920000000003,0.0012133769999999999,7.951,0,0
-0.0021187616,-0.0023358522,-0.0024364938000000004,-0.0005240560000000004,0.0013238052,7.952,0,0
-0.0017015056,-0.0017393582,-0.00177722,0.0009578958,0.0012229344,7.953,0,0
-0.0009940595999999998,-0.0011625244000000002,-0.00017463020000000012,0.0010911752,0.0007869283999999999,7.954,0,0
0.00013037040000000007,0.00033708960000000004,0.0012532278,0.0010523152,0.0003368788,7.955,0,0
0.0008017964000000002,0.0019788495999999997,0.0038956738000000004,0.0013912552000000002,0.0007940868,7.956,0,0
0.0011177446000000001,0.0026419478000000002,0.006527789800000001,0.0009401436000000002,0.0019717428,7.957,0,0
0.00145261,0.0031984758000000004,0.006818092,0.0007769724,0.0028651824,7.958,0,0
0.0013037008000000001,0.004113014,0.005416364,0.0009188542200000001,0.0034993744,7.959,0,0
0.0007502027999999999,0.004364472,0.003172608,6.875822000000002e-05,0.0033295166,7.96,0,0
0.0002993984,0.0038290200000000007,0.0008541880000000003,-0.0012244037800000001,0.0019029326000000002,7.961,0,0
0.00018696099999999997,0.0033869580000000002,-0.00029775799999999996,-0.0019329761800000002,0.00015678259999999994,7.962,0,0
-7.322640000000002e-05,0.002771148,-0.000986342,-0.00229422878,-0.0012425834000000001,7.963,0,0
-0.0008384072000000001,0.001146844,-0.0016283040000000001,-0.0029124020000000006,-0.0021063694,7.964,0,0
-0.0013038712000000001,-0.0005541320000000003,-0.0014723800000000001,-0.0029784200000000007,-0.002537628,7.965,0,0
-0.0018612108000000001,-0.0020772560000000004,-0.0009529773999999998,-0.0024772752,-0.0024796820000000004,7.966,0,0
-0.002562514,-0.0042199740000000005,-0.0005503052,-0.001737049,-0.0020220902000000003,7.967,0,0
-0.00266165,-0.006196334,0.00027828880000000007,-0.0004772509999999998,-0.0016076890000000003,7.968,0,0
-0.0021548478,-0.006753348,0.0013753868,0.001116727,-0.001366639,7.969,0,0
-0.0011293318000000002,-0.005455118000000001,0.0014644424000000002,0.001976401,-0.001036109,7.97,0,0
0.00011567020000000008,-0.0032581300000000006,0.0009355178,0.0022203316,-0.0008925290000000001,7.971,0,0
0.0012664982,-0.00098352,0.0007449398000000001,0.0028522794000000002,-0.0005447188000000001,7.972,0,0
0.0022964342,0.0013355860000000002,0.00026270359999999986,0.003272181400000001,0.0007849819999999999,7.973,0,0
0.003347376,0.0029746020000000002,-0.0005914602000000001,0.0032983654000000003,0.00203978,7.974,0,0
0.003675198,0.0030382760000000003,-0.0009035898,0.0036409334,0.002628864,7.975,0,0
0.0034562520000000004,0.00249575,-0.0005009182,0.003961016,0.0030507102,7.976,0,0
0.003227684,0.002474734,-0.0003682416000000001,0.003029506,0.0024630642,7.977,0,0
0.0024779406,0.002287168,-0.0010459174,0.0014255220000000005,0.0003989722000000001,7.978,0,0
0.0012199286,0.0015746717999999998,-0.0014432776,0.0002093620000000002,-0.0011892358000000001,7.979,0,0
0.0001527940000000001,0.00036934179999999976,-0.0011327631999999998,-0.0009339,-0.0014117106,7.98,0,0
-0.00054082,-0.0006392562000000002,-0.0013617027999999998,-0.001968614,-0.0013198506,7.981,0,0
-0.0010985860000000001,-0.0012555532,-0.0016836575999999998,-0.00204644,-0.0009524262000000001,7.982,0,0
-0.0013415506000000002,-0.0017655070000000001,-0.0013453976000000001,-0.0015550332,1.5915800000000028e-05,7.983,0,0
-0.0014162226000000002,-0.001437539,-0.0009888476,-0.0016308392000000003,0.0006375748,7.984,0,0
-0.001515288,-0.0005395136,-0.000494318,-0.0012439844,0.0008348296,7.985,0,0
-0.0016802560000000002,-6.602140000000002e-05,0.000246416,-0.00047482000000000004,0.0014658654000000001,7.986,0,0
-0.001940264,-0.00023292840000000006,0.0008262460000000001,-0.0002702272,0.0016985210000000004,7.987,0,0
-0.002222674,-0.00036504460000000007,0.0011013772,-1.0543999999999972e-05,0.0012969170000000003,7.988,0,0
-0.002375564,-0.0004738180000000001,0.0015829232,0.0007365580000000001,0.0007701460000000002,7.989,0,0
-0.0027519520000000002,-0.0008955334000000001,0.0019730212000000002,0.0010599792000000002,-0.00033088999999999986,7.99,0,0
-0.002553016,-0.0012228816,0.0018851692000000002,0.0010368842000000001,-0.001977088,7.991,0,0
-0.0008206280000000003,-0.0009463726,0.0017191010000000002,0.0015850214000000004,-0.0031201560000000007,7.992,0,0
0.0008607620000000002,-0.00068492954,0.0016253924000000002,0.0015381934000000001,-0.0031840680000000004,7.993,0,0
0.0013389200000000002,-0.0008966509400000001,0.0012021582000000001,0.0007595574,-0.0030375780000000004,7.994,0,0
0.0016834420000000003,-0.0004458145400000001,0.0005374750000000001,0.00019262140000000016,-0.0026469540000000004,7.995,0,0
0.0014610080000000006,3.347325999999996e-05,0.0006595430000000001,-3.3555999999999975e-05,-0.0012195740000000002,7.996,0,0
-0.000199378,-5.964854000000003e-05,0.0009519751999999999,-0.00079466,0.0004905280000000001,7.997,0,0
-0.0008786999999999999,0.00037280039999999993,0.0008087386000000001,-0.001386184,0.001327404,7.998,0,0
1.1302000000000144e-05,0.0011910874,0.0008199554,-0.00105522052,0.001994582,7.999,0,0
0.001496512,0.0015761310000000001,0.0005773550000000001,-0.0016669005200000001,0.003059226,8.0,0,0
0.0036779200000000003,0.0021320011999999998,-0.00017966100000000007,-0.0026382565200000004,0.003412978,8.001,0,0
0.005105136,0.0026753460000000003,-0.0006710454000000001,-0.00270540852,0.0033387,8.002,0,0
0.0048175886,0.0020320602,-0.0007260714000000001,-0.0029944965200000007,0.0036399980000000006,8.003,0,0
0.0037785070000000004,0.0011145062,-0.0007918448000000002,-0.0033421260000000004,0.0033748826000000003,8.004,0,0
0.0024627547999999996,0.0005501642000000002,-0.0007191356000000001,-0.0023447632,0.0019152366000000003,8.005,0,0
0.0007672134000000001,0.00011451620000000007,-0.00043919524,-0.0011844516000000002,0.00013583060000000018,8.006,0,0
-0.0005649126000000001,-0.000149434,-5.250483999999999e-05,-0.0007732314000000001,-0.0018114674,8.007,0,0
-0.0009434792000000001,0.00018678720000000004,0.00041596916,1.432139999999992e-05,-0.0038520974,8.008,0,0
-0.0007249196,0.0010845812,0.0008683499600000001,0.0007854394,-0.00479485,8.009,0,0
-0.000737277,0.0014911552000000002,0.00132265636,0.000867223,-0.004604864,8.01,0,0
-0.0010361596,0.0012580574,0.0014564902,0.0008231520000000001,-0.004208074000000001,8.011,0,0
-0.0007710358,0.001301478,0.0015055722000000002,0.0011624878,-0.0033506580000000007,8.012,0,0
-0.00046102320000000003,0.0014497746,0.0015392842000000002,0.001505479,-0.00166644,8.013,0,0
-0.0011367152,0.0005504286000000001,0.0009996942000000003,0.001767323,9.090200000000002e-05,8.014,0,0
-0.0016313696,-0.0005501454000000001,0.00023183620000000004,0.0025144786,0.00174195,8.015,0,0
-0.0013539091999999998,-0.0007700636000000001,-0.001580394,0.00320021,0.0033751860000000005,8.016,0,0
-0.0013611045999999997,-0.0010570242,-0.0044434240000000005,0.0028650240000000003,0.0044673180000000005,8.017,0,0
-0.0014187141999999998,-0.0014701346,-0.005955664,0.0019435020000000006,0.004516196,8.018,0,0
-0.0007648738000000001,-0.0010386866000000002,-0.005977300000000001,0.0012861984,0.0037890318000000003,8.019,0,0
-0.00045460580000000007,-0.0004062058,-0.0056310862000000005,0.00023370840000000006,0.0028038658000000003,8.02,0,0
-0.0009015502000000002,-0.0003733498,-0.0041424536,-0.0010355436,0.0014892276000000003,8.021,0,0
-0.0009679252000000001,-0.0002743434,-0.0015616772,-0.0011347774000000001,-0.00022304439999999996,8.022,0,0
-0.0008954072,-0.000164109,-0.00014549880000000004,-0.0009668793999999999,-0.0018864624000000001,8.023,0,0
-0.0007853148,-0.0006820630000000001,0.0001664528,-0.0014543118,-0.0031383922000000003,8.024,0,0
-0.00043977680000000007,-0.0009818418,0.0008314290000000001,-0.0011904255999999997,-0.0045324662,8.025,0,0
0.0002137474,-0.0009971838,0.0015682064,-0.00040707959999999996,-0.0056328,8.026,0,0
0.0007556500000000001,-0.001536868,0.0017117439999999999,-0.0002576126,-0.0052243540000000005,8.027,0,0
0.000639887,-0.0022925420000000003,0.0014249765999999999,0.0005121754,-0.0038642040000000004,8.028,0,0
0.00038635600000000013,-0.0024374460000000002,0.0010710289999999998,0.0021382694,-0.0016754200000000004,8.029,0,0
-0.000295042,-0.0021889056000000003,8.495700000000009e-05,0.0029622892,0.001490322,8.03,0,0
-0.0014945762,-0.0020304080000000005,-0.001260237,0.0027445772000000003,0.003949944,8.031,0,0
-0.0025315021999999998,-0.0012227720000000002,-0.002037665,0.0026166440000000004,0.005042704,8.032,0,0
-0.0031727642,-0.00022170000000000013,-0.0016027760000000002,0.001853576,0.005143230000000001,8.033,0,0
-0.0034732540000000003,0.00017876339999999997,-0.0007622380000000002,5.8897999999999937e-05,0.004032607860000001,8.034,0,0
-0.0028749576000000002,0.0003862788,0.00012522999999999983,-0.001403076,0.0020035482600000002,8.035,0,0
-0.0015792956000000003,0.0005834874000000001,0.0014130940000000002,-0.0020936920000000003,0.0003260242600000001,8.036,0,0
-0.0007675058000000002,0.00044324459999999996,0.0020860542,-0.002475866,-0.00068253974,8.037,0,0
-0.00024517140000000006,0.0001450844,0.0018287316,-0.002745912,-0.00150402974,8.038,0,0
0.0004659506,-1.3217000000000046e-05,0.0012929336000000002,-0.0022502202,-0.0022754976,8.039,0,0
0.0007477572,-0.0002269302,0.0007533428,-0.0017148734000000001,-0.0032016940000000006,8.04,0,0
0.00035328059999999997,-0.0005119868,-1.7739200000000028e-05,-0.0012327444,-0.003694472,8.041,0,0
0.00036219260000000005,-0.0004939248,-0.00031181900000000007,-2.91604e-05,-0.0033655348,8.042,0,0
0.0008462402,-0.00017629460000000006,-0.0002485052,0.0014279356,-0.0019558308,8.043,0,0
0.0008142742000000001,-3.818720000000002e-05,-0.000410913,0.0025849338,0.0005671452000000003,8.044,0,0
0.0010240212,0.0003361042,0.0001282037999999999,0.0033412850000000003,0.0027807132000000003,8.045,0,0
0.0018272817999999999,0.0007796086,0.0014218778,0.0036515825999999998,0.0038860684000000005,8.046,0,0
0.00219577,0.0005285986,0.0017874494000000001,0.0027188572,0.0043575152,8.047,0,0
0.0022592700000000003,0.0003383618000000001,0.0014494446,0.0013216152,0.0036377252000000006,8.048,0,0
0.0027302400000000005,0.0006441700000000001,0.0016134396,0.00026903120000000005,0.0017975894000000004,8.049,0,0
0.003252398,0.0004327616,0.0013968356,-0.0008848808,0.0008137882,8.05,0,0
0.002933652,0.0001977724,0.0010368416,-0.0017932634000000004,0.0008390994000000001,8.051,0,0
0.0022810182,0.0006494132,0.0016684876,-0.0018125520000000003,0.0005080190000000001,8.052,0,0
0.0016658482,0.0009251260000000001,0.0034088972,-0.0014790310000000002,0.0001359592,8.053,0,0
0.0008710494000000001,0.0009276972000000001,0.004743478,-0.0019082650000000004,7.271719999999999e-05,8.054,0,0
0.00021389739999999998,0.0008862496000000001,0.003928778,-0.0019289930000000002,-0.00037752160000000006,8.055,0,0
0.00011177539999999997,0.0008760334,0.001973952,-0.0011368968000000001,-0.001120108,8.056,0,0
0.0005300212000000001,0.0008320074000000001,0.0002780720000000005,-0.0011402950000000002,-0.0017744656000000002,8.057,0,0
0.0010423952,0.0003977494,-0.0020049580000000003,-0.0013495260000000002,-0.0024346338,8.058,0,0
0.001643238,0.0002545078,-0.003846738,-0.0007595188,-0.003030402,8.059,0,0
0.00136956,0.0005493278000000001,-0.003701682,-0.00030778079999999996,-0.0029732300000000003,8.06,0,0
0.00035731999999999995,0.0002895492,-0.0036450400000000004,-0.0004465176,-0.002585546,8.061,0,0
-0.0004893620000000001,6.206360000000003e-05,-0.0034341460000000003,-0.0001221752,-0.00261921,8.062,0,0
-0.001295044,0.00047065960000000005,-0.002227716,0.0003665194,-0.002592096,8.063,0,0
-0.0020971740000000003,0.0005047280000000001,-0.0017110792000000002,3.6782000000000286e-06,-0.0018865218000000002,8.064,0,0
-0.0019833188,0.00034575680000000007,-0.0010533192000000001,-5.201799999999981e-06,-0.0009734438000000001,8.065,0,0
-0.0008080768000000001,0.0008175988,0.0006332168,0.00042452680000000005,-0.0001561837999999999,8.066,0,0
-9.674799999999828e-06,0.0009939184,0.0012665788,6.739860000000002e-05,0.0012391222000000001,8.067,0,0
0.0006792980000000002,0.0007767328000000001,0.0006844481999999999,-0.0002291698,0.0027180182,8.068,0,0
0.0010541472,0.0007592382,0.00021863939999999978,7.090779999999998e-05,0.0032044400000000002,8.069,0,0
0.0008370970000000001,0.0004373516000000001,-0.0007683646000000001,-0.0003431942,0.0032753580000000003,8.07,0,0
0.00013166700000000003,-0.0003878483999999999,-0.0017498106,-0.0007939112000000001,0.0032457680000000004,8.071,0,0
-0.0009567450000000001,-0.0013256164,-0.0015276006,-6.0525200000000035e-05,0.0024992626000000006,8.072,0,0
-0.0020207138,-0.0015839952,-0.001656032,1.407799999999963e-06,0.0017616976000000002,8.073,0,0
-0.0030388570000000003,-0.0011250741999999998,-0.003187166,-0.0005254278000000001,0.0015387576000000002,8.074,0,0
-0.00377171,-0.0004958943999999998,-0.003628056,0.00019179619999999995,0.0007465670000000001,8.075,0,0
-0.004166442,0.0005788456000000001,-0.0016902739999999996,0.0007371632,-0.00044936100000000006,8.076,0,0
-0.003892926,0.0018816596000000001,0.00029481600000000005,0.00020281920000000004,-0.0010343716,8.077,0,0
-0.0031327947999999998,0.002268462,0.0019709840000000003,0.00017843060000000003,-0.0014530406,8.078,0,0
-0.0020166207999999996,0.0016749840000000002,0.0049211920000000004,0.0004644498000000002,-0.0016748518200000002,8.079,0,0
-0.001356786,0.0007013880000000003,0.00675509,0.0003312116000000001,-0.0010842092200000002,8.08,0,0
-0.001580106,-0.0011442260000000004,0.0054486482000000004,0.0003905956000000001,0.00020719077999999992,8.081,0,0
-0.0016916400000000001,-0.003431934,0.0034190534,0.0008007256000000001,0.0014926847800000001,8.082,0,0
-0.0018311752,-0.004322478,0.0019591144000000002,0.0010027174000000001,0.00189797138,8.083,0,0
-0.0022706212,-0.0037901020000000005,9.800640000000001e-05,0.0005872382000000002,0.0012970446000000004,8.084,0,0
-0.002094028,-0.0028231180000000003,-0.0014370896,1.243639999999992e-05,0.00042752260000000005,8.085,0,0
-0.000573498,-0.0014536450800000003,-0.0018972697999999999,-0.0006220930000000001,-0.00023546993999999996,8.086,0,0
0.0016390180000000001,0.00027812252000000004,-0.002483615,-0.001507599,-0.00058518394,8.087,0,0
0.0035398340000000004,0.00137550052,-0.002803456,-0.0019674994000000003,-0.00023424853999999995,8.088,0,0
0.004965280000000001,0.0014421925200000002,-0.00195877696,-0.0016798034,0.00016928745999999999,8.089,0,0
0.005430374,0.00128722452,-0.00106095716,-0.0017392694,0.00025347946,8.09,0,0
0.0047805128,0.0016140036000000001,-0.0008298057600000001,-0.002077892,3.177000000000003e-05,8.091,0,0
0.0033384572000000005,0.0021475780000000002,-0.00040195916,-0.001362882,-0.0006192480000000001,8.092,0,0
0.0014732852,0.002001304,-8.175816e-05,-0.000556986,-0.0007774110000000001,8.093,0,0
-8.784280000000003e-05,0.0015136682,-0.0002676066,-0.00040386860000000014,-0.000957095,8.094,0,0
-0.0005808488000000001,0.0014520142,-1.5600399999999973e-05,6.389539999999994e-05,-0.0019083010000000003,8.095,0,0
-0.00047567720000000005,0.0012561826000000002,0.0006033602,0.0006397093999999999,-0.0026816190000000005,8.096,0,0
-0.0011148996000000001,0.0003715846,0.0010041396,0.00011266739999999992,-0.0031100290000000003,8.097,0,0
-0.0018221996000000002,0.0001861916,0.0012091112,-0.0006121226000000001,-0.0034417704000000004,8.098,0,0
-0.0019743136000000003,0.0010830714,0.0013205366,0.00020893799999999998,-0.0030510344000000003,8.099,0,0
-0.0015877656,0.0016372034,0.0005913005999999999,0.0007249439999999999,-0.0018979354,8.1,0,0
-0.0007777180000000003,0.001908301,-0.00040625139999999997,0.00045656699999999995,-0.0006981454000000001,8.101,0,0
0.00037481599999999993,0.002616629,-0.0008925374,0.001032439,0.0009248706,8.102,0,0
0.0010953150000000001,0.0023388512000000004,-0.001329024,0.0013688976000000002,0.002756695,8.103,0,0
0.0011505950000000001,0.00037177719999999964,-0.0015170280000000001,0.0002621356,0.003637005,8.104,0,0
0.0016096550000000002,-0.0012282468,-0.0012491372,-0.0008554844,0.0038484874000000004,8.105,0,0
0.0020651030000000004,-0.0023391028000000003,-0.0006009744,-0.0010783674,0.0038860154,8.106,0,0
0.0024542130000000002,-0.0038031488000000004,-0.00016004440000000006,-0.0015336097999999999,0.0030699726,8.107,0,0
0.0036170420000000004,-0.004450136,0.0003907235999999999,-0.0016051338600000002,0.0012978456000000001,8.108,0,0
0.004980450000000001,-0.0035907368,0.0012977096,-0.0005721818599999999,0.00011026360000000003,8.109,0,0
0.0047336819999999995,-0.0026032612,0.0019044388,0.00063543414,-0.00016079840000000003,8.11,0,0
0.0033726814000000003,-0.0019385798000000004,0.002089954,0.00141336814,-0.0002851208,8.111,0,0
0.0022529282000000005,-0.0008061786,0.00172400534,0.00259975854,-0.0005658418,8.112,0,0
0.0017770762,0.00035024740000000006,0.00043569934000000027,0.003664044000000001,-0.0011217988,8.113,0,0
0.0014096921999999998,0.0008409002000000001,-0.00108653466,0.0032594300000000007,-0.0015829588,8.114,0,0
0.0007543751999999999,0.000777679,-0.00142624766,0.0028429184000000004,-0.0021232882,8.115,0,0
0.0006682082,0.0006998897999999999,-0.00106508966,0.0028873304000000006,-0.0025298938,8.116,0,0
0.000645228,0.0005514427999999999,-0.0007355349999999998,0.0019659628,-0.0023404631999999997,8.117,0,0
-9.420199999999999e-05,-0.00011516320000000001,0.0004421394,0.0006935225999999999,-0.0017194385999999998,8.118,0,0
-0.001530144,-0.0007796612,0.0016341794000000003,0.00036996819999999994,-0.0008674095999999999,8.119,0,0
-0.0030301910000000002,-0.0007885792,0.0010088444,-0.00012556020000000005,-9.017300000000005e-05,8.12,0,0
-0.004353867400000001,-0.0007056054,-0.00035798760000000014,-0.0011321681999999999,0.00042975099999999997,8.121,0,0
-0.0053699260000000006,-0.0009242616000000002,-0.0006203762000000001,-0.0013396916,0.00047266560000000003,8.122,0,0
-0.0057204660000000004,-0.0009905176,-0.00013246860000000016,-0.0008214474,0.0004940967999999999,8.123,0,0
-0.005451302000000001,-0.0010229295999999999,-4.648600000000151e-06,-0.0007675258000000001,0.0005538050000000001,8.124,0,0
-0.004262054,-0.0012199396,0.0004474199999999999,-0.0005978315999999999,0.0003098186,8.125,0,0
-0.002618676,-0.0008648396,0.0011634256000000003,0.0004939644,0.00020711640000000003,8.126,0,0
-0.0013261026000000002,-0.00013111559999999994,0.0009162080000000003,0.0009420154000000001,0.00046048300000000003,8.127,0,0
-0.0004346466,0.0005118844,6.079380000000004e-05,0.0006132873999999999,0.0006939772,8.128,0,0
0.0005906453999999999,0.0014217244000000002,-0.00039627419999999997,0.0008738522,0.0008037620000000002,8.129,0,0
0.0016769573999999999,0.0019020620000000004,-0.0002782145999999999,0.00125887,0.0011297660000000001,8.13,0,0
0.0023715534,0.0014241400000000002,-0.0002284293999999999,0.0007256827999999999,0.0009361564000000001,8.131,0,0
0.00273965,0.000952888,6.071280000000001e-05,0.000354777,0.0004897032,8.132,0,0
0.0028102960000000003,0.0006477212000000003,0.000771105,0.00045154360000000004,0.0006000972,8.133,0,0
0.0027355140000000005,-0.00023183479999999996,0.0009424146,2.1075999999999864e-06,0.0003951762,8.134,0,0
0.0021423150000000005,-0.0008737248,0.0007765547999999999,-0.00032990200000000003,-0.00013726400000000006,8.135,0,0
0.0011222126,-0.0010126708,0.0009627639999999999,-0.00025878960000000003,-0.00023559060000000005,8.136,0,0
0.00048729480000000015,-0.0015938868,0.0006641025999999998,-0.0008069478000000001,2.0791999999999377e-06,8.137,0,0
-0.00017980320000000007,-0.002222296,-0.0003505234000000001,-0.0012873104,-0.0002128298000000001,8.138,0,0
-0.0011445012,-0.002428942,-0.0008704070000000001,-0.0007937923999999999,-0.0004972188000000001,8.139,0,0
-0.0019852142,-0.0026068940000000002,-0.0010300594,-0.0007530568,-0.00021494900000000003,8.14,0,0
-0.0025767098,-0.00279716,-0.0014748306,-0.0011901060000000002,0.0001988514,8.141,0,0
-0.002817226,-0.00217488,-0.0014019246000000001,-0.0006420036000000001,0.0003850988,8.142,0,0
-0.002758478,-0.001103602,-0.0011373286,3.154440000000002e-05,0.0003471580000000001,8.143,0,0
-0.00210162394,-0.00034413800000000007,-0.0012370606,-0.00020881907999999999,0.0004862453999999999,8.144,0,0
-0.00109096594,0.00078444,-0.0011747066,-0.00024642448,0.00032477160000000005,8.145,0,0
-0.0003404045400000001,0.002313928,-0.0011246734,7.550752000000004e-05,-0.0003352444,8.146,0,0
0.00024389326,0.003228084,-0.0012009086,2.7759720000000026e-05,-0.0008898324,8.147,0,0
0.00055767266,0.0035886119999999997,-0.00114403,-0.00026997428,-0.0012414446000000002,8.148,0,0
0.0005204394000000001,0.004096922,-0.0006151344,0.00011129720000000002,-0.0013159520000000002,8.149,0,0
0.0005056014000000001,0.003942418,-1.6508400000000013e-05,0.0005402406,-0.0009502292,8.15,0,0
0.0003997334,0.0028438977999999996,0.00027354640000000003,9.947459999999999e-05,-0.0006639096000000002,8.151,0,0
-5.126440000000003e-05,0.0019999964000000005,0.0007157530000000001,-0.0003633740000000001,-0.0007181996000000001,8.152,0,0
-3.49842e-05,0.0015548744,0.0012158824,-0.0010216460000000002,-0.0006001252,8.153,0,0
0.00022031299999999998,0.0009448616000000002,0.0009363008000000001,-0.002436604,-0.0007975352000000001,8.154,0,0
0.00015698600000000002,0.0005794532,0.00025431880000000007,-0.0036309340000000006,-0.001333006,8.155,0,0
0.0005547586,0.0009020034000000001,0.00018458800000000007,-0.0035558060000000003,-0.0013839192,8.156,0,0
0.0011165266,0.0012398408,-0.00011770519999999999,-0.0035318540000000005,-0.0008382272,8.157,0,0
0.001353943,0.0012137928,-0.0009637632,-0.0030684260000000004,0.00023704040000000002,8.158,0,0
0.001456703,0.0011292974,-0.0009675812000000001,-0.001129812,0.0017334644,8.159,0,0
0.00089098,1.3843799999999984e-05,0.0001853247999999999,0.0007252399999999999,0.0030639563999999998,8.16,0,0
-0.0004703740000000002,-0.0021939622,0.0002281161999999999,0.0017697519999999999,0.0037068400000000003,8.161,0,0
-0.0013647700000000002,-0.0032603082000000005,-0.0021626786,0.003160984,0.0036586094000000003,8.162,0,0
-0.0018204442000000001,-0.0028457242000000005,-0.0037916346000000005,0.004476872,0.0028535444,8.163,0,0
-0.001993931,-0.002223154,-0.0030394746000000005,0.00378109,0.0016148072,8.164,0,0
-0.0006140870000000001,-0.0008170800000000002,-0.0021182446000000002,0.002840506,0.0003006572,8.165,0,0
0.001530129,0.0014806,-0.0006968199999999995,0.002805218,-0.0006166368,8.166,0,0
0.0027329610000000003,0.002526168,0.0026927960000000003,0.0019625361,-0.0006984960000000001,8.167,0,0
0.0029889558000000004,0.0019738488,0.00552795,0.0007874951000000001,-0.000364151,8.168,0,0
0.0024266206,0.0010776228,0.005399114,0.0008323651,-1.8183800000000014e-05,8.169,0,0
0.00033799860000000015,0.00020992279999999997,0.0036517328000000007,0.0004556391,0.0003913712,8.17,0,0
-0.0021633014,-0.0006381192,0.0016151328000000003,-0.0011074029,0.0007827162,8.171,0,0
-0.0041083634,-0.0014119952000000002,0.00012396080000000005,-0.001680511,0.0005870699999999999,8.172,0,0
-0.005896008,-0.0018895140000000001,-0.0005415287999999999,-0.00192914,0.00020148939999999996,8.173,0,0
-0.006847822000000001,-0.002110674,-0.0012059987999999998,-0.0030314120000000007,8.288180000000001e-05,8.174,0,0
-0.006263462000000001,-0.002071756,-0.0015046056,-0.003535638,-2.12428e-05,8.175,0,0
-0.003652052000000001,-0.0015574814,-0.0008688402000000001,-0.002934804,-0.0002598178,8.176,0,0
0.0003977939999999999,-0.0008233333999999998,-0.00017016219999999992,-0.002430167,-0.0003434724,8.177,0,0
0.004585398,0.00012614460000000017,0.0003410834,-0.0020645156,-0.00033965899999999997,8.178,0,0
0.007666299999999999,0.0012188806,0.0013110374,-0.0008014976,-0.0004902074,8.179,0,0
0.008878116,0.0017325370000000001,0.0022657154,0.0005797584,-0.0004579766,8.18,0,0
0.008189682,0.0018374886000000002,0.0024952560000000004,0.0010051248,-0.0005623806,8.181,0,0
0.005841918,0.0018095266000000003,0.0020874580000000004,0.0014477698,-0.00083924,8.182,0,0
0.002887474,0.0015827806000000002,0.0012576940000000002,0.0017971264000000002,-0.0011850228,8.183,0,0
0.0008353,0.0015120126,-2.7399999999999907e-06,0.0010910104,-0.0013640292000000002,8.184,0,0
0.00011152000000000004,0.0018306522000000002,-0.00099819,0.00044846320000000014,-0.0012007754,8.185,0,0
-0.0003872464,0.0023061460000000002,-0.0012781968000000002,0.00047159040000000017,-0.0008530712,8.186,0,0
-0.0007736728,0.0026454140000000004,-0.0014391468,-0.0005173576,-0.0005225265999999999,8.187,0,0
-0.0006232367999999999,0.002575102,-0.0013400036,-0.0016876216,-0.000387605,8.188,0,0
-0.0006982208,0.0019535614000000005,-0.0006906104000000001,-0.0012670064000000001,-0.00047111460000000006,8.189,0,0
-0.0011294408,0.0011190954,-0.00043948960000000014,-0.0008541552000000001,-0.0006905990000000001,8.19,0,0
-0.0016165123999999998,-0.0004834106000000003,-0.0005617428000000001,-0.0005214348,-0.0007030790000000001,8.191,0,0
-0.002310594,-0.0027605306000000004,0.0003599012,0.0009937012000000001,-0.00044880940000000013,8.192,0,0
-0.002648432,-0.004257654600000001,0.0007312162,0.0026481252000000004,-0.00010529720000000006,8.193,0,0
-0.0023706108,-0.004796448,-0.0012114210000000003,0.0034521960000000003,0.0002792544,8.194,0,0
-0.001875984,-0.0048555740000000005,-0.0030706058,0.004139966,0.00042107680000000005,8.195,0,0
-0.0011630960000000002,-0.0040487908,-0.0029465276,0.004708712,-0.00011310739999999996,8.196,0,0
-0.0003152272000000001,-0.0027895648,-0.0025117836000000007,0.004370174000000001,-0.00044695140000000004,8.197,0,0
0.000240187,-0.0020300988000000004,-0.0022267398000000004,0.003683044,-0.0006854532,8.198,0,0
0.000297913,-0.0012902214000000002,9.488200000000219e-06,0.0028301728000000004,-0.0008947384000000001,8.199,0,0
8.740799999999997e-05,-0.0006770946,0.0027676102,0.0013092768000000001,-0.00020752340000000007,8.2,0,0
-7.605020000000003e-05,-0.0005709224000000001,0.0031766060000000002,-0.0004556552,0.0005617304,8.201,0,0
-9.906080000000003e-05,-0.0005530664,0.0022128240000000004,-0.0017928272,0.0005110042000000001,8.202,0,0
-0.00020957900000000005,-0.0004973144,0.0015512370000000002,-0.0029308892,0.00013327219999999989,8.203,0,0
-0.0005570502,-0.0008210434000000001,0.0005772810000000001,-0.004259494,-0.00032542819999999996,8.204,0,0
-0.0010552320000000001,-0.0012872622,-0.000783211,-0.004952,-0.0014200202000000002,8.205,0,0
-0.0016575058,-0.0013583546,-0.0011594486,-0.004586148,-0.001908392,8.206,0,0
-0.0023376960000000002,-0.0008994768,-0.0008567066,-0.0041392,-0.000798562,8.207,0,0
-0.002076251,-2.8724799999999993e-05,-0.0008731176000000001,-0.0034216740000000004,0.0013752639999999997,8.208,0,0
-0.0002568949999999998,0.0009943148,-0.0005139456,-0.001571122,0.0030345199999999998,8.209,0,0
0.001479335,0.0021894148,0.0002796503999999999,0.00040883400000000006,0.0037978720000000003,8.21,0,0
0.002496297,0.0031379498000000004,0.00039015199999999995,0.00125145,0.0042234068,8.211,0,0
0.0035651930000000004,0.004244826,0.000593344,0.00239366,0.0029410027999999997,8.212,0,0
0.0034828310400000003,0.005178136,0.001627532,0.003930314000000001,0.0009103028,8.213,0,0
0.00183667704,0.0055718,0.002042712,0.0038509060000000003,-0.0001361968,8.214,0,0
0.00048322504000000005,0.005725259999999999,0.001758494,0.0033360640000000006,-0.0008352668000000001,8.215,0,0
-0.00023341896,0.005559082000000001,0.002181716,0.003281832,-0.0016078376000000002,8.216,0,0
-0.0008380259600000001,0.004693526,0.002353766,0.0020687099999999996,-0.0016790736000000003,8.217,0,0
-0.001107569,0.002397200000000001,0.001785186,-6.372400000000003e-05,-0.0017237736000000003,8.218,0,0
-0.001060902,-0.000270794,0.001560859,-0.001125904,-0.0026141320000000003,8.219,0,0
-0.0010084080000000001,-0.002888842,0.0007755790000000001,-0.002034658,-0.0032395340000000005,8.22,0,0
-0.001054304,-0.005502432,-0.001119675,-0.0036971300000000003,-0.0033004240000000006,8.221,0,0
-0.0008158532,-0.006893632,-0.0027709730000000004,-0.00420019,-0.0030749740000000003,8.222,0,0
-3.9120000000004464e-07,-0.006239018000000001,-0.0035817670000000005,-0.003466388,-0.002018174,8.223,0,0
0.00043169179999999995,-0.0050742420000000005,-0.003987584,-0.0031589219999999998,-9.490200000000022e-05,8.224,0,0
0.0004898924,-0.004023489999999999,-0.0035808100000000002,-0.0027804240000000005,0.00138077,8.225,0,0
0.0007194362,-0.0023075879999999997,-0.0023110488000000003,-0.001205028,0.0018866800000000002,8.226,0,0
0.00036755040000000004,-0.0012260506,-0.0010418068,-0.0003767484,0.001575282,8.227,0,0
-0.00043106959999999995,-0.0010565837999999999,-2.3814800000000096e-05,-0.0007890564000000001,0.0006413740000000003,8.228,0,0
-0.0007919532,-0.0008319838000000001,0.0011174312,-0.0006070198000000001,-0.0005381279999999999,8.229,0,0
-0.0008339058,-0.00011911080000000002,0.0020110232000000003,-0.00046882560000000007,-0.001342772,8.23,0,0
-0.0013768756,0.0002162442,0.0018752082000000002,-0.0008355458000000001,-0.0008254579999999999,8.231,0,0
-0.0014268936000000002,4.1417200000000014e-05,0.0016667012000000003,8.654859999999986e-05,0.000957588,8.232,0,0
-0.0007719236000000002,0.00031134040000000004,0.0019875572,0.0018595585999999999,0.002659702,8.233,0,0
-0.0005862880000000001,0.0007379124000000001,0.0018021012,0.002359278,0.0035166340000000003,8.234,0,0
-0.00015874999999999998,0.0008803814000000001,0.0016428591999999998,0.0023212002,0.004057006000000001,8.235,0,0
0.0007698500000000001,0.0008093239000000001,0.0019954589999999998,0.0025689322,0.0038560478000000003,8.236,0,0
0.0008775544000000001,0.0008094245000000001,0.001415266,0.0014455082,0.002814666,8.237,0,0
1.4988399999999987e-05,0.0005587165000000001,-0.00014069799999999997,-0.0005298118000000001,0.001639106,8.238,0,0
-0.0003849515999999999,-0.00013309750000000002,-0.0014459400000000002,-0.0010515212000000002,0.00055108,8.239,0,0
-0.000519408,-0.0006205307,-0.0022291280000000004,-0.0010455732000000002,2.5292e-05,8.24,0,0
-0.0006954372,-0.0006072282,-0.0028034940000000006,-0.0013951690000000004,3.2996199999999994e-05,8.241,0,0
-0.0003472004,-0.0003959054000000001,-0.0026531840000000003,-0.0006631590000000001,-0.00046743800000000003,8.242,0,0
0.00012985960000000003,0.0002433386,-0.0017498612000000002,0.0006257670000000001,-0.0012458,8.243,0,0
0.0004910416,0.0007677646,-0.0008866663999999998,0.0010213224,-0.001361674,8.244,0,0
0.000676952,0.000891011,-0.0001691604,0.0019393820000000001,-0.001574654,8.245,0,0
0.0008293452000000001,0.001456687,0.0007342336,0.003295872,-0.00195455,8.246,0,0
0.0009666900000000001,0.0013029374,0.0015222236,0.00343502,-0.0018655,8.247,0,0
0.0008656902,0.00031586539999999984,0.0015581782,0.0030116938,-0.001781126,8.248,0,0
0.0004646362000000001,-0.0005183566000000002,0.0017852234,0.00269196088,-0.001762368,8.249,0,0
-0.0002969398,-0.0015162518,0.0018608814000000001,0.0018107820799999998,-0.001600852,8.25,0,0
-0.0010369418,-0.0019908238,0.0008185754,0.00011186407999999994,-0.0015983640000000001,8.251,0,0
-0.0016107718000000003,-0.001305208,-0.0003099286,-0.00085793792,-0.0013238524,8.252,0,0
-0.00219234,-0.0007196820000000001,-0.001322292,-0.00129988172,-0.0006798524,8.253,0,0
-0.0019861128000000002,3.6238800000000125e-05,-0.002601108,-0.0021102188,-0.0005237804000000001,8.254,0,0
-0.0003230968000000002,0.0018658468,-0.0038191939999999997,-0.0024282260000000003,-0.0008485564000000001,8.255,0,0
0.0015152011999999997,0.0028687248,-0.003977236,-0.002189714,-0.0008135644000000002,8.256,0,0
0.0025773052,0.0030361027999999996,-0.0034945479999999997,-0.0024565100000000003,-0.00021594000000000008,8.257,0,0
0.0036518992,0.0034690748,-0.0029292859999999997,-0.0026969420000000003,0.0006213159999999997,8.258,0,0
0.004316968,0.0038823020000000002,-0.0017768698000000002,-0.0015599700000000001,0.0018759339999999999,8.259,0,0
0.00372211,0.003665142,-0.00042188580000000005,-0.0005059859999999998,0.0030313860000000005,8.26,0,0
0.002701592,0.002911154,0.0006333782,-7.29949999999998e-05,0.0036190420000000003,8.261,0,0
0.002290708,0.0023814,0.0011415802,0.0010735270000000001,0.0034910419999999998,8.262,0,0
0.0022812780000000003,0.0014509800000000002,0.0022737682000000003,0.002265931,0.0026247120000000004,8.263,0,0
0.0018484530000000001,0.0003896539999999999,0.00280458,0.0020388918000000004,0.0018010228000000005,8.264,0,0
0.0014344982,-0.0002664036,0.0010505559999999998,0.0018543878000000001,0.0010410968000000003,8.265,0,0
0.001141396,-0.0005985036,-0.000180906,0.0024163368,0.0005226500000000002,8.266,0,0
0.0005208960000000001,-0.0008776824,0.0006632979999999999,0.0017812830000000003,0.0005028420000000001,8.267,0,0
-0.00012062200000000003,-0.0011545344000000002,0.0013504459999999997,0.0008010090000000001,0.0003682002,8.268,0,0
-0.000817721,-0.0010330304,0.0014174479999999995,0.0003873561999999999,-0.0002694206,8.269,0,0
-0.0019592062,-0.0015638928000000002,0.002661174,-0.0006502918,-0.0009395266000000001,8.27,0,0
-0.0038379200000000003,-0.0026261728,0.002558208,-0.0023399118000000003,-0.0018344178000000001,8.271,0,0
-0.00497721,-0.002764013,0.00028707600000000004,-0.0033152520000000003,-0.0035231618,8.272,0,0
-0.004409334000000001,-0.0022277686000000004,-0.00123244388,-0.0035865720000000005,-0.004713784,8.273,0,0
-0.0034475680000000007,-0.0022472006,-0.00196925348,-0.00384863,-0.004974358000000001,8.274,0,0
-0.0025145942000000007,-0.0017171712,-0.0017967852800000001,-0.0033319746000000003,-0.004948476,8.275,0,0
-0.0010588342,-0.00012057720000000004,-0.00014427927999999984,-0.0016716345999999997,-0.00425199,8.276,0,0
-0.0005946202000000002,0.00030486579999999987,0.00200744072,0.00015930740000000038,-0.0021647000000000003,8.277,0,0
-0.0020231482000000003,-0.00011650860000000007,0.0026382906000000004,0.0017433094000000003,0.00042435400000000005,8.278,0,0
-0.0031784582,0.0006148013999999999,0.0014984862000000001,0.0037997294000000005,0.0020413000000000002,8.279,0,0
-0.0035465580000000004,0.0015339820000000001,0.0003974040000000002,0.004879424,0.0032594319999999996,8.28,0,0
-0.002882132,0.0013592440000000001,3.068800000000018e-05,0.0042270584,0.0037302792,8.281,0,0
-0.0005471200000000001,0.0021811340000000004,-0.0002353339999999998,0.003710358400000001,0.0026990068,8.282,0,0
0.001840746,0.0036982300000000003,-0.0001939559999999999,0.0028480098000000006,0.0015173188000000002,8.283,0,0
0.0032373040000000003,0.0033995692200000003,0.0011400100000000001,0.0007875437999999999,0.0012025108000000002,8.284,0,0
0.004621360000000001,0.0022562992200000002,0.0020094414000000004,-0.0007546582000000001,0.0012351668,8.285,0,0
0.005777652,0.0010396872199999998,0.0009900214000000001,-0.0010074206,0.0015045496,8.286,0,0
0.005126464000000001,-0.0013877047800000002,-0.0005503546000000001,-0.0019502866,0.001934968,8.287,0,0
0.0036796000000000003,-0.00394366478,-0.0018760966,-0.0031571819999999997,0.0017404363999999999,8.288,0,0
0.002644422,-0.00506089,-0.0028751606,-0.002901232,0.0008275304000000002,8.289,0,0
0.0013584140000000003,-0.005555984,-0.0033671280000000005,-0.002649858,-6.988960000000005e-05,8.29,0,0
-0.00023105160000000012,-0.005491074,-0.0030869660000000004,-0.003050016,-0.0005412814,8.291,0,0
-0.0010995318,-0.003932448,-0.0021187438,-0.002640058,-0.0012040754000000001,8.292,0,0
-0.0005317298,-0.0014057160000000002,-0.0008710618000000001,-0.0015737261199999999,-0.0020384258000000002,8.293,0,0
0.0005081162,0.0006109560000000001,0.0002476682,-0.0012839287199999999,-0.0023196418,8.294,0,0
0.0011279062000000002,0.002325952,0.0010317162,-0.00058980672,-0.0018409812,8.295,0,0
0.0013425994,0.004029582,0.0019631622,0.0013796772800000001,-0.0008269413999999998,8.296,0,0
0.0010879736,0.004082166,0.0024491300000000003,0.0030454192800000003,0.00048038660000000017,8.297,0,0
0.00034036159999999995,0.0032263096,0.0020267813999999998,0.0039657854000000005,0.0020549546000000005,8.298,0,0
-0.0002933854,0.0029197096,0.0017017582000000001,0.004619496000000001,0.0036884786000000004,8.299,0,0
-0.0005369522,0.0019683856000000002,0.0014207174,0.0043599842,0.004344736,8.3,0,0
-0.0005470784,0.00028459959999999995,0.0006237194,0.0024441202000000006,0.0036774960000000006,8.301,0,0
-8.739460000000003e-05,-0.0007682284000000001,-0.00027466260000000005,0.0006963861999999996,0.002694378200000001,8.302,0,0
0.00013884360000000003,-0.0012102500000000002,-0.0008172720000000001,-0.00020599640000000015,0.0015053102000000002,8.303,0,0
1.9536600000000026e-05,-0.0019436660000000004,-0.0014398608000000001,-0.0017024364000000002,9.214200000000079e-06,8.304,0,0
-0.00041192659999999995,-0.002271154,-0.0020206900000000003,-0.0028966906000000006,-0.0011781698,8.305,0,0
-0.001583334,-0.0017414160000000002,-0.0022504100000000004,-0.0029768366000000003,-0.0023476858,8.306,0,0
-0.0029590118000000004,-0.0010235182,-0.0024186280000000004,-0.0032318986,-0.003080416,8.307,0,0
-0.0039051140000000003,-0.0006789848,-0.0023457200000000004,-0.0035966940000000005,-0.0024888799999999997,8.308,0,0
-0.00443196,-0.00039214339999999994,-0.001489396,-0.002450154,-0.0018410483999999998,8.309,0,0
-0.004616658,0.00017352860000000004,0.00020037000000000006,-0.000580592,-0.0010981203999999999,8.31,0,0
-0.004203028,-0.00025986940000000006,0.0017987620000000002,0.0008578779999999999,0.0004527616000000001,8.311,0,0
-0.0030424064000000002,-0.0007851192000000001,0.00317619,0.002813832,0.0012900816000000002,8.312,0,0
-0.0010054864000000002,-7.753460000000008e-05,0.0041224,0.004524954,0.0009487452,8.313,0,0
0.0007276755999999997,0.00024671800000000005,0.0038065732000000002,0.004618588,0.0005843566000000002,8.314,0,0
0.0020624095999999996,0.0001331784000000001,0.0025368552000000003,0.0040743920000000005,3.936600000000053e-06,8.315,0,0
0.0036171716,0.0010588424,0.0012843776000000002,0.0036881520000000005,-0.0009070614,8.316,0,0
0.004300012000000001,0.0012893724000000001,0.000268262,0.0020997800000000003,-0.0012842434,8.317,0,0
0.0038440180000000007,-1.1037599999999754e-05,-0.00047560780000000007,0.00011687999999999998,-0.0015061809999999999,8.318,0,0
0.0032282920000000007,-0.0003801737999999998,-0.000718761,-0.00038298840000000004,-0.001705796,8.319,0,0
0.0023753028,-0.00024281819999999983,-0.0009826190000000001,-0.0011046744,-0.0015057478000000003,8.32,0,0
0.0008586688000000002,-0.0007444001999999998,-0.0015698214,-0.0023146404000000003,-0.0013449036000000001,8.321,0,0
-0.00042721519999999995,-0.0006364701999999999,-0.0024002638,-0.0025303164000000005,-0.0013074956,8.322,0,0
-0.0017114652,-0.00016674620000000005,-0.00300075,-0.0022508284,-0.0008982750000000001,8.323,0,0
-0.0031202872000000003,-0.0004613888,-0.0031879480000000003,-0.002621972,-0.0004171592000000001,8.324,0,0
-0.003961358,-0.0010340228000000002,-0.003312944,-0.00279141,-0.00027555540000000006,8.325,0,0
-0.00408526,-0.0008586360000000001,-0.0027908767999999997,-0.0017222460000000002,2.936639999999999e-05,8.326,0,0
-0.004050308,-0.000645829,-0.0016116688,-0.00074267,0.00029246860000000003,8.327,0,0
-0.003969358,-0.000878965,-0.0006302368000000001,-0.00016570399999999986,-0.00025736600000000003,8.328,0,0
-0.0029753559999999997,-0.0008233448,0.0005284812000000001,0.0008497220000000002,-0.0009878358000000001,8.329,0,0
-0.0012830519999999998,-0.0003984648,0.0016636432000000003,0.00193018,-0.0011781918,8.33,0,0
0.000757152,0.0005535284,0.002066844,0.0020571160000000003,-0.0010243517999999998,8.331,0,0
0.002840736,0.0015818434,0.002207812,0.0022388980000000005,-0.0006453979999999998,8.332,0,0
0.004521668,0.0024181513999999996,0.0024225500000000003,0.002728342,-0.00032243020000000003,8.333,0,0
0.005109578000000001,0.0028347240000000003,0.002156674,0.0021635354,-0.00014845419999999992,8.334,0,0
0.004584334000000001,0.0025744968,0.0018614360000000002,0.0012805334,-0.00024142019999999996,8.335,0,0
0.0034273824000000002,0.001724584,0.0021871119999999997,0.00020520939999999984,-0.0007190564,8.336,0,0
0.0017650623999999999,0.0005520854,0.0018869180000000002,-0.0018399546000000002,-0.0007366804000000001,8.337,0,0
0.00016400639999999988,-0.0002891526,0.0009632100000000002,-0.0042503946,-0.00011336020000000013,8.338,0,0
-0.0011019496,-0.0007100616,0.0003764342,-0.00535765,0.0006135597999999999,8.339,0,0
-0.0020631816,-0.0011796264000000002,4.117320000000005e-05,-0.005559718,0.001112105,8.34,0,0
-0.002803082,-0.0019922956,-0.0008680707999999999,-0.005618755999999999,0.0016769092,8.341,0,0
-0.0028127840000000005,-0.002180195,-0.0014484028,-0.0042070066,0.0030585812000000004,8.342,0,0
-0.0021997470600000004,-0.0019523192000000002,-0.0009263992,-0.0018483646000000003,0.0042234112,8.343,0,0
-0.00172429906,-0.0016807832,-0.0004793634000000001,-0.00028608059999999996,0.0042955932,8.344,0,0
-0.00099231966,-0.0009566952000000001,8.83996e-05,0.0010259334000000003,0.0038682039999999997,8.345,0,0
6.760233999999999e-05,-0.0002694212,0.0010367196,0.0027027094000000003,0.002941046,8.346,0,0
0.0006485163400000001,2.3481200000000015e-05,0.0020584016000000003,0.0030790160000000004,0.0008662019999999999,8.347,0,0
0.0009118334,2.9873600000000005e-05,0.0026681720000000003,0.0025914692,-0.001151314,8.348,0,0
0.0012312998000000002,0.0001901966,0.003240698,0.0025600972,-0.0015922276000000003,8.349,0,0
0.001040741,0.0002680998,0.0035604760000000004,0.0022745412000000002,-0.0012401602000000002,8.35,0,0
0.00046645180000000005,0.0002517798,0.003177094,0.0015754032,-0.0011230342000000003,8.351,0,0
-6.25802e-05,0.000444955,0.0028591800000000002,0.000977203,-0.0014160122,8.352,0,0
-0.0008362102,0.000573571,0.002392652,0.0002978818,-0.0017208742000000001,8.353,0,0
-0.0014619446,0.00038063260000000004,0.0012813219999999999,-0.0009189082,-0.0022523386,8.354,0,0
-0.0013215791999999999,0.00017105660000000004,0.00018318400000000008,-0.0025621382000000003,-0.00296319,8.355,0,0
9.20020000000001e-05,0.0006402906,-0.00030432800000000003,-0.0035723302,-0.003330988,8.356,0,0
0.001898816,0.000949285,-0.0026460340000000002,-0.0033701338400000005,-0.002830287,8.357,0,0
0.0023499218000000003,0.00039362080000000007,-0.006632994,-0.00273711284,-0.0019771584,8.358,0,0
0.0024404158000000003,0.0004144954,-0.009015786,-0.0008983888400000003,-0.0012681226,8.359,0,0
0.0023004918,0.0009823981999999998,-0.009765268,0.00170108516,6.566940000000011e-05,8.36,0,0
0.0005519638000000001,0.0003034462,-0.008944188,0.0032963211600000003,0.0014902274000000001,8.361,0,0
-0.0008551656000000001,-0.00035909780000000006,-0.005591054,0.0044051870000000005,0.0017775184000000002,8.362,0,0
-0.00019103940000000008,0.00023911139999999991,-0.0009471699999999998,0.00517673,0.0012399798000000003,8.363,0,0
0.0004548166,8.712239999999993e-05,0.002584736,0.004638166,0.0010849992000000004,8.364,0,0
0.0005406992,-0.0004518536,0.004284672,0.0037102880000000004,0.0009192212000000001,8.365,0,0
0.0010015384,-0.00016430360000000002,0.004025446,0.003259174,0.0010881851999999998,8.366,0,0
0.0008546944,0.0002399258,0.0029092246,0.0018349080000000003,0.0020039892000000004,8.367,0,0
0.0001388236,0.00046729860000000004,0.00200566418,6.544800000000018e-05,0.0028746972000000003,8.368,0,0
-0.0001417762,0.0004913419200000001,0.0012006135800000002,-0.0009983779999999999,0.0033267640000000003,8.369,0,0
-0.0002572752,0.00041552052000000004,0.00063257858,-0.00221857,0.003092808,8.37,0,0
-0.0006974764,0.00037630652000000006,0.00010667057999999997,-0.0037906780000000004,0.0024015096000000002,8.371,0,0
-0.0008245038,0.00048690312000000007,-0.00027433202000000004,-0.004482862,0.0014795432,8.372,0,0
-0.000211377,0.0006639731200000001,-0.0006936676,-0.00431395,0.0005730832000000001,8.373,0,0
0.0004446948000000001,0.0009327346,-0.0012912230000000002,-0.004462706,-0.0005176088,8.374,0,0
0.0006004184,0.0009996897999999998,-0.001602508,-0.003954218000000001,-0.0017410288000000002,8.375,0,0
0.0008856708000000001,0.0011159954,-0.0012504228,-0.0024281120000000005,-0.0027099304000000003,8.376,0,0
0.0014008796000000003,0.0016503934000000001,-0.0006782687999999999,-0.000933312,-0.003198072,8.377,0,0
0.0011040716,0.0021670394,0.00014569320000000008,0.000611444,-0.003283638,8.378,0,0
0.0005933662000000002,0.0031433774000000003,0.0015080852000000002,0.002744272,-0.003120228,8.379,0,0
0.0008646510000000001,0.004611529600000001,0.0026569132000000004,0.004156676,-0.002645376,8.38,0,0
0.0010442336,0.005640928000000001,0.0031793380000000003,0.004133036,-0.0020774739999999997,8.381,0,0
0.0010061076,0.005683044000000001,0.003446966,0.004270300000000001,-0.001474104,8.382,0,0
0.0011518516,0.0047052118,0.003641684,0.004535982,-0.000396186,8.383,0,0
0.0007977990000000001,0.0022717918,0.0028378206,0.0032827685999999995,0.000940712,8.384,0,0
9.127700000000007e-05,-0.0012651342000000003,0.0016994146,0.0017668545999999995,0.001648876,8.385,0,0
-0.0003934259999999999,-0.004806464200000001,0.0009009051999999999,0.0013352774,0.0020472876000000003,8.386,0,0
-0.00117396,-0.0079714642,-0.0006105167999999999,-0.00014042260000000006,0.0019796904000000002,8.387,0,0
-0.002044752,-0.009805562,-0.0028698948,-0.0023074446,0.0013300672,8.388,0,0
-0.002336758,-0.009583697999999998,-0.0047046134,-0.0030478852,0.0008280052,8.389,0,0
-0.002773696,-0.0076239016,-0.0055420873999999995,-0.0031220292,0.0010555732,8.39,0,0
-0.0033591920000000004,-0.005179565599999999,-0.00562585,-0.003442126,0.0013661996,8.391,0,0
-0.0035252420000000005,-0.0030701436000000006,-0.004257783999999999,-0.0026436902000000003,0.0007791948,8.392,0,0
-0.003360826,-0.0011156738,-0.0020677639999999993,-0.0012261702,0.00021072599999999984,8.393,0,0
-0.0026971738,2.2270199999999975e-05,-0.00027531229999999994,-0.0008065836,-0.0004197420000000001,8.394,0,0
-0.0015458457999999997,0.0002930024,0.0011938597,-0.0003827316000000001,-0.00167081,8.395,0,0
-0.00021688380000000002,0.0007788844,0.0021377357000000002,0.0005443504,-0.002597714,8.396,0,0
0.0009657902,0.0013987084,0.0020737097,0.0008341545999999999,-0.0020875516,8.397,0,0
0.0018373382,0.0015319626,0.0014526699,0.0004505946,-0.0011766635999999999,8.398,0,0
0.002445202,0.0015440824000000001,0.0014967174000000002,0.0005188309999999999,-0.0009221991999999998,8.399,0,0
0.0025142240000000007,0.0015480060000000002,0.0014906014000000002,0.0003479929999999999,-0.00020806279999999996,8.4,0,0
0.0017696720000000001,0.0011630380000000001,0.0008161864,-0.00035651500000000007,0.0010579792000000002,8.401,0,0
0.0011655338000000001,0.0008864418,0.0005305604,-0.000964819,0.0018715868000000002,8.402,0,0
0.0011510578,0.0011867518,0.0004133146000000001,-0.0013738490000000001,0.0023191308000000002,8.403,0,0
0.000505076,0.0014738560000000002,-0.0002997525999999999,-0.001857944,0.0029736244,8.404,0,0
-8.789400000000004e-05,0.0012600940000000002,-0.0012113906,-0.0024336740000000003,0.003110688,8.405,0,0
-0.00017578800000000007,0.0007785400000000001,-0.0016729136,-0.002406406,0.0024272814,8.406,0,0
-0.0012974298000000002,-0.00018934980000000006,-0.001759265,-0.00231319,0.0015463138,8.407,0,0
-0.0026561798,-0.0013499478,-0.0015866116000000001,-0.0021448820000000003,0.0005010038,8.408,0,0
-0.002476402,-0.0011357118,-0.0010132698,-0.000880612,-0.0005865402,8.409,0,0
-0.0010630160000000002,0.0001534119999999999,-0.0004577006,0.0005242360000000001,-0.0010576262000000002,8.41,0,0
0.00040025,0.0010183580000000002,-0.00024362659999999998,0.0011460060000000002,-0.0013921536000000001,8.411,0,0
0.001836414,0.0017513236000000001,6.203080000000003e-05,0.0025370960000000004,-0.0018932140000000003,8.412,0,0
0.00296454,0.0025257156,0.0006026110000000001,0.0040917,-0.001814616,8.413,0,0
0.00293236,0.0021673076,0.0010975852,0.003981798000000001,-0.0011690462000000003,8.414,0,0
0.0018457508,0.0009208108000000002,0.0017129500000000002,0.0036305960000000007,-0.0003498002,8.415,0,0
0.0009618272,0.000477303,0.0024140420000000004,0.003863394,0.0004522918000000001,8.416,0,0
0.0006937724,0.0005840038000000001,0.002370792,0.003187432,0.0012515198,8.417,0,0
0.0008311084,0.0003085942,0.0018129114000000003,0.0019507762000000003,0.0016624984000000002,8.418,0,0
0.0014046104000000003,0.00015468180000000002,0.0015526760000000002,0.0015879398,0.0015699937800000001,8.419,0,0
0.0016260356000000003,0.00013876540000000003,0.0010576008000000002,0.0012130754000000002,0.00101783398,8.42,0,0
0.0010599852000000003,-8.064279999999999e-05,-8.26192000000001e-05,-0.00023042859999999996,0.00010227197999999996,8.421,0,0
-0.000142138,-0.00020557559999999998,-0.0011149492000000001,-0.0013077946000000001,-0.00062299002,8.422,0,0
-0.0015479740000000001,-0.000127982,-0.0015549466000000002,-0.0012040182,-0.0011237826200000002,8.423,0,0
-0.0030662740000000003,-0.00022724399999999998,-0.0021007692000000002,-0.0017747938,-0.0015953398000000001,8.424,0,0
-0.0037936100000000006,-0.00025208500000000004,-0.0020977558,-0.0025231294,-0.0018951320000000001,8.425,0,0
-0.0036109980000000007,-0.000354063,-0.0007716258000000002,-0.0015263488,-0.002054588,8.426,0,0
-0.0023197998000000003,-0.0007489166000000001,0.0005729282,-0.0006184927999999998,-0.00209149,8.427,0,0
0.00019920419999999999,-0.0005890826000000001,0.001122436,-0.0008400381999999999,-0.001789308,8.428,0,0
0.0022018762000000002,1.9331799999999983e-05,0.0017230870000000003,0.0004665938000000001,-0.000645892,8.429,0,0
0.0033584262,0.0005210600000000001,0.0024706068000000005,0.0024725118000000004,0.0008553839999999999,8.43,0,0
0.0039419162,0.0008940888,0.0022956748000000004,0.0025771792000000003,0.001693702,8.431,0,0
0.0035790172000000004,0.0011615528,0.0021796988000000006,0.0023151944600000003,0.002079358,8.432,0,0
0.0018285332,0.0008912928000000002,0.0030004610000000003,0.0021074912600000002,0.0021495016,8.433,0,0
-0.00016090080000000012,0.00020360479999999997,0.003413946,0.00064747126,0.0016116548,8.434,0,0
-0.0016310908000000002,-0.00017013120000000003,0.002795222,-0.0011647827400000001,0.0004020152,8.435,0,0
-0.0022361488000000006,-3.7856000000000066e-05,0.0025277520000000003,-0.0020081787400000003,-0.0003132308,8.436,0,0
-0.0023843859999999996,8.862639999999996e-05,0.002303744,-0.002656456,-0.0007639908,8.437,0,0
-0.002389388,-0.00046427360000000006,0.0015266882,-0.003654192,-0.0018535724,8.438,0,0
-0.001153534,-0.0011410996,0.0003920242,-0.0040385,-0.0025583796000000006,8.439,0,0
2.7917999999999986e-05,-0.0015953196,-0.0018947518000000003,-0.004007482000000001,-0.002745604,8.44,0,0
0.00031912,-0.0021011356,-0.004177233800000001,-0.004372254000000001,-0.0030025020000000006,8.441,0,0
0.0006412388000000002,-0.00222099,-0.0049028938000000005,-0.004353996,-0.0031131480000000005,8.442,0,0
0.0008799062000000001,-0.00170983,-0.004498024,-0.0029777048000000006,-0.0022212692,8.443,0,0
0.000494977,-0.000954477,-0.0036911360000000002,-0.0011596868000000003,-0.0009912092000000003,8.444,0,0
0.000484917,-6.3433e-05,-0.0016136860000000002,0.0010605052000000003,-0.00039502120000000024,8.445,0,0
0.0013219210000000002,0.000948527,0.0005245797999999999,0.004234257200000001,0.00019509579999999992,8.446,0,0
0.0018034702,0.0012271454000000002,0.0015609658,0.007044537200000001,0.0011752238,8.447,0,0
0.0018239986,0.0008160094000000003,0.0015416957999999999,0.008205194,0.001768821,8.448,0,0
0.0021965398000000002,0.0007686864,-7.906420000000007e-05,0.008204978,0.001459185,8.449,0,0
0.0021117398000000003,0.0005007484,-0.0012515922,0.007353242000000001,0.001403461,8.45,0,0
0.0007450938,-0.0003715246,-0.000901112,0.004789866,0.00164179,8.451,0,0
-0.0005823882,-0.000707793,-0.00070659,0.002138442,0.00150162,8.452,0,0
-0.0018724500000000003,-0.000474001,-0.0011630986,0.0006290900000000001,0.0013594740000000003,8.453,0,0
-0.0038963340000000004,-0.0006929636,-0.0005575806,-0.001091568,0.0010384412,8.454,0,0
-0.005471836000000001,-0.0010965062,-7.528860000000017e-05,-0.002929788,0.0010203972000000002,8.455,0,0
-0.005680467999999999,-0.0010996466,-0.000675987,-0.003949984,0.0013778672000000001,8.456,0,0
-0.005337646,-0.0010446486,-0.001133365,-0.004666112000000001,0.001084062,8.457,0,0
-0.0046525360000000005,-0.0010535506,-0.0013761624000000001,-0.0054653160000000004,0.0005942304000000001,8.458,0,0
-0.003025547,-0.0009896598,-0.000705703,-0.0051225920000000005,0.00021567720000000002,8.459,0,0
-0.0013669109999999997,-0.0008196952,0.00035630500000000007,-0.0038314377999999994,-0.0005359248000000001,8.46,0,0
4.402699999999987e-05,-0.0008735762000000001,0.0007824134000000002,-0.0025880104,-0.0013092442000000003,8.461,0,0
0.0016942750000000003,-0.0007849352000000001,0.0009537634000000001,-0.0009704563999999999,-0.0015305350000000002,8.462,0,0
0.0030678190000000003,-0.00035061920000000005,0.0016828434,0.0010472076000000003,-0.0016760094000000001,8.463,0,0
0.003941434000000001,-5.0492799999999965e-05,0.0021347780000000004,0.0021477236000000005,-0.0016334374,8.464,0,0
0.0043574040000000005,0.00014065760000000002,0.0017732952000000003,0.0024539294000000007,-0.0010653518000000002,8.465,0,0
0.004001714,0.0003021958,0.0014267128,0.003096532000000001,-0.0003912184000000001,8.466,0,0
0.0026396279999999998,0.0005108388000000001,0.0006115328,0.0026696466,0.0008705816,8.467,0,0
0.001307398,0.000351314,-0.00044608920000000006,0.0011634066,0.0022058456000000003,8.468,0,0
0.00022550619999999984,0.00014594720000000002,-0.0009098254000000001,8.623859999999981e-05,0.0029487696000000006,8.469,0,0
-0.0008241398000000002,0.0005373008,-0.0010770238000000001,-0.0010364494000000002,0.00314983,8.47,0,0
-0.0013547418,0.000864533,-0.0015390974000000003,-0.0027048094,0.0026258272,8.471,0,0
-0.0017975878,0.0009113448000000002,-0.0017742454000000002,-0.0036819880000000006,0.0017856430000000004,8.472,0,0
-0.0019348098,0.0014249496000000002,-0.0013623990000000002,-0.0035986000000000004,0.001353875,8.473,0,0
-0.002187848,0.0018359478,-0.0011667334,-0.003836302,0.001169965,8.474,0,0
-0.0021826379999999998,0.0013533836,-0.0011385442,-0.003745196,0.0010787466000000002,8.475,0,0
-0.000704784,0.0014536436,-0.0005346986000000001,-0.0024762854000000005,0.0016886634,8.476,0,0
0.0014713380000000002,0.0022689258,0.0004420434,-0.0011332654,0.0017370092000000001,8.477,0,0
0.0028452700000000004,0.0022866238,0.001181527,-4.905940000000009e-05,0.0008256372,8.478,0,0
0.0033748370000000003,0.0019933386,0.0016886156000000003,0.0015484046,0.00013560319999999983,8.479,0,0
0.0037256704000000005,0.0018183134,0.0023463616,0.0025796106,-0.0008283884000000001,8.48,0,0
0.0026456936,0.0006035993999999999,0.00276206,0.002179286,-0.0019608644000000002,8.481,0,0
0.0011874924000000002,-0.0013673026000000001,0.0026714399999999998,0.0018583052000000003,-0.002578276,8.482,0,0
0.0007854924,-0.0022671226,0.0023343200000000004,0.0015607692000000001,-0.003195688,8.483,0,0
0.0006260523800000001,-0.0024412554000000004,0.001472992,0.0001790492,-0.0036057280000000003,8.484,0,0
0.0005052589800000001,-0.0025482872,0.00042618399999999997,-0.0009631888,-0.0029815662000000002,8.485,0,0
0.00028911678,-0.0019147736,-0.00040621800000000013,-0.0010873308,-0.0020341402000000003,8.486,0,0
-0.0002464040200000001,-0.0015040576,-0.0013024260000000002,-0.001666982,-0.0011745402000000002,8.487,0,0
-0.00103694402,-0.0020488936,-0.00238616,-0.002519948,-2.4406199999999997e-05,8.488,0,0
-0.0012746990000000002,-0.0024769756000000004,-0.003079,-0.0023783420000000003,0.0008671338000000001,8.489,0,0
-0.0016467830000000002,-0.0025916624,-0.0030390640000000006,-0.0018807006000000001,0.0010821810999999998,8.49,0,0
-0.002384736,-0.0029769800000000006,-0.0030852740000000003,-0.0019283246000000003,0.0005678431,8.491,0,0
-0.0020036223999999997,-0.0022320886000000003,-0.00346523,-0.0015451000000000002,-0.0003930409000000001,8.492,0,0
-0.0009700663999999999,0.00014658940000000006,-0.003337894,-0.0003152560000000001,-0.0012406889,8.493,0,0
-0.0006241253999999998,0.0015225934,-0.002782512,0.0005797160000000001,-0.0016650389,8.494,0,0
-0.0004146333999999999,0.0018046218,-0.0025769552,0.0011976226000000002,-0.0015540422000000001,8.495,0,0
0.0002725466000000001,0.0029842458000000002,-0.0020216526,0.0027532045999999998,-0.0011661902000000002,8.496,0,0
0.0005167588000000001,0.0036849764,-0.0006879226000000001,0.004077814,-0.0006054942199999999,8.497,0,0
0.00038529480000000006,0.0027772003999999998,0.00048626339999999994,0.004135612,4.2612580000000005e-05,8.498,0,0
0.0005517498000000001,0.0026471384000000004,0.0012245114,0.004506342,0.00034196458,8.499,0,0
0.0010186878000000002,0.0035020840000000004,0.0018334126000000002,0.004711004,-7.529220000000031e-06,8.5,0,0
0.0014873878000000002,0.0032612080000000002,0.0017840890000000002,0.0036329654,-0.00021246682,8.501,0,0
0.00171736,0.0026214578,0.0012597014000000001,0.0029542654000000003,0.0003690472,8.502,0,0
0.001695224,0.0025396698000000003,0.0011356734,0.0028465434,0.0009829304,8.503,0,0
0.0014472312,0.0019222666000000002,0.0009963154000000001,0.0015798214,0.0014732284,8.504,0,0
0.0009616634000000003,0.0006461526000000001,0.00042314360000000005,-2.6026600000000053e-05,0.0017708486,8.505,0,0
0.00040523940000000003,-0.0003562154,7.379860000000002e-05,-0.0010496099999999999,0.0012856921999999998,8.506,0,0
-0.0005395046000000001,-0.0011043712,-0.00010327780000000004,-0.00235287,5.0092199999999805e-05,8.507,0,0
-0.0020773606,-0.0018798052,-0.0009003078,-0.003930202,-0.0016454638,8.508,0,0
-0.0029196318000000005,-0.002254288,-0.0013581158,-0.004295496,-0.0033651398000000003,8.509,0,0
-0.0033769340000000003,-0.002073124,-0.000724796,-0.0031742942000000003,-0.004078494,8.51,0,0
-0.0038275,-0.0016020548000000002,0.00010100600000000011,-0.0022402558000000003,-0.004005536,8.511,0,0
-0.003458566,-0.0010661448,0.0007355780000000001,-0.0011944178000000004,-0.0036214920000000005,8.512,0,0
-0.0020464460000000004,-0.0005539288,0.001817894,0.0009033561999999999,-0.0022009160000000007,8.513,0,0
0.0002193900000000003,0.00044124919999999996,0.002723452,0.0023345822,-0.00037022399999999994,8.514,0,0
0.0023221680000000003,0.0017437052,0.002773844,0.0024832544,0.001196618,8.515,0,0
0.003779886,0.0030461620000000003,0.003028694,0.00321965,0.002561898,8.516,0,0
0.00435322,0.0041612080000000004,0.003517256,0.003411302,0.003543094,8.517,0,0
0.0037385740000000006,0.0041659996,0.0034186220000000005,0.0017847740000000003,0.003744044,8.518,0,0
0.001761912,0.0031514136000000007,0.0029413964,0.0006271660000000001,0.0036092,8.519,0,0
-0.0005387179999999999,0.0020622854,0.0027417243999999998,-0.00032702800000000004,0.0036310660000000005,8.52,0,0
-0.001991042,0.0005122574000000001,0.0021663304000000003,-0.001906928,0.0034468679999999996,8.521,0,0
-0.002005318,-0.0017138726000000002,0.0007529104,-0.002775128,0.0031163740000000003,8.522,0,0
-0.0007237619999999998,-0.0030081882000000002,-0.0015373536,-0.002732324,0.002952014,8.523,0,0
0.00026026600000000026,-0.0036625562,-0.004140092000000001,-0.002682762,0.0027518068,8.524,0,0
0.0011108754600000002,-0.004818628,-0.005571104,-0.0024175259999999997,0.00180836788,8.525,0,0
0.0018007998600000003,-0.0056251899999999995,-0.005281562000000001,-0.0011737759999999999,0.0007009258800000002,8.526,0,0
0.00120588586,-0.0055106320000000006,-0.0038355760000000003,5.586600000000001e-05,0.00014298907999999995,8.527,0,0
4.604985999999997e-05,-0.005151304000000001,-0.0017110100000000002,0.0008313620000000001,-0.00013003512000000003,8.528,0,0
-0.00038980974,-0.004605996,0.001382128,0.0019995940000000004,-0.0006729259200000001,8.529,0,0
-0.000316464,-0.0033681176,0.003311482,0.003377164,-0.0012179110000000001,8.53,0,0
-0.0002962886,-0.0017725276000000003,0.0028199964,0.003307156,-0.001197857,8.531,0,0
-0.0001685574,-7.537759999999983e-05,0.0019370956000000004,0.002339583,-0.0012904322000000003,8.532,0,0
-3.379380000000001e-05,0.0013323844,0.0013789492,0.0020321095999999996,-0.0015538258000000003,8.533,0,0
2.4500599999999987e-05,0.0020805164000000003,0.000691400626,0.0009849616,-0.0014307418,8.534,0,0
0.0002426814,0.00230522,-1.1297739999999927e-06,-0.0008336364,-0.0013832438,8.535,0,0
0.0003686688,0.002054465,-0.00012102217399999999,-0.0015814824,-0.0014308838,8.536,0,0
0.00015384159999999993,0.001200109,0.00015559062600000004,-0.0017381334000000001,-0.0011131878,8.537,0,0
5.59612e-05,0.00027283499999999997,-0.0009748849740000001,-0.002551362,-0.000759008,8.538,0,0
-7.484400000000002e-05,-0.0001753126,-0.0035185944000000005,-0.0029896799999999998,-0.0006040996000000001,8.539,0,0
-0.0008377240000000001,-0.0006310338000000001,-0.004796238,-0.002716662,-0.0007124396,8.54,0,0
-0.0021551412000000002,-0.0010983048,-0.004868279200000001,-0.00282313,-0.0006829856000000001,8.541,0,0
-0.0030606792000000002,-0.0009252000000000002,-0.004714081200000001,-0.0023776740000000006,-0.00044072560000000003,8.542,0,0
-0.0037239644000000003,-0.0004224740000000001,-0.0026030012000000003,-0.000816092,-0.00027080359999999995,8.543,0,0
-0.004490854000000001,-0.00033955640000000005,0.0010532568,0.0005978199999999999,0.00021429400000000007,8.544,0,0
-0.004005982020000001,-0.0006359572000000001,0.0037073028000000003,0.0017863019999999998,0.0009568912,8.545,0,0
-0.0024670760200000003,-0.0007244532000000001,0.0055711300000000005,0.0032481940000000003,0.0012801956000000002,8.546,0,0
-0.0006274800199999998,-0.000445922,0.006603236000000001,0.003936584,0.0009355494000000001,8.547,0,0
0.0015337799800000003,-0.0001773660000000001,0.006402438000000001,0.003237719,0.0001510274000000001,8.548,0,0
0.00327668198,0.000535516,0.00596483,0.0025857418,-0.00040517060000000004,8.549,0,0
0.00399272,0.002031206,0.005211768,0.002077581,-0.0004026826,8.55,0,0
0.004555396,0.0038282920000000005,0.0036728342,0.00041197900000000003,-0.0005191519999999999,8.551,0,0
0.004947642,0.005324832,0.0015010761999999997,-0.001338023,-0.0005417314,8.552,0,0
0.004059887999999999,0.006000104,-0.0005204797999999997,-0.001967862,0.00017267260000000003,8.553,0,0
0.0027904680000000004,0.00566748,-0.0024351538,-0.0028365908000000002,0.00042312400000000004,8.554,0,0
0.001467492,0.00441878,-0.0043164198,-0.004046636,0.0001057412,8.555,0,0
-0.0003246500000000001,0.002551008,-0.005206517999999999,-0.0038646839999999997,0.0002397132,8.556,0,0
-0.001977682,-2.027600000000006e-05,-0.004836943999999999,-0.00335351,3.904679999999994e-05,8.557,0,0
-0.00315045,-0.002630192,-0.0040276900000000004,-0.003208734,-0.0006292692000000001,8.558,0,0
-0.003599268,-0.00391731,-0.0031872820000000005,-0.0018720419999999995,-0.0010677586000000002,8.559,0,0
-0.003500496,-0.0038959060000000006,-0.0018972995999999998,-9.739999999999944e-06,-0.001095992,8.56,0,0
-0.00337244,-0.0034251458000000004,-0.0008743156000000001,0.0010043500000000002,-0.0010392894,8.561,0,0
-0.00321469,-0.0031630438,-8.352360000000005e-05,0.0017222600000000002,-0.0008792940000000001,8.562,0,0
-0.0023754351999999996,-0.0022510378000000003,0.0011026964,0.002744466,-0.0005442060000000001,8.563,0,0
-0.0009180791999999998,-0.0005225577999999997,0.0014066996000000002,0.002888036,-0.0003139156,8.564,0,0
0.00036823880000000017,0.0004563862000000002,0.0007976731999999999,0.0021416676,-0.0002382396,8.565,0,0
0.0016840288,0.0007302820000000002,0.0006248562000000001,0.0021225596,-0.0003575612,8.566,0,0
0.0025227868000000002,0.0011158634,0.00046972820000000005,0.0022280216,-0.0002563278600000001,8.567,0,0
0.0018764839999999999,0.0010015374000000002,-0.0002653216,0.0012608816000000001,-0.00027764106000000005,8.568,0,0
0.0004779919999999999,-0.0003294146,-0.00033823640000000003,0.00012621759999999996,-0.00034973546,8.569,0,0
-0.000432187,-0.0013355646,-4.9175600000000004e-05,-0.0004967500000000001,4.697153999999994e-05,8.57,0,0
-0.0009528468000000001,-0.0013730646,-0.0006842765999999999,-0.001542996,0.0007301795400000001,8.571,0,0
-0.0009007868000000003,-0.0006335879999999999,-0.0012606906,-0.0026786080000000003,0.0011464228,8.572,0,0
0.00014307919999999996,0.000738792,-0.0010271562,-0.0027213840000000003,0.000997768,8.573,0,0
0.0007569914,0.002033422,-0.00084687614,-0.0023700702000000002,0.001230117,8.574,0,0
0.00044397840000000007,0.0028865680000000004,-0.0008808533399999999,-0.0021877202000000003,0.0011935130000000002,8.575,0,0
-0.00010044979999999996,0.0027082854,-8.360734000000002e-05,-0.0015065210000000002,0.0004939588,8.576,0,0
-0.0010312258,0.0019308674,0.00083067266,-0.00030226099999999996,0.00047472880000000005,8.577,0,0
-0.0019183198,0.0005968174,0.00100432606,0.0007518090000000001,0.0009698888,8.578,0,0
-0.0014678199999999999,-0.0006514966,0.0011932496000000002,0.0020741232,0.0010526136000000002,8.579,0,0
0.000318268,-0.0011282872,0.0014772234000000003,0.0036109792000000003,0.0007699434000000001,8.58,0,0
0.002046734,-0.0010080724,0.0012754212000000002,0.0039159880000000005,0.0007433226000000001,8.581,0,0
0.0031164,-0.0006154682000000002,0.0006668032000000001,0.003466854,0.0005018226000000001,8.582,0,0
0.0037257900000000005,-5.645460000000002e-05,0.0006534971999999999,0.003155624,-2.132539999999999e-05,8.583,0,0
0.0032169886000000003,0.0001717514,0.0010856951999999999,0.0017310499999999998,-0.0004140932,8.584,0,0
0.0017142637999999998,-0.0004937880000000001,0.0012253778,-0.0004281599999999999,-0.000806003,8.585,0,0
0.0005178264,-0.0009589322000000001,0.00139791,-0.0012114559999999999,-0.0012284680000000001,8.586,0,0
-0.00039758960000000005,-0.0017488504,0.002094336,-0.0017478720000000001,-0.0017976440000000002,8.587,0,0
-0.0010400476,-0.0026684440000000003,0.002090034,-0.003489862,-0.001848486,8.588,0,0
-0.0013450122,-0.00300482,0.0011554440000000003,-0.004242134,-0.0009231440000000001,8.589,0,0
-0.0011632048,-0.0032127500000000003,0.0004246079999999998,-0.0033521136,0.0005558080000000001,8.59,0,0
0.00010841660000000006,-0.0035937680000000002,-0.002063876,-0.0031855576000000005,0.0013977840000000002,8.591,0,0
0.0018273246000000002,-0.0034418340000000004,-0.0055813220000000005,-0.0031390376000000005,0.0010731540000000002,8.592,0,0
0.0028115106,-0.0023879546000000005,-0.006635972,-0.0014603096,0.000334352,8.593,0,0
0.003277079294,-0.0018610448000000001,-0.0061543938000000005,-0.0001653636,-0.0010113880000000002,8.594,0,0
0.002927496694,-0.0012155492,-0.0052979778,-0.000168313,-0.002876994,8.595,0,0
0.0010795786939999997,5.713279999999994e-05,-0.0026238258,0.0003629410000000001,-0.0034034306000000005,8.596,0,0
-0.00047831530600000007,0.0013277728,0.0005998982000000003,0.001302251,-0.0017122525999999998,8.597,0,0
-0.0009509075060000001,0.0020894074,0.0017134582000000002,0.0014145110000000002,0.00029705339999999995,8.598,0,0
-0.000843412,0.0028051435999999997,0.0016213316000000001,0.001369695,0.0016403174,8.599,0,0
-0.0006460754000000001,0.0034664440000000004,0.0016081636000000001,0.0019941940000000003,0.0029598394,8.6,0,0
-0.0005853514,0.0027486778,0.0011573678000000001,0.001123374,0.0035553700000000004,8.601,0,0
-0.0008183153999999999,0.0017175717999999998,0.0007260296,0.00021407999999999996,0.0026613946000000003,8.602,0,0
-0.0012176212,0.0017518498,0.0015768776000000002,0.002515962,0.0014593946000000003,8.603,0,0
-0.0008487553999999999,0.0027104318000000004,0.003358526,0.005409356000000001,0.0005738226000000001,8.604,0,0
-1.883599999999994e-05,0.004006993800000001,0.005505262,0.008014032,-0.0004236494,8.605,0,0
0.0009993420000000003,0.0059448899999999995,0.0084877258,0.011727552,-0.0009645304,8.606,0,0
0.0018807640000000003,0.0075801079999999995,0.01071044,0.013355544,-0.0008644107999999999,8.607,0,0
0.0022327516,0.007636888,0.010578928000000001,0.010709677,-0.0006415063400000001,8.608,0,0
0.0022949036000000003,0.006622726000000001,0.008690304000000001,0.006293157,-0.00045358434,8.609,0,0
0.0013282776,0.0037632920000000005,0.00541464,8.747699999999987e-05,9.598206000000002e-05,8.61,0,0
-0.0008395944000000001,-0.0002821379999999999,0.0006959640000000007,-0.007257643000000001,0.0006022950600000001,8.611,0,0
-0.0018992724000000002,-0.003367546,-0.0059062360000000005,-0.012982347000000002,0.00112861686,8.612,0,0
-0.002360452,-0.006001172,-0.012064060000000001,-0.016921200000000004,0.0018692104000000002,8.613,0,0
-0.003983114,-0.008618152,-0.01489596,-0.018917160000000002,0.0020415174,8.614,0,0
-0.004435148,-0.00923322,-0.01582247,-0.018176540000000005,0.001667081,8.615,0,0
-0.003475098,-0.007897112,-0.015428592,-0.014924540000000002,0.000636013,8.616,0,0
-0.0030383980000000003,-0.006527216000000001,-0.011803752,-0.010324724399999999,-0.000732835,8.617,0,0
-0.00226366,-0.004704867799999999,-0.006789631000000001,-0.004430004400000001,-0.0019877510000000003,8.618,0,0
-0.0004879019999999999,-0.0019222678000000001,-0.003168541,0.0023512956000000004,-0.002621126,8.619,0,0
0.0016324440000000003,0.0008799982,5.3983000000000286e-05,0.008092735600000001,-0.002502608,8.62,0,0
0.003874044,0.0033844722000000004,0.0038198410000000005,0.0129820556,-0.001951771,8.621,0,0
0.005775458000000001,0.0058476522,0.008338061,0.01743466,-0.0010497009999999999,8.622,0,0
0.006779854,0.007878034,0.01221716,0.01856818,-8.017100000000003e-05,8.623,0,0
0.006315124,0.008492752000000001,0.01418369,0.016385528,0.001041311,8.624,0,0
0.004453342,0.007335263200000001,0.014012668,0.013387726,0.001876187,8.625,0,0
0.0014112159999999996,0.0047983512,0.0114097972,0.008438538,0.002367672,8.626,0,0
-0.00260087,0.0009892372,0.006968477200000001,0.0013297179999999997,0.002175195,8.627,0,0
-0.006698844,-0.0040831828,0.0020177712000000007,-0.005070622,0.001136635,8.628,0,0
-0.009640532,-0.0090028608,-0.0019432008,-0.010008810000000002,-0.00017855099999999988,8.629,0,0
-0.009278788800000002,-0.011069384,-0.0055611288000000005,-0.014187828000000001,-0.0013015750000000001,8.63,0,0
-0.006095992800000001,-0.010523318,-0.009168958000000001,-0.016540100000000002,-0.002112351,8.631,0,0
-0.0032910988000000004,-0.009236026000000001,-0.011657618000000002,-0.01630618,-0.002965184,8.632,0,0
-0.0009363348000000001,-0.006681196,-0.012615732000000001,-0.014368964000000001,-0.003310322,8.633,0,0
0.0013478212,-0.0033257728000000005,-0.012110338000000002,-0.010682545,-0.0034493139999999998,8.634,0,0
0.00119329,-0.0011721168000000002,-0.009058627999999999,-0.005103125000000001,-0.003627712,8.635,0,0
-0.00027904599999999997,-0.0002626188,-0.003723015999999999,0.0007939149999999999,-0.0034301180000000002,8.636,0,0
-0.00017304400000000002,0.0006695232000000001,0.0013342960000000002,0.0059835750000000005,-0.0026914666,8.637,0,0
0.001221026,0.0019101552000000003,0.005345514000000001,0.010504119000000001,-0.0014687546,8.638,0,0
0.0030357780000000003,0.0033989480000000006,0.008209452,0.01350908,-0.0001945546000000001,8.639,0,0
0.004237238000000001,0.004655064,0.009337208000000001,0.01378482,0.0007975274,8.64,0,0
0.004397108000000001,0.004884066000000001,0.009298232000000002,0.012213326000000002,0.0017621414000000002,8.641,0,0
0.004235902000000001,0.004584972,0.008819928000000001,0.0093301176,0.002986946,8.642,0,0
0.003540928,0.004021842,0.007049562600000001,0.004863543600000001,0.0036273319999999996,8.643,0,0
0.00177515,0.002964932,0.0038573606,-0.00016409240000000015,0.003620166,8.644,0,0
-0.00010062400000000011,0.002100214,0.00033173260000000037,-0.0046377724,0.003170205,8.645,0,0
-0.0014918140000000002,0.0018873960000000004,-0.0028898314,-0.0082692984,0.0020731369999999996,8.646,0,0
-0.00330043,0.0014896466,-0.0057018394,-0.01126103,0.0005717150000000002,8.647,0,0
-0.005425498,0.00036820259999999997,-0.007551808,-0.012621836,-0.0008309489999999999,8.648,0,0
-0.0065353880000000005,-0.0009424354000000001,-0.007663754,-0.011208197999999999,-0.001205584,8.649,0,0
-0.006756898000000001,-0.0027148054,-0.00662208,-0.008050232,-0.0006711929999999998,8.65,0,0
-0.00581269904,-0.0040941834,-0.005229094,-0.004030126,-0.00019585199999999994,8.651,0,0
-0.0028600430399999995,-0.0035971600000000003,-0.0033957780000000003,0.001412074,0.00018686420000000003,8.652,0,0
0.0004702689600000001,-0.0025054860000000003,-0.001015938,0.006497994,0.0005512500000000001,8.653,0,0
0.00298318896,-0.0013361488000000002,0.001062192,0.009241572,0.00030320840000000004,8.654,0,0
0.00510288096,0.0007304852,0.003220286,0.010829246,-0.00013478240000000004,8.655,0,0
0.006218036000000001,0.0027037672000000002,0.005483802000000001,0.011548660000000002,0.0006114206,8.656,0,0
0.005638354000000001,0.0034748332,0.006675702000000001,0.010297576000000001,0.0018295744000000002,8.657,0,0
0.004612546,0.004123091200000001,0.007607356000000001,0.008024246,0.0022924866,8.658,0,0
0.0035353372000000004,0.004865796,0.007818156,0.004921882,0.0023893458000000005,8.659,0,0
0.0027937092,0.004246608800000001,0.006499784000000001,0.0005850160000000003,0.0023691772,8.66,0,0
0.0029271912,0.0031077044,0.004316438,-0.003689644,0.0013520646,8.661,0,0
0.0025864352000000003,0.0020071972,0.001955278,-0.006965800000000001,-0.0003097074,8.662,0,0
0.0012196752,5.082520000000029e-05,-0.00030716200000000015,-0.00921505,-0.0008159090000000001,8.663,0,0
-0.00027348200000000024,-0.0021866768,-0.003750364,-0.010477566000000002,-0.0008436604000000001,8.664,0,0
-0.0017505000000000003,-0.0035123856,-0.0076770580000000005,-0.009977564000000001,-0.001228315,8.665,0,0
-0.003795634,-0.0039935332,-0.009442942000000001,-0.008143548,-0.0015253883999999998,8.666,0,0
-0.00488715,-0.004160159,-0.009232618000000001,-0.005831148,-0.0017254864000000002,8.667,0,0
-0.003615542,-0.0031340618,-0.00824469,-0.0026909720000000007,-0.0020249828,8.668,0,0
-0.0012006319999999999,-0.0008962378,-0.004949506,0.001550448,-0.002258752,8.669,0,0
0.000993318,0.0011237962,-0.0002364040000000004,0.0052327120000000005,-0.002092012,8.67,0,0
0.002782894,0.0023141222,0.002729802,0.007791696000000001,-0.0018430724,8.671,0,0
0.004197438000000001,0.0033729352000000006,0.004523352,0.010276456,-0.0015852144,8.672,0,0
0.004848482,0.004209788000000001,0.0054266060000000005,0.01117872,-0.001071229,8.673,0,0
0.004641928,0.0038762740000000003,0.005088852,0.010162814,-0.00010470299999999994,8.674,0,0
0.004043868000000001,0.003362246,0.004780608,0.008744074000000001,0.001106653,8.675,0,0
0.0028797374,0.0028522658000000004,0.004400864000000001,0.006554523,0.0023578334000000003,8.676,0,0
0.0011064973999999998,0.0014008858000000004,0.0029064320000000005,0.0027088190000000003,0.0031915914000000003,8.677,0,0
-0.0008833846,-0.00027622019999999994,0.0007595540000000004,-0.0012203289999999996,0.002787874,8.678,0,0
-0.0028577386,-0.0017614922,-0.0009850179999999998,-0.004405543,0.001713374,8.679,0,0
