bandpass 1,bandpass 2,bandpass 3,bandpass 4,bandpass 5,time,onset,mark
9.754039999999999e-05,0.0003318816,-0.0008005928000000001,-0.001234986,0.0008282064000000001,3.852,0,0
-0.00033618759999999993,0.0003725256,-0.0010283908000000002,-0.0022848980000000005,0.0011776064,3.853,0,0
-0.0004991322000000001,0.000218195,-0.0013122268000000002,-0.002936928,0.0015559804,3.854,0,0
-0.0004910822000000002,0.0016794204000000002,-0.0013838342,-0.0029563220000000004,0.001617402,3.855,0,0
-0.00044212920000000005,0.0027251614000000004,-0.0013495002,-0.0031708860000000004,0.0015600440000000002,3.856,0,0
-9.523420000000002e-05,0.0022274092,-0.0012341822,-0.0028251020000000003,0.0009706986,3.857,0,0
0.0006639758,0.0021344668000000005,-0.0007952942,-0.0018265546,0.00035347860000000005,3.858,0,0
0.0008818214,0.0026003474000000004,-0.0004887228,-0.0010949264,-0.00020737179999999998,3.859,0,0
0.0011331554,0.0015346654000000003,-0.0001242466,-0.0005969522000000001,-0.0005646198,3.86,0,0
0.002013318,0.0008573134000000001,0.00026029500000000007,0.0004374798000000001,-0.0009250206,3.861,0,0
0.002672677,0.0017700856,0.0006532738000000001,0.0017673438000000003,-0.0012648192,3.862,0,0
0.002598571,0.0026270000000000004,0.0011189138,0.0025279624,-0.0009810019400000002,3.863,0,0
0.0026914544000000004,0.003944144,0.0018027364000000002,0.0033066302000000006,-0.0008155055400000001,3.864,0,0
0.0026022764000000003,0.004946092000000001,0.0022015304000000003,0.004181468000000001,-0.0010035435400000002,3.865,0,0
0.0013538924,0.0042900684,0.0024286328,0.0036484546,-0.0006821905400000001,3.866,0,0
0.0003491324,0.0029488324000000003,0.0026722240000000004,0.0024524902,-0.00023811834,3.867,0,0
0.0004452444,0.0013841024,0.0020537996,0.0017749022000000001,-0.0003989056,3.868,0,0
0.00035389,-0.0016080516,0.0010903416,0.0004612262,6.082400000000001e-06,3.869,0,0
-0.0008020340000000001,-0.0046080136,0.00042933940000000007,-0.0008110778000000002,0.0009456304000000001,3.87,0,0
-0.001296344,-0.006049008000000001,-0.0004284406,-0.0008679638000000001,0.0009156474,3.871,0,0
-0.001079929,-0.005971934000000001,-0.0017535666,-0.0010273414000000001,0.0011324182,3.872,0,0
-0.001375546,-0.004998834000000001,-0.0030324382,-0.0011306456,0.0015859602,3.873,0,0
-0.001066172,-0.004036102000000001,-0.0038490802000000005,-0.00038472560000000003,0.0005302722,3.874,0,0
0.00031216600000000006,-0.0028841220000000002,-0.004424054,0.00044005640000000006,-0.0008963778,3.875,0,0
0.0015682580000000003,-0.00200707,-0.00418003,0.0011148358,-0.001367157,3.876,0,0
0.0022664150000000004,-0.0020003140000000004,-0.0029035540000000005,0.0022345198,-0.0019256120000000002,3.877,0,0
0.002953694,-0.0023962342,-0.0014425940000000002,0.0033302600000000007,-0.0028743940000000006,3.878,0,0
0.0029785500000000004,-0.0018696374000000003,6.032599999999998e-05,0.003456562,-0.0025085700000000003,3.879,0,0
0.0025509400000000002,-0.00044930540000000024,0.0013794760000000001,0.0028942914,-0.0018949144,3.88,0,0
0.0021950148,0.0008294006000000001,0.002287822,0.0021941254,-0.0020434004,3.881,0,0
0.0016077108,0.0013736168,0.002325512,0.0011112634,-0.0016730048,3.882,0,0
0.0009754439999999998,0.0011619129999999999,0.0020371892000000005,-0.0006689806,-0.00101685688,3.883,0,0
0.00037677,0.00019934619999999994,0.0022309052,-0.0018326206000000003,-0.00044240888000000004,3.884,0,0
-0.000180316,-0.0013518158,0.0025213652000000003,-0.0025039880000000004,3.401951999999997e-05,3.885,0,0
-0.0008712568,-0.0020198022,0.0027301452000000003,-0.003767996,0.0008492995200000001,3.886,0,0
-0.0016030828,-0.0018486344,0.0027815812000000005,-0.004764580000000001,0.00152693992,3.887,0,0
-0.002229202,-0.0011483924,0.00282467,-0.004967640000000001,0.0017928020000000002,3.888,0,0
-0.00281526,0.0003556255999999999,0.0020325056,-0.005092642,0.002004012,3.889,0,0
-0.003368294,0.0020265976,0.0009179192000000001,-0.005196672,0.0019843200000000004,3.89,0,0
-0.00335213,0.003574944,0.0003275732,-0.0039510324,0.0016754909999999999,3.891,0,0
-0.0026610474000000003,0.004660724,-0.00046299480000000005,-0.0022656944,0.0010231583999999998,3.892,0,0
-0.0021141982,0.005119918000000001,-0.0012743268000000002,-0.001165931,0.0005621874,3.893,0,0
-0.0012544420000000001,0.004903622000000001,-0.0019756344,0.000247039,-3.6456399999999965e-05,3.894,0,0
-0.00010077599999999996,0.0037549600000000008,-0.0028430340000000004,0.001762357,-0.00035044380000000003,3.895,0,0
0.00024073500000000003,0.001726998,-0.003411948,0.0022216474,-0.00020248620000000005,3.896,0,0
-2.9405599999999995e-05,-0.00015067199999999992,-0.0031631944000000004,0.0021577954,-0.00039712160000000005,3.897,0,0
-0.00036515280000000005,-0.0013870000000000002,-0.002258333,0.002567654,-0.0006721526000000001,3.898,0,0
-0.0007664270000000001,-0.0025864980000000004,-0.000589283,0.002563274,-0.000472532,3.899,0,0
-0.0012602350000000002,-0.0037133980000000006,0.001336917,0.0020916880000000004,-2.4542599999999998e-05,3.9,0,0
-0.0012641938,-0.004311736,0.002243979,0.0016302660000000002,0.00015953280000000005,3.901,0,0
-0.0010861458,-0.0047937940000000005,0.0023242515999999996,0.0010810254000000001,0.0010441968000000001,3.902,0,0
-0.0011761458000000002,-0.005508086000000001,0.0019581282,2.0553400000000114e-05,0.0022296048000000003,3.903,0,0
-0.0014909178,-0.004544666,0.0007931081999999999,-0.0012137906,0.0024911460000000005,3.904,0,0
-0.0016592097999999999,-0.0014191459999999998,-0.0007206998,-0.0016469606,0.0022939500000000003,3.905,0,0
-0.0019039939999999998,0.0017622060000000008,-0.0021779878000000004,-0.0019964606,0.0022755220000000003,3.906,0,0
-0.0022045520000000002,0.004846118,-0.0029223580000000003,-0.0024286200000000003,0.0017127082000000001,3.907,0,0
-0.001206486,0.0073879340000000005,-0.0029382500000000003,-0.0015693880000000001,0.00045435219999999995,3.908,0,0
-9.222000000000028e-06,0.006941560000000001,-0.0024284952,-0.00017741800000000004,-0.00025993380000000006,3.909,0,0
0.0008415960000000001,0.004096438000000001,-0.0009984932,0.000451276,-0.0008550618000000001,3.91,0,0
0.001860394,0.0013161319999999998,0.0007622808,0.001497,-0.0018711618000000001,3.911,0,0
0.0023710434000000003,-0.0005131120000000001,0.0022051388,0.002826434,-0.0023717060000000003,3.912,0,0
0.0022031394,-0.001019216,0.0029073568,0.0029086019999999997,-0.002173298,3.913,0,0
0.0022376434000000002,-0.00029029999999999995,0.0028027658000000003,0.0023332644,-0.002151468,3.914,0,0
0.0023186154,0.0008415302,0.0019552578,0.00206891,-0.001982714,3.915,0,0
0.0020797034,0.0014309698,0.0014117278,0.0013785008,-0.0010594920000000004,3.916,0,0
0.0023383960000000004,0.0008054518000000002,0.0014650178000000002,0.00019805080000000002,-5.0463999999999956e-05,3.917,0,0
0.0021880980000000003,-0.00047716220000000006,0.0011119806,-0.0005680512,0.000576338,3.918,0,0
0.001323866,-0.0011076002,0.0010457998,-0.0011874296,0.0012527220000000002,3.919,0,0
0.0004568660000000001,-0.0014097644000000001,0.0013843118,-0.0022859192,0.001963928,3.92,0,0
6.324399999999999e-05,-0.0015614820000000003,0.0009760251999999999,-0.003073886,0.0020268800000000004,3.921,0,0
-4.662000000000004e-06,-0.00113009624,0.00022326359999999998,-0.003090104,0.0015971326000000002,3.922,0,0
-0.00030075200000000005,-0.0004998598400000001,0.0002452086,-0.0033896300000000002,0.0014121746,3.923,0,0
-8.309599999999998e-05,-0.00034623024,0.0001973716,-0.0033051160000000003,0.0011445884,3.924,0,0
0.00039235820000000005,-0.0009687342400000001,0.00010441560000000002,-0.002240042,0.00028962040000000006,3.925,0,0
9.554819999999995e-05,-0.00217092624,0.00036320380000000004,-0.0010655460000000003,-0.0004991635999999999,3.926,0,0
-0.0004204852000000001,-0.003332964,-0.0011999626000000004,-1.4374000000000049e-05,-0.0010754141999999999,3.927,0,0
-0.00019067520000000005,-0.0036184458,-0.0037389624000000003,0.001208794,-0.0018015402,3.928,0,0
-5.690140000000002e-05,-0.0032344874,-0.0043766944000000006,0.0020867940000000003,-0.002192884,3.929,0,0
-0.0002068826,-0.0017082194,-0.004137864400000001,0.002340426,-0.0019776194,3.93,0,0
1.2726000000000257e-06,0.0006270946,-0.003922316,0.002664632,-0.0017288313999999998,3.931,0,0
2.0587000000000025e-05,0.0023033866000000004,-0.001917898,0.0026565340000000003,-0.0011754682,3.932,0,0
-0.00014243159999999998,0.002875556,0.000838018,0.0021882372,-0.0002565402000000001,3.933,0,0
-0.00019121864000000002,0.0028342040000000003,0.0019204439999999999,0.0015352144000000002,0.000116654,3.934,0,0
-0.00010629244000000001,0.0024041520000000005,0.0015812848,0.0008738004,0.00027521348000000004,3.935,0,0
-0.00024069764,0.00112078,0.0007384007999999998,-0.00015760959999999995,0.00092454148,3.936,0,0
-0.0008351666400000001,-0.0006412220000000001,9.191880000000003e-05,-0.0013104356,0.0013003042800000001,3.937,0,0
-0.00151582004,-0.0029226420000000005,-0.00037310459999999996,-0.0017600148000000001,0.0010746560800000001,3.938,0,0
-0.0018941968000000002,-0.004088960000000001,-0.0009701106,-0.0019200980000000003,0.00107623168,3.939,0,0
-0.002322894,-0.002985642,-0.0011621706000000001,-0.0021071760000000005,0.0010440932,3.94,0,0
-0.0024368719999999996,-0.0009571380000000004,-0.000521378,-0.001511544,0.00037071520000000015,3.941,0,0
-0.0019414220000000004,0.0011892899999999997,-0.000213611,0.00016483999999999997,-0.0003011726,3.942,0,0
-0.0015710520000000003,0.003376604,2.8333800000000003e-05,0.001485938,-0.0005795544000000001,3.943,0,0
-0.0011337876,0.004836876,0.0008632818000000001,0.002775606,-0.0014013702,3.944,0,0
-0.0006014162000000002,0.004389276,0.0012131750000000001,0.00434871,-0.0023882358,3.945,0,0
7.551799999999957e-06,0.0028391918,0.0014029624000000001,0.004812028,-0.0024341198000000005,3.946,0,0
0.0006092818,0.0013407258,0.0019300954,0.004070756,-0.0023748946,3.947,0,0
0.001060566,0.0003054698000000001,0.0021861700000000003,0.0030393486000000005,-0.0023760762,3.948,0,0
0.0011005758000000002,-0.0008273722,0.001580054426,0.0018166586000000003,-0.0012233002000000001,3.949,0,0
0.0005283524000000001,-0.0019276982000000001,0.001168386026,0.00012204860000000024,0.0003932158000000001,3.95,0,0
-0.00018101559999999996,-0.0018926946,0.000749791426,-0.0012780874,0.0010228998000000001,3.951,0,0
-0.0009915096,-0.0013161726,-0.0007502185739999999,-0.0020951874000000002,0.0013950384,3.952,0,0
-0.0016489878,-0.0016777566,-0.002125452574,-0.0030131220000000005,0.002018176,3.953,0,0
-0.0017498697400000001,-0.0026916886,-0.0025361850000000003,-0.0037718480000000004,0.0021180120000000003,3.954,0,0
-0.00129881054,-0.0032309706,-0.0027462406000000003,-0.0038954920000000004,0.0017895340000000002,3.955,0,0
-0.00103498454,-0.00354746,-0.0031951960000000004,-0.004039572,0.0015910620000000003,3.956,0,0
-0.0011575325400000002,-0.0035954998,-0.002651634,-0.0038682820000000002,0.0014152110000000002,3.957,0,0
-0.0007511351400000001,-0.0026946622,-0.0010436159999999998,-0.002616948,0.0009033295999999999,3.958,0,0
8.35826e-05,-0.0006498982000000001,0.000424096,-0.001148824,0.0003143928,3.959,0,0
0.0008953414000000002,0.0015337318,0.0015840840000000001,0.00018159600000000012,0.00012679819999999997,3.96,0,0
0.0019213934000000001,0.0033695518000000004,0.0027935780000000006,0.001833416,3.13016e-05,3.961,0,0
0.0034657714000000004,0.004973459600000001,0.0035693540000000003,0.0028855900000000004,-0.0002137674,3.962,0,0
0.00429019,0.005843546000000001,0.0034423340000000005,0.0029435680000000006,-6.790400000000009e-06,3.963,0,0
0.003774036,0.005652304,0.0028165740000000005,0.002945884,1.98838e-05,3.964,0,0
0.003307392,0.004575984,0.002076541,0.002709108,-0.0005242316,3.965,0,0
0.0027464720000000002,0.003302038,0.0014013494000000002,0.0014003940000000001,-0.0005917044000000001,3.966,0,0
0.0016543962,0.00166973,0.0010198274,-9.72800000000008e-06,-0.0005518158,3.967,0,0
0.0006528502000000001,0.0003961940000000001,0.0006137788000000001,-0.0005224376000000001,-0.0008415436,3.968,0,0
-0.00025041379999999995,3.612368000000001e-05,-3.0229200000000012e-05,-0.0014856636000000001,-0.0006171776,3.969,0,0
-0.0014952678,-0.00025936372,-0.0003829742,-0.0025907276000000003,0.00032559840000000005,3.97,0,0
-0.0024523758,-0.0006779827200000001,-0.0007785706000000001,-0.0025049616,0.0008925018,3.971,0,0
-0.002735182,-0.00102400872,-0.0012682486000000002,-0.0019494250000000003,0.0010578386000000002,3.972,0,0
-0.00297378,-0.0015702227200000002,-0.001723304,-0.0019212894000000002,0.0012414581800000001,3.973,0,0
-0.002646198,-0.0030020664000000004,-0.00180664,-0.0016734894000000001,0.0009366131800000002,3.974,0,0
-0.001530524,-0.0043025270000000004,-0.0017443434000000001,-0.00044182140000000004,0.00010935718000000007,3.975,0,0
-0.0006535840000000001,-0.0046418019999999996,-0.0019020514000000002,0.0005586626000000001,-0.00077283282,3.976,0,0
-0.00019142679999999997,-0.003631862,-0.0015729112000000003,0.0009823820000000002,-0.00130905422,3.977,0,0
0.0005018672000000001,-0.0012467439999999997,-0.0011626432,0.0017553400000000002,-0.0018687956000000001,3.978,0,0
0.0012303072,0.0008389919999999998,-0.0009596364000000002,0.002626844,-0.002176864,3.979,0,0
0.0014391972000000002,0.002445588,-0.001052619,0.0027132280000000003,-0.0021319620000000003,3.98,0,0
0.0015307112000000002,0.0033686280000000002,-0.001001885,0.002862696,-0.002286508,3.981,0,0
0.0016868500000000002,0.002061672,-0.0007411805999999999,0.002970356,-0.0019743386,3.982,0,0
0.001648314,-0.0002294920000000002,-0.0005149486,0.0022068924,-0.0010510305999999999,3.983,0,0
0.001541896,-0.0011463060000000001,-0.00034065239999999986,0.0015208662000000001,-0.000397524,3.984,0,0
0.0012292746,-0.0015115078,3.831140000000005e-05,0.0009219122,3.536079999999999e-05,3.985,0,0
0.0005005126,-0.0020753862000000003,0.0016538014,-0.0004188038,0.0006658128,3.986,0,0
-0.00023729539999999997,-0.0017441282,0.0031352448,-0.0017870038,0.00083329014,3.987,0,0
-0.0007407534000000001,-0.0010760362,0.0036752408000000005,-0.0020363362,0.0006292253399999999,3.988,0,0
-0.0015164454000000003,-0.0007725595999999999,0.0036225822000000006,-0.00227626,0.00066150874,3.989,0,0
-0.0017910670000000004,-0.0005083837999999999,0.0026717264000000003,-0.002593826,0.0006552491400000001,3.99,0,0
-0.0011475130000000002,-0.00022422359999999992,0.0011169984000000003,-0.001571948,0.00078101314,3.991,0,0
-0.00033566100000000023,0.0004466324000000001,-0.0006040851999999999,-0.00014108599999999996,0.0011846884,3.992,0,0
0.0006110989999999999,0.0009511344,-0.0019232892,0.0005584100000000001,0.0013539012,3.993,0,0
0.001579445,0.000974002,-0.0018827202000000001,0.001450066,0.0012472234000000001,3.994,0,0
0.0023786000000000002,0.00074902878,-0.00038762820000000006,0.0025629980000000004,0.0010603894,3.995,0,0
0.00264072,0.00010289898000000002,0.0006321278000000001,0.00248622,0.0008450122000000001,3.996,0,0
0.0025049568,-2.097742000000007e-05,0.0012897074,0.0018780568000000002,0.0005116988,3.997,0,0
0.0020886688,0.00085299458,0.0023254314000000003,0.0020042228000000002,0.00013608740000000001,3.998,0,0
0.0014997788,0.00140255238,0.0029386680000000006,0.0015458192000000002,0.00040256720000000006,3.999,0,0
0.0005354108000000001,0.0015754416000000001,0.002590572,-4.211679999999987e-05,0.000801206,4.0,0,0
-0.00031375119999999993,0.0023519876,0.0005091520000000001,-0.0011450488,0.0009332998,4.001,0,0
-0.0006122706,0.0024246100000000002,-0.002188114,-0.0020081316,0.0014660692,4.002,0,0
-0.0013938506,0.0007122720000000001,-0.003913832000000001,-0.0034762116,0.0019646206000000005,4.003,0,0
-0.0021167386,-0.001485772,-0.0050222439999999995,-0.00431122,0.0020019226,4.004,0,0
-0.0018595936000000003,-0.00274507,-0.0052068232,-0.004061902,0.0021208146,4.005,0,0
-0.0012550436000000002,-0.003449356,-0.0038139892000000003,-0.0038828460000000006,0.0022123280000000004,4.006,0,0
-0.0008395729999999999,-0.003915762,-0.0021225892,-0.0033126320000000002,0.0016764492000000003,4.007,0,0
0.00015817499999999998,-0.0031598002000000004,-0.0009948004,-0.002066552,0.0011061156000000002,4.008,0,0
0.0011853290000000002,-0.0014402088000000002,-0.0007921003999999999,-0.0006151779999999999,0.0005574604000000002,4.009,0,0
0.0016637980000000002,-0.00013844480000000005,-0.0011698172,0.0007353040000000001,-0.0002461336,4.01,0,0
0.0017951900000000001,0.0004732152,-0.0003474311999999999,0.0022432800000000003,-0.0009612336,4.011,0,0
0.0016351374000000002,0.000786611,0.0014201247999999999,0.00385701,-0.0015372568000000001,4.012,0,0
0.0013922718,0.0006202734000000001,0.002433414,0.004023700000000001,-0.0017522672000000001,4.013,0,0
0.0013407578,0.000741266,0.0029664619999999996,0.003531266,-0.0017845012000000003,4.014,0,0
0.0017194378000000001,0.001242838,0.0034005693999999997,0.003060768,-0.0015616294000000003,4.015,0,0
0.0016891458,0.0010953532000000001,0.0026697601999999994,0.00178125,-0.0008913274,4.016,0,0
0.0014994942000000002,0.0006200434000000002,0.0018348942,0.00019349199999999997,-0.00024258239999999998,4.017,0,0
0.0009468578,0.0005921844000000002,0.0016914142,-0.0006181420000000001,0.00021053020000000007,4.018,0,0
-0.0003314962,0.0005901564,0.0015467310000000004,-0.001642434,0.0005454940000000001,4.019,0,0
-0.0017539122,3.884380000000005e-05,0.0012382320000000001,-0.003193578,0.0006479382,4.02,0,0
-0.0028000402000000002,2.2797200000000033e-05,0.0006424732000000001,-0.00367099,0.0002377946,4.021,0,0
-0.0035699100000000004,0.0007302052,-0.00012678279999999993,-0.0036419659999999995,-0.00036342040000000007,4.022,0,0
-0.003918686,0.0012215540000000001,-0.0012417028000000002,-0.003761624,-0.0007041850000000002,4.023,0,0
-0.0034602440000000003,0.0012565459999999999,-0.0020972596,-0.0031210974,-0.0013845616,4.024,0,0
-0.0033796340000000003,0.0013643826000000001,-0.0023371480000000003,-0.0012653774,-0.0021960256,4.025,0,0
-0.0030978800000000008,0.0014746286000000002,-0.002003988,9.878660000000011e-05,-0.0026351460000000005,4.026,0,0
-0.0022554520000000002,0.0012420724,-0.0015958834000000001,0.0009317826000000001,-0.0031081120000000005,4.027,0,0
-0.0016172156000000002,0.0008950232,-0.0012317314000000002,0.0027197366,-0.0035429260000000005,4.028,0,0
-0.0014110536,0.00012744719999999995,-0.0004847998,0.00411937,-0.0034123400000000003,4.029,0,0
-0.0015845016,-0.00040589280000000004,-0.00010815552800000004,0.004058878,-0.002797722,4.03,0,0
-0.0016653656,-3.402940000000001e-05,0.000112098472,0.004026206,-0.0022130962,4.031,0,0
-0.0017241368,0.0003324348,0.00012843187200000002,0.004151602,-0.0016251462000000001,4.032,0,0
-0.00164063994,-0.00010724400000000005,0.00018839867200000002,0.0027305408,-0.0014018602,4.033,0,0
-0.00117016794,-0.0002754420000000001,0.0007017650720000001,0.0007885648000000001,-0.0010344322,4.034,0,0
-0.00037799294,0.00017387199999999988,0.0010448148,-0.0001763471999999999,-0.00037214020000000004,4.035,0,0
2.5675459999999992e-05,0.0006185819999999999,0.0013103088,-0.0012320892,0.000266396,4.036,0,0
0.00011797746,0.001416434,0.0016417688000000003,-0.0027167612,0.0012665340000000001,4.037,0,0
0.0002991542,0.002823572,0.0015916020000000003,-0.0033523140000000003,0.001957202,4.038,0,0
0.00010981379999999998,0.0037544500000000003,0.0008780904000000002,-0.0033867680000000005,0.0024509959999999996,4.039,0,0
-0.0005395472,0.0024410300000000003,0.0003979758,-0.00380671,0.002711112,4.04,0,0
-0.0005285478,0.000372926,-1.2815999999999994e-05,-0.003632418,0.002321544,4.041,0,0
0.0002590814,-0.0003969039999999999,-0.001004136,-0.0023230160000000002,0.0016909871999999998,4.042,0,0
0.0007748793999999999,-0.0006935279999999997,-0.00231502,-0.0008043060000000002,0.0014095112,4.043,0,0
0.0013323077999999999,-0.001760322,-0.0031746504000000004,0.0007462120000000001,0.0008314189999999999,4.044,0,0
0.0021788518,-0.002896866,-0.0028335038,0.00256143,-0.000366149,4.045,0,0
0.002559348,-0.0037476160000000005,-0.0017310620000000002,0.003931198,-0.0008753370000000001,4.046,0,0
0.002088028,-0.005268074,-0.0002358219999999999,0.004121746,-0.0008726606,4.047,0,0
0.001864208,-0.006643256,0.001326424,0.00385717,-0.0010261424000000002,4.048,0,0
0.0020439620000000003,-0.006005546600000001,0.0022343486,0.0035618840000000004,-0.0007299792000000001,4.049,0,0
0.00212786,-0.0034404526,0.0023208245999999997,0.0027543642,0.00013552279999999996,4.05,0,0
0.002395082,-0.0013847290000000001,0.0018150346000000003,0.001578958,0.0003266584,4.051,0,0
0.00239377,-0.0005482570000000001,0.0010179672000000001,0.0005414720000000002,0.0004124294,4.052,0,0
0.0016947540000000001,-0.00023173100000000005,0.0011241832,-0.0008318999999999999,0.0010513692,4.053,0,0
0.001032638,6.0771200000000005e-05,0.0015819506,-0.002460932,0.0011027222,4.054,0,0
0.00086269,0.0010272372,0.0009214846000000001,-0.0033226102,0.0009627222,4.055,0,0
0.00021453700000000002,0.0023963836000000004,-0.00020085540000000014,-0.003923862,0.0013990286,4.056,0,0
-0.000541221,0.0036678416,-0.0009615800000000001,-0.004120092,0.001587786,4.057,0,0
-0.0005758570000000001,0.004408365599999999,-0.0016764840000000002,-0.00318774084,0.000986266,4.058,0,0
-0.0006691398000000001,0.003973971999999999,-0.002495484,-0.0022214118400000005,0.0006838910000000001,4.059,0,0
-0.00087602768,0.002154452,-0.0024294340000000003,-0.0017295328400000003,0.0003859322000000001,4.06,0,0
-0.00064410428,-0.0004202340000000001,-0.0017257174,-0.00046508684,-0.0005124318,4.061,0,0
-0.00043963628000000005,-0.002578212,-0.0008835774000000001,0.0010442751600000001,-0.0011752398,4.062,0,0
-0.00065988028,-0.0035769020000000003,2.0874599999999924e-05,0.0014236540000000001,-0.0012843418,4.063,0,0
-0.00081597948,-0.0034821302,0.0009642926,0.0017882690000000003,-0.0013948796,4.064,0,0
-0.0008162520000000001,-0.0027261622,0.0015411246,0.002407024,-0.001371374,4.065,0,0
-0.0009183308,-0.0015568216,0.0013908980000000002,0.002100091,-0.000552674,4.066,0,0
-0.0005885758,-5.948759999999998e-05,0.0012989032000000002,0.0011830628,0.00023379,4.067,0,0
0.0002546602000000001,0.0012525344000000002,0.0007632545600000001,0.0005454908000000001,0.0007735980000000001,4.068,0,0
0.0010611362,0.0017420646,-0.00037749544,8.292480000000001e-05,0.0014576408000000001,4.069,0,0
0.0015314386000000002,0.001406756,-0.0011968354400000002,-0.0007549672,0.0023788000000000004,4.07,0,0
0.0016779538,0.0011083594,-0.0016263434400000001,-0.0016018922,0.0028025800000000007,4.071,0,0
0.0017187328,0.000794193,-0.00248536264,-0.0017081648000000001,0.002605208,4.072,0,0
0.0014330744,0.00019944180000000002,-0.00339796,-0.0013281950000000001,0.002754896,4.073,0,0
0.0011498484000000001,0.0004090418,-0.003541596,-0.0009480097999999997,0.0023739890000000004,4.074,0,0
0.0011645404,0.0012737504000000003,-0.003296722,-0.00013199179999999998,0.0010293370000000002,4.075,0,0
0.0013042476000000001,0.0017094744,-0.0025269579999999997,0.0011961062,2.7673000000000086e-05,4.076,0,0
0.0016719116,0.001768117,-0.0007854439999999997,0.002069483,-0.000425337,4.077,0,0
0.002242854,0.0020566322,0.0015389120000000001,0.0025890392,-0.0015903930000000003,4.078,0,0
0.0024072660000000004,0.0021306722,0.00355381,0.0031326640000000003,-0.002722698,4.079,0,0
0.002141768,0.0021746562,0.004673808000000001,0.0029883419999999997,-0.0027804620000000005,4.08,0,0
0.002199574,0.0034638822000000002,0.004889098000000001,0.0023455762399999997,-0.002730782,4.081,0,0
0.0019796680000000004,0.004638730000000001,0.004334784,0.0017681616400000003,-0.0029002060000000002,4.082,0,0
0.0011492994,0.004712694,0.0033636780000000006,0.0009718748400000001,-0.0021649686,4.083,0,0
0.00029651940000000005,0.004894194000000001,0.0030275700000000003,0.00021304804000000003,-0.0008427425999999998,4.084,0,0
-0.0004382245999999999,0.0042473146000000005,0.003188644,7.466083999999998e-05,1.291540000000009e-05,4.085,0,0
-0.0018462286000000003,0.0011546766000000003,0.003413772,-0.00040362940000000005,0.0009128394000000001,4.086,0,0
-0.0038610726000000003,-0.0022120913999999995,0.0030840712,-0.0014186428000000002,0.0017204154,4.087,0,0
-0.0052842340000000005,-0.0040998354,0.0009806071999999997,-0.0018051220000000002,0.002140764,4.088,0,0
-0.006334348,-0.0058786554,-0.0019023427999999998,-0.0020023152,0.002220166,4.089,0,0
-0.0072102120000000006,-0.0068650180000000005,-0.0035922887999999997,-0.002522048,0.002184128,4.09,0,0
-0.006936904,-0.005747994000000001,-0.0042419947000000005,-0.0022925020000000005,0.001775746,4.091,0,0
-0.0055335919999999995,-0.0036291421999999998,-0.004312339500000001,-0.001129878,0.001084444,4.092,0,0
-0.004171088,-0.0021078912,-0.0026828168999999996,-0.0004279564,0.00042134799999999994,4.093,0,0
-0.0025279718000000007,-0.0011276218,-0.00039431689999999995,4.306940000000002e-05,-0.0003786660000000001,4.094,0,0
-0.0005028038000000001,-0.00040105759999999995,0.0006001210999999999,0.0008737674,-0.001209512,4.095,0,0
0.0007701062,-0.00010192900000000003,0.000378937,0.0014453834,-0.00180138,4.096,0,0
0.0013706562000000001,-8.293900000000003e-05,9.070859999999999e-05,0.0016202654000000002,-0.0016913688,4.097,0,0
0.0021372762,-0.0002160609,0.000350914,0.0019684818,-0.0016871388000000002,4.098,0,0
0.0024500420000000004,-0.0002204335,0.0006132940000000001,0.002230394,-0.0015353288000000001,4.099,0,0
0.0017350368000000004,-0.0002719577,0.000890398,0.00149836,-0.0009362538,4.1,0,0
0.0012604454000000004,-0.00037063030000000004,0.00139213,0.000520438,-0.000417859,4.101,0,0
0.0011519318,-0.0006610321,0.0014097860000000001,-0.000580766,-7.427400000000004e-05,4.102,0,0
0.0005860054,-0.0015453592000000001,0.000605358,-0.0022035880000000002,0.00021542000000000002,4.103,0,0
0.00018863020000000003,-0.0025126820000000005,-0.00047367200000000007,-0.0036425380000000003,0.0008387100000000001,4.104,0,0
0.0005745934000000001,-0.002914652,-0.001385322,-0.0041927100000000005,0.0008835612000000001,4.105,0,0
0.0005759246,-0.002949824,-0.0016941988,-0.004135708,0.0005253644000000001,4.106,0,0
-6.282379999999994e-05,-0.0024847160000000005,-0.0017528348000000003,-0.0037503740000000003,0.00043337660000000006,4.107,0,0
-0.0003197294,-0.0006339299999999998,-0.0016579468000000003,-0.0022550440000000003,8.019260000000002e-05,4.108,0,0
-0.0004713634,0.0020672480000000007,-0.0011610928000000001,-0.0004860479999999998,-0.0005221454,4.109,0,0
-0.0007843666200000001,0.003962084,-0.0008480040000000001,0.0008460880000000002,-0.00062460158,4.11,0,0
-0.00090682382,0.004796796000000001,-0.0008396472000000001,0.002190746,-0.00066074158,4.111,0,0
-0.0007000638200000001,0.005184120000000001,-0.0005576092000000001,0.003198058,-0.00110020398,4.112,0,0
-0.00026189462000000005,0.004995320000000001,-0.0001708172,0.0031764780000000004,-0.0008458311799999999,4.113,0,0
0.00021479658,0.003869112,-0.0001392792,0.00262697,-0.00056237518,4.114,0,0
0.0005925638,0.0028526739999999995,0.000277954,0.002461828,-0.0008053292,4.115,0,0
0.0009502212000000001,0.0024993266000000003,0.00060791,0.0015852072,-0.0004842424,4.116,0,0
0.0012403344000000002,0.001742325,0.0007962484000000001,0.00018230920000000014,8.490560000000002e-05,4.117,0,0
0.0014748272,0.0007226229999999999,0.0011180864,-0.00042046879999999996,4.374199999999996e-06,4.118,0,0
0.0014632792000000001,-0.00011055700000000003,0.0005621024000000002,-0.0009576388000000001,9.234699999999999e-05,4.119,0,0
0.0010342344,-0.001027335,-0.0003316615999999999,-0.0019649448,0.000802731,4.12,0,0
0.0007890534,-0.0021608516,-0.0010628896,-0.002288758,0.0011242582,4.121,0,0
0.0007501281400000001,-0.0026352960000000005,-0.001677134,-0.0019183359999999999,0.0011657502,4.122,0,0
0.00044669153999999994,-0.002754916,-0.0019659288000000003,-0.001996668,0.0015648028,4.123,0,0
0.00014232973999999998,-0.003132168,-0.0010203548,-0.0017398258,0.0016125044000000002,4.124,0,0
0.00030672574,-0.0025853256,0.00043773119999999976,-0.00048457579999999984,0.0007988444000000002,4.125,0,0
0.00030616334,-0.0012182496,0.0009470829999999999,0.0005147282,0.00016487039999999993,4.126,0,0
-9.688060000000002e-05,-0.00029748560000000004,0.0010265130000000002,0.000903759,-0.00035662160000000004,4.127,0,0
-0.0001348744,0.0003573864,0.0005233297999999998,0.0019064009999999998,-0.0012113636000000002,4.128,0,0
0.0002460554,0.0015222244000000001,-0.0005521002000000002,0.0028549347999999998,-0.00177399,4.129,0,0
0.00011979819999999997,0.0024520180000000003,-0.0018320082,0.0025000207999999998,-0.0015438504000000002,4.13,0,0
-0.00016765840000000003,0.0023744800000000004,-0.0018391815999999998,0.0023243668000000003,-0.0011013386,4.131,0,0
0.0006839756000000001,0.00147219,-0.00040234160000000006,0.0028343780000000002,-0.0008110240000000001,4.132,0,0
0.001016068,0.000716536,0.0009861344000000002,0.0021434183720000005,-6.04588e-05,4.133,0,0
0.0005776048000000001,6.252600000000014e-05,0.0022000124,0.0009044803720000001,0.0007522732,4.134,0,0
0.0011557208000000001,-0.0010683320000000002,0.0026465850000000003,0.000728041172,0.0011178676,4.135,0,0
0.0015981842,-0.0025724520000000002,0.0019595306000000003,9.339317200000001e-05,0.0011390498,4.136,0,0
0.0008508062000000001,-0.0031584100000000004,0.00040185259999999995,-0.0015625488280000001,0.001248499,4.137,0,0
8.765219999999993e-05,-0.0016531500000000001,-0.0006507914000000001,-0.0026821092000000003,0.00107601736,4.138,0,0
-0.00020067860000000002,-7.459800000000059e-05,-0.0009668814,-0.0032184072000000005,0.00083922936,4.139,0,0
-0.0007686441199999999,0.000621012,-0.0007121259999999998,-0.0038943679999999996,0.00079649536,4.14,0,0
-0.0009646955199999999,0.002471236,0.000644426,-0.004013946,0.0003685433599999999,4.141,0,0
-0.00060708152,0.004549412,0.001806246,-0.0030510596000000003,0.00011388856,4.142,0,0
-0.00039972292000000004,0.0035897086,0.0025241660000000004,-0.0017819198000000001,-0.000190079,4.143,0,0
-0.00051831892,0.0010018266,0.0030116960000000003,-0.0005206738000000001,-0.000906607,4.144,0,0
-0.00033716620000000003,-0.0006348534,0.0028694060000000006,0.0008787342000000001,-0.001562767,4.145,0,0
0.0007563257999999999,-0.0019610214,0.0019519560000000004,0.0020446122,-0.0018703390000000004,4.146,0,0
0.0014567978,-0.0037139574,0.0008210980000000004,0.0024675938,-0.0019296910000000003,4.147,0,0
0.0020535832,-0.00439242,0.0003089800000000001,0.00262746,-0.0017999968000000002,4.148,0,0
0.0030044932,-0.0032142098000000003,-6.711799999999991e-05,0.00286756,-0.0015794828,4.149,0,0
0.0030470140000000002,-0.0020571398,-0.00010736519999999996,0.0021842464,-0.0010202104,4.15,0,0
0.002231312,-0.0014857030000000001,0.0005640248,0.0009609284000000001,-0.00015834839999999997,4.151,0,0
0.0015066832000000003,-0.000660985,0.0009944668000000001,0.00021656439999999996,3.749767999999999e-05,4.152,0,0
0.0005898832,-0.0002760684,0.0005815168000000001,-0.0008170956,0.00044613748,4.153,0,0
-0.0005329028000000001,-0.0008500026000000001,-0.0003700631999999999,-0.0020576116,0.00125347348,4.154,0,0
-0.0011483368,-0.0006594542,-0.00136056,-0.002407724,0.00143150708,4.155,0,0
-0.0020201768,0.0006954750000000001,-0.002468884,-0.002293176,0.00162966908,4.156,0,0
-0.0027106260000000003,0.001954667,-0.003102248,-0.0020518644,0.001990782,4.157,0,0
-0.002589296,0.0034042404000000004,-0.003050178,-0.0008619203999999999,0.0016298754000000002,4.158,0,0
-0.0021671166,0.0054544084,-0.0028902120000000005,0.0006188456,0.0006798554,4.159,0,0
-0.001609795,0.006400030000000001,-0.0024170800000000003,0.0015827016000000001,1.4273400000000005e-05,4.16,0,0
-0.0008453624,0.005036992800000001,-0.00205765,0.0027534076000000005,-0.0009260206,4.161,0,0
-0.0003244026,0.0024236227999999997,-0.0014618086,0.003749856,-0.0018489526,4.162,0,0
-0.00032004860000000006,-0.0007489852000000003,-0.0005841085999999999,0.003714762000000001,-0.0017906958000000002,4.163,0,0
-0.00023118800000000004,-0.0037998912000000006,-0.00015673359999999993,0.003084808,-0.0013936602000000002,4.164,0,0
-0.0001900076000000001,-0.005630495200000001,-1.5757199999999938e-05,0.002669308,-0.0012437662000000002,4.165,0,0
-0.00033358576000000007,-0.005729897400000001,9.414800000000012e-05,0.002141694,-0.0007401307999999999,4.166,0,0
-0.0003879419600000001,-0.004487384200000001,0.0005715946000000001,0.0011372766,0.0003928592,4.167,0,0
-0.00020800396000000002,-0.0028900382,0.0008620025999999999,0.00010930659999999997,0.0009444130000000001,4.168,0,0
-0.00038185596,-0.0013797338,0.0008015393999999999,-0.0010694174000000002,0.0014568374000000002,4.169,0,0
-0.00096724996,-0.0008626858,0.0008134681999999999,-0.0024961534000000002,0.0021907494000000002,4.17,0,0
-0.0013524484000000002,-0.0010741604000000001,0.0010608001999999998,-0.0039360053999999995,0.0022486306000000004,4.171,0,0
-0.001471028,-0.0006988336000000001,0.000522204,-0.0049035780000000005,0.0018966146,4.172,0,0
-0.0014149794000000002,-0.0005403188000000001,-0.00083647,-0.00526189,0.0015908824000000002,4.173,0,0
-0.0012695204,-0.0006983688000000002,-0.0011191718,-0.00498187,0.0011462772,4.174,0,0
-0.0008719964000000001,8.86312e-05,-0.0009778566000000002,-0.0037708496,0.0003210132,4.175,0,0
-0.00018143439999999999,0.0008290152000000001,-0.0008623198000000001,-0.0022384936000000005,-0.00012372940000000002,4.176,0,0
0.0006562056,0.00024158519999999996,-2.1339600000000198e-05,-0.0008397896000000003,-0.0008072294,4.177,0,0
0.001637483,-4.4643600000000014e-05,0.0014486564000000001,0.0005288243999999999,-0.0017265392,4.178,0,0
0.002362092,0.00020561220000000002,0.0024931444000000002,0.0017887344,-0.0019025696,4.179,0,0
0.0024140492,-0.00043327739999999995,0.0028577340000000002,0.0023423180000000004,-0.0016918882,4.18,0,0
0.0022300892,-0.0001524053999999999,0.0023631740000000004,0.002486334,-0.0016818702,4.181,0,0
0.0022708672000000003,0.0019327026,-0.00023926199999999985,0.0030086260000000004,-0.0013921508,4.182,0,0
0.0019919392,0.0035351326000000005,-0.00287896,0.003108902,-0.0004799736,4.183,0,0
0.0013086818,0.0036883284000000004,-0.003696811,0.0027097340000000005,-0.00019820540000000007,4.184,0,0
0.0010879542,0.003540814,-0.0038874388,0.0023951980000000003,-6.489979999999999e-05,4.185,0,0
0.0006475162,0.0028263136,-0.0031975648000000002,0.00147527,0.000312671,4.186,0,0
-0.0004029138,0.0008689196,-0.0006804468000000002,-0.00013849199999999993,0.0004716995400000001,4.187,0,0
-0.001034528,-0.0006586444,0.0013534212,-0.001262654,0.00056903634,4.188,0,0
-0.0012171466,-0.0011423864,0.0013938122,-0.00184364,0.0004975745400000001,4.189,0,0
-0.0012844802000000002,-0.0013929044,0.000809918,-0.0023609860000000002,0.00041171694,4.19,0,0
-0.0007978580000000001,-0.001791496,-0.00011555600000000006,-0.0021825324,0.00042391454,4.191,0,0
-0.00014231000000000004,-0.0019154360000000002,-0.000980084,-0.0012023222,0.0005130986,4.192,0,0
1.8622799999999987e-05,-0.001873726,-0.0012295338,-0.00020947619999999996,0.00037109580000000005,4.193,0,0
0.00010859099999999999,-0.0016829172,-0.0005772538,0.0005252398000000001,4.903899999999996e-05,4.194,0,0
0.0003740864,-0.00017248520000000007,0.0007363582000000001,0.0013099838,-0.00039578840000000003,4.195,0,0
0.0006646002000000001,0.0015506247999999999,0.0018281042000000002,0.0022818922000000003,-0.000636238,4.196,0,0
0.0005892022000000001,0.0023048827999999997,0.0025404602000000005,0.002827094,-0.0007331460000000001,4.197,0,0
0.0002607956,0.0028107056,0.0028528780000000005,0.002967652,-0.0010091094000000001,4.198,0,0
0.00011152340000000001,0.0030132504000000004,0.0025111528000000003,0.003294882,-0.0008091522,4.199,0,0
-0.000466418,0.00203365,0.0016232408000000002,0.002716339178,-0.0001737964,4.2,0,0
-0.0015226060000000001,0.000478964,0.0008507961999999999,0.001264039178,0.00018860480000000004,4.201,0,0
-0.0022765160000000006,2.8212199999999994e-05,0.00016319580000000001,0.00012978317799999985,0.0004112448,4.202,0,0
-0.003127202,-0.00022385920000000004,-0.0001700562,-0.0014728308220000002,0.0010422870000000002,4.203,0,0
-0.003783096,-0.0008332988000000002,0.00011240499999999999,-0.0035705508220000006,0.0014593638,4.204,0,0
-0.003806854,-0.0007156646,0.00048522500000000004,-0.0042999660000000006,0.0015976780000000002,4.205,0,0
-0.003794732,0.00010789939999999998,0.0007767094,-0.0040750840000000005,0.001804444,4.206,0,0
-0.003384246,0.0008014952,0.0008096378,-0.004052132,0.0014506126000000002,4.207,0,0
-0.0021450393999999998,0.0012260298,0.00045238780000000006,-0.0029606069200000004,0.0005327126000000002,4.208,0,0
-0.0009441414,0.0021675998000000004,-0.0006525922000000001,-0.00115149092,-3.9471399999999935e-05,4.209,0,0
0.00012464459999999997,0.0024548680000000002,-0.0014121622,2.1575079999999974e-05,-0.00010150139999999985,4.21,0,0
0.0015107226000000001,0.001173776,-0.0009592159999999999,0.0012658270799999999,-0.0005837168,4.211,0,0
0.0025396506000000003,-0.00022210000000000003,-0.000313488,0.00254952708,-0.0007700153999999999,4.212,0,0
0.0029448960000000002,-0.0006520044000000001,0.00020098799999999995,0.00296406,-0.00023860219999999996,4.213,0,0
0.002948636,-0.0011420462000000001,0.0009210318,0.0028462680000000003,-0.00033119819999999996,4.214,0,0
0.0026830600000000006,-0.0016742852,0.0013630930000000001,0.0025982386000000003,-0.0009108502,4.215,0,0
0.0019806058,-0.0010919812,0.0006007434,0.001877651,-0.0010466358,4.216,0,0
0.0013690618,-0.0008827272000000001,-3.934640000000003e-05,0.0007305090000000001,-0.0010324018000000001,4.217,0,0
0.0015567998,-0.0012973468,-0.0001264436,-2.745899999999997e-05,-0.0011059712000000001,4.218,0,0
0.0020929358,-0.0014493130000000003,-0.0003674116,-0.000618637,-0.0006610128000000002,4.219,0,0
0.0020436018,-0.0018749860000000001,-0.00021484220000000001,-0.0018029676000000001,-0.00031530880000000004,4.22,0,0
0.00168856,-0.002135932,-0.0002699186,-0.0029718300000000004,7.916819999999997e-05,4.221,0,0
0.0015948052000000002,-0.0016380828000000002,-0.0006213748,-0.0032758800000000005,0.0007374882,4.222,0,0
0.0009214212,-0.0009457745999999999,-0.0010565816000000002,-0.0033525560000000005,0.0008085242,4.223,0,0
-9.501680000000004e-05,-0.00023000860000000017,-0.0017720174,-0.0033584540000000003,0.0007156733999999999,4.224,0,0
-0.00015933660000000004,0.0006564854,-0.002761384,-0.001969768,0.00041593939999999996,4.225,0,0
0.00032855539999999993,0.0006168713999999998,-0.00288556,-0.0002121139999999999,-1.6224600000000028e-05,4.226,0,0
0.00031894119999999995,-0.00042186380000000013,-0.001672106,0.0009806,-0.00035780126000000003,4.227,0,0
0.0003782828,-0.0013516420000000001,-0.0005190479999999998,0.002632206,-0.00074262306,4.228,0,0
0.0005540134,-0.0027051340000000005,0.0007780639999999998,0.0038576540000000003,-0.00089063306,4.229,0,0
0.00029366539999999995,-0.0038584100000000005,0.0019978599999999997,0.0038728200000000003,-0.00071842706,4.23,0,0
0.0001385362,-0.002925712,0.0024151772,0.0036133080000000004,-0.00078545106,4.231,0,0
6.399362199999999e-05,-0.0007104100000000001,0.0020330931999999998,0.0031163016000000003,-0.0009447218000000001,4.232,0,0
-0.00046251597800000004,0.0008236060000000004,0.0016210472,0.0016137296000000001,-0.00048609680000000004,4.233,0,0
-0.0006363653780000001,0.0021138820000000005,0.0013622244000000001,0.00016341960000000003,7.010960000000004e-05,4.234,0,0
-0.000324198778,0.003967812,0.0006186104,-0.0006608244000000001,0.00038073260000000004,4.235,0,0
-3.411157800000005e-05,0.004924246,7.856920000000008e-05,-0.0017007284,0.0007827520000000001,4.236,0,0
0.00028251999999999997,0.004417338,-0.0005217508,-0.002798264,0.0013685674000000001,4.237,0,0
0.00039347599999999997,0.0035267748,-0.0013066608000000001,-0.003553526,0.0015797344,4.238,0,0
0.0003341908000000001,0.0022066428000000003,-0.0016202420000000003,-0.003599762,0.0013217444000000003,4.239,0,0
-0.00011856400000000004,-0.00027434120000000006,-0.0013790836000000001,-0.003588088,0.0012975254,4.24,0,0
-0.000697544,-0.0029483252000000004,-0.0008925135999999999,-0.0033167960000000003,0.0012880188000000002,4.241,0,0
-0.0009737252,-0.004434505200000001,-0.0003850936000000001,-0.0021310800000000005,0.0007127306000000002,4.242,0,0
-0.0008054464,-0.004577666,0.00012968620000000007,-0.000572638,0.0003993408,4.243,0,0
-0.0006634336,-0.0035282720000000003,0.00038349300000000005,0.0007727060000000001,0.0004647888,4.244,0,0
-0.00047806819999999996,-0.0019744652,0.0006024716000000001,0.002073086,7.152799999999963e-06,4.245,0,0
-8.121000000000002e-05,-0.0005620550000000002,0.0009699336000000001,0.0032790580000000005,-0.00048357000000000006,4.246,0,0
-0.00016499100000000002,2.172700000000003e-05,0.0010169236,0.0033671760000000004,-0.0003797378,4.247,0,0
-0.00018751660000000005,-0.00022883100000000003,0.0009718134,0.003224494000000001,-0.0003846744,4.248,0,0
-0.00021911200000000004,-0.00033816679999999993,0.0011647966,0.0030124220000000007,-0.0007474604000000001,4.249,0,0
-0.0007883754000000001,0.0001903864,0.0008822464,0.0015730560000000002,-0.0005060312,4.25,0,0
-0.0013894376,0.0014864942000000002,0.0002809444,0.00013365400000000009,-0.00011635642000000002,4.251,0,0
-0.0016869454000000002,0.0028568602,-7.206300000000005e-05,-0.000407594,-0.00014948282000000002,4.252,0,0
-0.0021921886,0.0034662976000000003,-0.0007040466,-0.001566894,-0.00020708472,4.253,0,0
-0.00252562,0.0032261576,-0.0019484726000000003,-0.002882416,0.00014842528000000004,4.254,1,1
-0.00227689,0.0019027276,-0.0028126934,-0.002728396,0.0005699640800000001,4.255,0,0
-0.002478702,-0.0004037824,-0.00255953874,-0.0022879144000000004,0.0005803504600000001,4.256,0,0
-0.002716788,-0.0018558424,-0.0012813153400000003,-0.0023682744,0.0004309748600000001,4.257,0,0
-0.0019877424,-0.0016662478,0.0005806146600000001,-0.0015377676000000002,2.73291600000001e-05,4.258,0,0
-0.0011106744,-0.000633358,0.00215107666,3.2992400000000054e-05,-0.00046966483999999996,4.259,0,0
-0.0005183534000000001,0.0012871480000000001,0.0032193844600000004,0.0010051984,-0.00104287484,4.26,0,0
0.0004040106000000001,0.003232604,0.0029575858000000003,0.0018826888,-0.0014910020000000002,4.261,0,0
0.0013000446,0.0039082660000000005,0.0013663278000000004,0.0033225348000000005,-0.0017420920000000002,4.262,0,0
0.0013541632,0.0033733160000000003,-0.00018505819999999998,0.004121234,-0.0017659480000000003,4.263,0,0
0.001146897,0.0022524760000000002,-0.0009936358,0.003648966,-0.0017346260000000002,4.264,0,0
0.0014728520000000002,0.00096218744,-0.0008030396,0.003547688,-0.0018545160000000003,4.265,0,0
0.0013043262000000003,-0.00024127756000000004,-0.0001945155999999999,0.0031247280000000002,-0.0016838200000000002,4.266,0,0
0.0009197378000000001,-0.00090269156,0.0007906704,0.0017000160000000002,-0.0011974069400000002,4.267,0,0
0.0009442602000000001,-0.0008565929600000001,0.0022291244,0.0010091714,-0.0005124449400000001,4.268,0,0
0.0008007618000000002,-0.00096844696,0.0032711520000000003,0.0009047954,0.00014206905999999996,4.269,0,0
0.00039196,-0.0014430624,0.0035555480000000004,6.094540000000005e-05,0.00108094306,4.27,0,0
5.808640000000003e-05,-0.0022453314000000003,0.0036414040000000004,-0.0006323705999999999,0.00185042506,4.271,0,0
0.000219495,-0.0031340854,0.0024780180000000007,-0.00041203659999999994,0.0018294080000000002,4.272,0,0
-7.783200000000004e-06,-0.003352518,-0.0010466860000000002,-0.000699669,0.0017054340000000002,4.273,0,0
-0.00033161059999999997,-0.003691262,-0.004520492000000001,-0.0007488816000000001,0.0012100438000000001,4.274,0,0
-0.0002475866,-0.003189115,-0.005524502,7.895239999999995e-05,0.00029940980000000016,4.275,0,0
0.0005873468,-0.001124005,-0.0050283540000000005,-0.00042461159999999996,0.00021803780000000003,4.276,0,0
0.0012326106,0.000640571,-0.004174230000000001,-0.0025302556,0.0011724098000000002,4.277,0,0
0.0008047882000000001,0.0017392150000000001,-0.0021197679999999997,-0.0048329286,0.0020405898,4.278,0,0
0.00028243819999999994,0.0030392450000000003,-0.00014778799999999983,-0.0078086660000000006,0.0031193520000000006,4.279,0,0
-0.000615194,0.0032855160000000005,-0.0006398139999999999,-0.010593226,0.004116128,4.28,0,0
-0.0019080000000000002,0.001859864,-0.0026840220000000003,-0.01096622,0.0037586046000000002,4.281,0,0
-0.0030591780000000005,0.0006172539999999999,-0.004508088,-0.00905678,0.0027325834,4.282,0,0
-0.0023347439999999997,-0.00034757599999999994,-0.005990138000000001,-0.005575390000000001,0.0011625613999999998,4.283,0,0
-0.000492894,-0.0008977386000000001,-0.006746096000000001,-0.00062903,-0.0011500666000000001,4.284,0,0
0.001102088,-0.0013783166,-0.006147414,0.00452671,-0.0030505186,4.285,0,0
0.002953204,-0.0017675826,-0.003733758,0.00888489,-0.004284435200000001,4.286,0,0
0.004733784,-0.0007200145999999999,9.01799999999996e-06,0.012288509999999999,-0.005760714,4.287,0,0
0.005771596,0.0007977734,0.0038701459999999997,0.01407602,-0.006808794000000001,4.288,0,0
0.00574979,0.0015597520000000002,0.007171599999999999,0.013909300000000001,-0.006614906,4.289,0,0
0.005349774,0.002156194,0.009289814,0.011647728000000001,-0.005824734,4.29,0,0
0.004142494,0.0031665820000000003,0.009409436,0.0084005702,-0.004437814,4.291,0,0
0.0021801620000000007,0.0031963060000000003,0.007715839999999999,0.0042145462000000005,-0.0018511580000000005,4.292,0,0
-9.263600000000022e-05,0.0020014238000000003,0.0056464958,-0.0013367938000000002,0.0010533659999999998,4.293,0,0
-0.0020990180000000002,0.0010343516000000004,0.0031633738,-0.0060862138,0.0034367160000000002,4.294,0,0
-0.003428912,1.0069599999999908e-05,0.0004815838,-0.009506761800000001,0.0055473499999999995,4.295,0,0
-0.004402512000000001,-0.0016050744000000003,-0.0018888502000000001,-0.012676184000000002,0.006893372,4.296,0,0
-0.004645388,-0.0032987324,-0.0035867222000000006,-0.014067840000000002,0.006996488000000001,4.297,0,0
-0.00420413,-0.0045195602,-0.00465488,-0.012490484,0.0062958580000000005,4.298,0,0
-0.0033753696000000002,-0.005022464000000001,-0.005052244000000001,-0.01009962,0.005240160000000001,4.299,0,0
-0.0020644256,-0.004510762,-0.00452269,-0.006680844000000001,0.0034431374000000008,4.3,0,0
1.0808399999999874e-05,-0.002828282,-0.0036554000000000005,-0.0012725040000000003,0.0010733674000000001,4.301,0,0
0.0021432504000000003,-0.0005896639999999999,-0.0022402760000000002,0.0036924160000000004,-0.0012063946000000002,4.302,0,0
0.0039835004,0.0016638220000000001,-0.0007419099999999999,0.0073497200000000006,-0.0031686426000000004,4.303,0,0
0.005589918,0.0031012800000000005,0.00101702,0.010602996,-0.004795458600000001,4.304,0,0
0.006103308,0.0037582520000000006,0.002638968,0.012589,-0.005884172000000001,4.305,0,0
0.005407792,0.0036621560000000006,0.0036238959999999997,0.01204174,-0.005663874000000001,4.306,0,0
0.004378286,0.0022131620000000003,0.004472838,0.010061836000000001,-0.004573611400000001,4.307,0,0
0.0031821226,0.0003231419999999999,0.00497301,0.007268824,-0.0029818434,4.308,0,0
0.0012308825999999998,-0.0014998140000000004,0.0047628639999999995,0.0031714160000000007,-0.00047746940000000025,4.309,0,0
-0.0007125054000000001,-0.0035988,0.0034993334000000004,-0.0013515939999999994,0.0016810846,4.31,0,0
-0.0023694374000000004,-0.00542525,0.0018934294,-0.005269934,0.0031422246,4.311,0,0
-0.0042595394,-0.005537902,0.00017935339999999996,-0.008292550000000001,0.004317688,4.312,0,0
-0.00577919,-0.004375718,-0.0019487826,-0.010572458000000002,0.004830414,4.313,0,0
-0.00640574,-0.002879058,-0.0036602785999999997,-0.011336800000000001,0.004501866,4.314,0,0
-0.006519968,-0.00027490399999999986,-0.0041308199999999995,-0.010143480000000002,0.003835066,4.315,0,0
-0.006051258,0.0030318180000000004,-0.003961608,-0.0076461994,0.0025004579999999997,4.316,0,0
-0.004445664,0.005478712,-0.0027807640000000002,-0.003944675400000002,0.0003279420000000001,4.317,0,0
-0.0025635519999999998,0.006795136,-0.0005432699999999998,0.0009849446,-0.0013203,4.318,0,0
-0.000969904,0.0068012179999999995,0.0013258380000000002,0.0055950146,-0.00293828,4.319,0,0
0.0009208320000000001,0.006050054000000001,0.0026331020000000004,0.008713564600000001,-0.00441827,4.32,0,0
0.002729436,0.005045768,0.0038591240000000002,0.010993504000000001,-0.004915732000000001,4.321,0,0
0.00354492,0.0029439640000000003,0.004643128000000001,0.011577806000000003,-0.004297564,4.322,0,0
0.0042099600000000004,0.0009646399999999999,0.004126692,0.010042102,-0.0032176568,4.323,0,0
0.0050399120000000006,-6.602200000000011e-05,0.002776672,0.007742484000000001,-0.0021392988000000003,4.324,0,0
0.00475341,-0.00171404,0.0014118960000000002,0.004757890000000001,-0.0003126308000000001,4.325,0,0
0.003394564,-0.003850754,-2.8310000000000032e-05,0.0008161239999999997,0.0013285712,4.326,0,0
0.001604644,-0.00424241,-0.002385924,-0.0027749940000000002,0.0022196512,4.327,0,0
-0.0006269000000000001,-0.0038269206,-0.0038199920000000004,-0.0056302520000000005,0.0030532099999999998,4.328,0,0
-0.00298382,-0.0036211026000000004,-0.0035340740000000003,-0.008222614,0.0037214340000000005,4.329,0,0
-0.004800406,-0.0024524244,-0.003848788,-0.009275720000000001,0.003515494,4.33,0,0
-0.005717374000000001,-0.0008655003999999999,-0.004098358,-0.008779972,0.0027987738000000003,4.331,0,0
-0.0056068360000000005,-0.0003494508,-0.004135598000000001,-0.007849468,0.0021006878000000007,4.332,0,0
-0.0048804,-0.0014940802000000001,-0.0042461320000000006,-0.0058371368,0.0009059746000000001,4.333,0,0
-0.0036290563999999996,-0.0025812702,-0.003231308,-0.0023346008000000003,-0.0005473974,4.334,0,0
-0.0016559703999999998,-0.0030422144000000003,-0.0012362579999999996,0.0009013151999999998,-0.0018310694000000002,4.335,0,0
0.00046776359999999993,-0.0035737824000000003,0.0005532359999999997,0.0033898112000000005,-0.0027154952,4.336,0,0
0.0022044596,-0.003229876,0.00239379,0.0060007112,-0.0033628712000000004,4.337,0,0
0.0034432016,-0.000764558,0.00427305,0.0072815399999999995,-0.0038774760000000004,4.338,0,0
0.0038686379999999998,0.0022651060000000002,0.004491346,0.006638036000000001,-0.0036686600000000007,4.339,0,0
0.0034297080000000005,0.0041024780000000005,0.004267582000000001,0.005612066,-0.00279958064,4.34,0,0
0.0027504556000000004,0.005385072000000001,0.004715732,0.0043259862000000005,-0.00146946864,4.341,0,0
0.0017657452,0.005392745400000001,0.004728164000000001,0.0019646302000000003,0.00022733336,4.342,0,0
0.0005417832000000001,0.0037526674000000005,0.00429102,-0.0006723397999999999,0.00182626536,4.343,0,0
-0.0008396968000000001,0.0018044214000000002,0.0035633076,-0.0025317058000000003,0.0028581013600000003,4.344,0,0
-0.0023890268,-0.00017532059999999985,0.0021181636,-0.0043048498,0.0036257760000000003,4.345,0,0
-0.0032460964,-0.0021472146,-0.0010724903999999999,-0.006350390000000001,0.004143756,4.346,0,0
-0.0033509260000000006,-0.0031198320000000003,-0.005109292400000001,-0.007065826000000001,0.003899176,4.347,0,0
-0.0033612200000000007,-0.003190194,-0.0075292984,-0.006117786,0.0031558402,4.348,0,0
-0.0029731260000000004,-0.002740179,-0.008343698,-0.00526935,0.0024128706,4.349,0,0
-0.001414866,-0.0016128169999999997,-0.008091526,-0.0039249728,0.0013483686,4.35,0,0
-2.9790000000000025e-05,0.0001770150000000001,-0.005639002000000001,-0.0010998808,-0.00021015739999999996,4.351,0,0
0.0005298639999999999,0.0023265530000000003,-0.0017972799999999996,0.0012605672000000003,-0.0015721694000000001,4.352,0,0
0.001527534,0.0038249530000000007,0.0011230480000000002,0.0029372052000000005,-0.0026922356,4.353,0,0
0.0026274500000000004,0.004659422000000001,0.00302117,0.004913743200000001,-0.003664296,4.354,0,0
0.00273213,0.005055932,0.0036717460000000005,0.005930524,-0.003945404,4.355,0,0
0.0021970874000000005,0.0044387844000000004,0.00274075,0.0055022840000000005,-0.0034619288000000002,4.356,0,0
0.0020053752000000003,0.0022599584,0.0019830752,0.004744508000000001,-0.0030913468000000003,4.357,0,0
0.0017605732,-8.826160000000006e-05,0.0018929532,0.0035568836000000005,-0.0022694734,4.358,0,0
0.0011973476,-0.0016335096000000002,0.0015543192,0.0010779176,-0.0009316674000000003,4.359,0,0
0.0008887923999999999,-0.0031071936,0.0015519672,-0.0014137083999999998,-5.155340000000011e-05,4.36,0,0
0.0010266389999999998,-0.0037149960000000004,0.0023901492000000003,-0.0030904144,0.0007999534,4.361,0,0
0.0009685818,-0.0032242580000000002,0.0026888210000000005,-0.0051543104,0.0017374814,4.362,0,0
0.0005010360000000001,-0.0024092640000000004,0.0013453450000000002,-0.0070078119999999995,0.002476678,4.363,0,0
3.4851599999999956e-05,-0.0016878396000000002,-0.000176523,-0.007120128,0.002513192,4.364,0,0
-0.0003617512,2.420840000000009e-05,-0.001489055,-0.006457892,0.0020789380000000002,4.365,0,0
-0.0009943692,0.0017661644,-0.002890033,-0.005484895,0.0014123746,4.366,0,0
-0.0012617120000000001,0.0021584698000000004,-0.0029470318000000004,-0.0030825509999999998,0.0005033285999999999,4.367,0,0
-0.0005451382,0.0027253318,-0.0022836874,0.00010128899999999985,-0.0008060014000000001,4.368,0,0
0.0003191778000000001,0.0027451975999999998,-0.0017165368000000001,0.002971211,-0.0016897114000000001,4.369,0,0
0.0008917578000000001,0.0007682235999999999,-0.0003521268000000002,0.005207007,-0.0017891774000000002,4.37,0,0
0.0014863038000000003,-0.0016382184,0.0008303674,0.006804386000000001,-0.002236182,4.371,0,0
0.002157182,-0.0018106042,0.0008875566,0.0073188260000000005,-0.0021371080000000004,4.372,0,0
0.0020641680000000003,-0.0014745901999999996,0.0009906622000000003,0.006374442000000001,-0.0015193688000000002,4.373,0,0
0.0017187980000000001,-0.0011814184,0.0011194586000000002,0.005002798000000001,-0.0009106054000000001,4.374,0,0
0.0013465716,0.0006634996000000002,0.0008604856,0.00376555,-0.00016360739999999989,4.375,0,0
0.0007748935999999998,0.0018387058000000002,0.0009202334,0.0017124059999999999,0.0007737986,4.376,0,0
0.0001644494,0.0014264022,0.001052734,-0.00020572199999999998,0.0015661326000000002,4.377,0,0
-0.0009449586000000001,0.0005942221999999999,0.0005930666,-0.0011605480000000002,0.0019668414,4.378,0,0
-0.0017598886,-0.0005338718000000001,0.00010598360000000002,-0.002583456,0.0023322340000000003,4.379,0,0
-0.0020756822,-0.0028163638,-0.0002192544,-0.0037174460000000006,0.0023589200000000005,4.38,0,0
-0.0024723262,-0.00487569,-0.0007585864,-0.0032551788000000003,0.0020065128,4.381,0,0
-0.0029603760000000002,-0.006117564000000001,-0.0015909044000000003,-0.0023086916,0.0012994328,4.382,0,0
-0.002589544,-0.007433864000000001,-0.002020785,-0.0015525636000000003,0.0007361168,4.383,0,0
-0.0018820865999999998,-0.006520182000000001,-0.0016333010000000002,-9.379960000000008e-05,7.633679999999996e-05,4.384,0,0
-0.0013037278,-0.0030630220000000007,-0.0014618880000000002,0.0014723423999999999,-0.0007259392,4.385,0,0
-0.00013916380000000004,0.0005038959999999993,-0.0013541682000000003,0.0019579432,-0.001149476,4.386,0,0
0.0007740562,0.0032173799999999997,-0.0007573132000000001,0.0020837720000000002,-0.0015284320000000001,4.387,0,0
0.0012455642,0.005029804,-2.3447799999999955e-05,0.002659906,-0.0017946140000000001,4.388,0,0
0.0016265568,0.0050343459999999994,-4.177099999999995e-05,0.002747474,-0.0018561340000000002,4.389,0,0
0.00170602,0.0032250579999999994,-0.000320025,0.002251914,-0.0015989165600000005,4.39,0,0
0.001674496,0.0015531884,-0.0003712928,0.002344408,-0.0011186725600000002,4.391,0,0
0.0019537699999999996,0.0005455184000000001,-0.0007802198,0.00232884,-0.00033279196000000005,4.392,0,0
0.002007478,0.0003120898,-0.0007521210000000001,0.001226988,0.0007066800400000001,4.393,0,0
0.0018190399999999998,0.0003661838,-0.00038860580000000015,-3.0158000000000073e-05,0.00122711204,4.394,0,0
0.0016637477999999998,0.0002959172,0.00027836820000000004,-0.0008698960000000002,0.0013217428000000002,4.395,0,0
0.0009425037999999998,0.0006313328,0.0013671302,-0.0022305880000000004,0.0015365048,4.396,0,0
9.40618e-05,0.0003472908,0.0019704782,-0.0035510660000000003,0.0017052442000000001,4.397,0,0
-0.0003916054,-0.0006269366000000002,0.0013688740000000002,-0.0036602780000000003,0.0015268922000000002,4.398,0,0
-0.0011447754,-0.0014628726,0.0002669479999999999,-0.003417226,0.0013753528,4.399,0,0
-0.0020258892,-0.0016320188000000003,-0.000660388,-0.003000404,0.0013435338000000001,4.4,0,0
-0.0022226792,-0.0006400008000000002,-0.0017469140000000002,-0.0017293840000000003,0.0008160206,4.401,0,0
-0.0022510752,0.0011215032,-0.0019116592000000003,-0.0007867039999999999,0.00014982859999999995,4.402,0,0
-0.0023517100000000003,0.0033344492000000002,-0.0010841992000000002,-0.000699046,-0.00034998580000000003,4.403,0,0
-0.0020818492000000003,0.005268585200000001,4.7160800000000086e-05,-0.00024467518,-0.0008231204,4.404,0,0
-0.0016892512000000002,0.005745638,0.0013820568000000003,0.00023189482000000004,-0.0011182436,4.405,0,0
-0.0014354352000000002,0.004860392000000001,0.0021103728,3.9904220000000005e-05,-0.0010619484000000002,4.406,0,0
-0.0011128282800000001,0.003946698,0.0016499280000000002,0.00014664221999999998,-0.0007662804000000001,4.407,0,0
-0.00076367948,0.0024596120000000008,0.0005654680000000001,0.00053204142,-0.0008031416,4.408,0,0
-0.00081400228,-0.0003910840000000001,2.1325199999999868e-05,0.00047909879999999996,-0.0006471056,4.409,0,0
-0.00088008228,-0.0021318739999999997,-0.00012091080000000006,-5.29312e-05,-0.00035307740000000006,4.41,0,0
-0.00102700628,-0.0024819514200000005,-5.686479999999984e-05,-0.0002532582,-0.00016049540000000008,4.411,0,0
-0.0012188884,-0.0030056194200000002,0.0008427192,-0.00012821699999999997,0.00014496659999999997,4.412,0,0
-0.0010203072,-0.0032736234200000003,0.0019473912,-0.0009307022000000001,0.0005541362,4.413,0,0
-0.00040203520000000004,-0.00302772542,0.0025008960000000003,-0.0016892364000000001,0.000898698,4.414,0,0
0.0006629888,-0.00310984942,0.00224873,-0.0016136186000000002,0.0007689654,4.415,0,0
0.0015260948,-0.004170564,0.0014997556,-0.0017543130000000002,0.0006282736,4.416,0,0
0.00211857,-0.0048517000000000005,0.0009812136000000003,-0.0018088236,-3.9818400000000086e-05,4.417,0,0
0.002467798,-0.004292617,0.0004885996000000001,-0.0005915315999999999,-0.0009767744,4.418,0,0
0.002302204,-0.0021472370000000006,-0.00030900039999999995,0.0004950884000000001,-0.0011194402,4.419,0,0
0.001772409,0.0015467049999999998,-0.0012956904,0.0008537398000000001,-0.0010005922,4.42,0,0
0.001570777,0.004736467,-0.001525994,0.0016967958000000003,-0.0012695444000000002,4.421,0,0
0.001541227,0.006147339,-0.0017316540000000002,0.0021110152000000004,-0.0008131244000000001,4.422,0,0
0.001146887,0.005779314,-0.00211325,0.0019468632000000001,0.00013853360000000002,4.423,0,0
0.0014662210000000002,0.004168614,-0.0008590940000000001,0.0022048732,-8.03884e-05,4.424,0,0
0.0019834020000000004,0.0019464790000000003,0.001170442,0.002479536,-0.0002744982,4.425,0,0
0.0017368174000000002,0.00017420500000000003,0.002441306,0.0018256780000000003,6.047340000000003e-05,4.426,0,0
0.0014064782000000001,-0.00031519900000000006,0.0032130179999999998,0.0010751800000000002,7.771020000000004e-05,4.427,0,0
0.0007803422,0.00022438900000000002,0.003892654,0.0006680146000000001,5.3666200000000025e-05,4.428,0,0
-0.0008139698000000001,0.000526175,0.003601008,-0.00017134939999999995,0.0005212822,4.429,0,0
-0.0024858158,-0.00048113599999999996,0.002534418,-0.0011879814,0.0009890264000000002,4.43,0,0
-0.0031276572,-0.001263264,0.0006444540000000003,-0.0012908228,0.0012624608000000002,4.431,0,0
-0.00340242,-0.0015719888000000001,-0.0022750980000000006,-0.0006947888000000001,0.0012719878,4.432,0,0
-0.00340198,-0.0024463868,-0.0038308100000000005,-0.0008543346,0.0010311478000000001,4.433,0,0
-0.002662984,-0.0026355188,-0.004146124000000001,-0.0007989506,0.0009572174,4.434,0,0
-0.0016988652000000002,-0.0020518948,-0.0045695786000000006,8.29740000000002e-06,0.00043545320000000005,4.435,0,0
-0.0011933916,-0.0020748228000000003,-0.003701557800000001,3.0684000000000006e-05,-0.00019040480000000003,4.436,0,0
-0.0008286868000000001,-0.002263806,-0.0013072092,-0.000554976,-0.0004835786,4.437,0,0
0.00015399520000000005,-0.0016735810000000002,-2.778380000000001e-05,-0.00016458279999999998,-0.0008209706000000001,4.438,0,0
0.0008654032000000001,-0.001003317,-0.00047090179999999997,0.00021799120000000005,-0.0012075682,4.439,0,0
0.0010201284,-0.00035245900000000006,-0.0007339012,-0.00015835319999999998,-0.0011888690000000002,4.44,0,0
0.0010936808000000001,0.0008953770000000002,-0.0010745519999999999,0.0004419376000000001,-0.0011138492000000002,4.441,0,0
0.0005361860000000001,0.001445247,-0.0012769492,0.0012021076000000002,-0.0010285158,4.442,0,0
-0.00038565,0.0006401580000000002,-0.0005015885999999998,0.0010577402000000002,-0.0005056686,4.443,0,0
-0.0005822132000000001,-0.00047138599999999996,0.00019089539999999998,0.0011441202,-0.00014139440000000004,4.444,0,0
-0.0002745232,-0.001822036,0.00044876580000000006,0.0012541304000000001,0.0002257666,4.445,0,0
-7.404000000000002e-05,-0.003854826,0.0007392838000000001,0.0002618203999999999,0.000428123,4.446,0,0
0.00030600079999999996,-0.005241288,0.0009494194000000003,-0.0006408076000000001,0.0003452740000000001,4.447,0,0
0.0007176271999999999,-0.004516077,0.0004490534,-0.0006442942000000001,0.000297254,4.448,0,0
0.0005391437000000001,-0.0024033649999999993,2.2105200000000013e-05,-0.0009519788000000001,0.00045864580000000004,4.449,0,0
-5.0458300000000045e-05,0.0007555090000000003,0.00010709728,-0.0011853666000000002,0.0005805278000000001,4.45,0,0
0.0002800045,0.004321593,-0.00020692872,-0.0005168692,0.00041586100000000006,4.451,0,0
0.0010859417,0.006237141,-0.00056363572,2.91922e-05,0.0006554758,4.452,0,0
0.0011707951000000001,0.006540157200000001,-0.00065626552,-5.2408199999999964e-05,0.0009443506,4.453,0,0
0.0014450098000000002,0.0056725332000000005,-0.0005989467200000001,0.0002961864,0.0005518172000000001,4.454,0,0
0.0020876338,0.0027740992,-0.00018408319999999988,0.0011797264,-0.0001633428,4.455,0,0
0.0018459838000000003,-0.0003439827999999999,0.0005079164000000001,0.0015597649999999998,-0.00017581880000000003,4.456,0,0
0.0013650218000000002,-0.00109592,0.0010145064,0.0016756256,-0.00023520383999999997,4.457,0,0
0.00195734,-0.00032857519999999996,0.0012174042000000001,0.0022638800000000002,-0.0007951802400000001,4.458,0,0
0.002316854,0.00016124880000000007,0.0011021636000000002,0.002352948,-0.0007038807380000001,4.459,0,0
0.0022152060000000004,0.00039454080000000014,0.0010551056,0.001317164,-0.000330010738,4.46,0,0
0.002391794,0.0006215608,0.001582108,0.0006041022000000001,-0.00043985613800000007,4.461,0,0
0.0021922782,0.00040463740000000015,0.0020528020000000003,0.00010219820000000005,-0.000620812698,4.462,0,0
0.0015540586,-0.00045398699999999993,0.00219236,-0.0012493158,-0.000246558298,4.463,0,0
0.0010003479999999999,-0.0009120510000000002,0.002620858,-0.0018143498,-0.00015175060000000007,4.464,0,0
0.000504874,-0.0002816022000000001,0.002664162,-0.0014058150020000001,-0.00018570280000000005,4.465,0,0
-0.00015537400000000003,3.8203799999999975e-05,0.0016998660000000004,-0.001644251202,0.00035984920000000004,4.466,0,0
-0.00041650580000000007,-0.00010782959999999995,0.00033129800000000027,-0.001831433202,0.0008047516,4.467,0,0
-0.00042360340000000007,-0.00047975320000000004,-0.0007183800000000001,-0.001123534602,0.0008759776,4.468,0,0
-0.00028955880000000004,-0.0011171892,-0.000791508,-0.000845353402,0.00078544054,4.469,0,0
9.322920000000008e-05,-0.001412178,-0.0005546439999999999,-0.0010856021999999998,0.00047180074000000005,4.47,0,0
0.0002854932,-0.001433784,-0.0002754107199999999,-0.0008054316,-5.001326e-05,4.471,0,0
0.0002561880000000001,-0.001389166,-0.00011621071999999983,-0.0006817716000000001,-0.0004327070599999999,4.472,0,0
-0.0003266107999999999,-0.0013065280000000002,-0.0006993087199999997,-0.0011007142,-0.00072638506,4.473,0,0
-0.0010656548,-0.0008283588000000001,-0.0019086747199999997,-0.0010822531999999999,-0.0009278886,4.474,0,0
-0.0017037687999999999,-0.00014171280000000006,-0.00299047472,-0.00044076519999999993,-0.0007733006,4.475,0,0
-0.0025195468,0.0007030132,-0.0031338518000000003,-0.0002083135999999999,-0.00011095259999999998,4.476,0,0
-0.0025634440000000002,0.0019763372,-0.002422888,6.323500000000015e-05,0.00033734720000000006,4.477,0,0
-0.0022914840000000003,0.0032293972000000002,-0.0011789953999999999,0.0008289130000000001,0.00031793000000000007,4.478,0,0
-0.002522844,0.0037514700000000002,-0.00030686689999999997,0.0010782568000000001,0.0007585648,4.479,0,0
-0.0025772720000000002,0.003581166,-9.850489999999995e-05,0.0005027482000000001,0.0010703258,4.48,0,0
-0.0024666220000000003,0.0029062416,8.744230000000004e-05,0.00037377480000000006,0.00043598180000000016,4.481,0,0
-0.0029648,0.0016649096000000002,0.0005180525000000001,0.0006763122,-5.0625799999999945e-05,4.482,0,0
-0.003697518,-0.0005642844000000001,0.0010451539000000001,1.6650200000000012e-05,-8.656159999999995e-05,4.483,0,0
-0.003416512,-0.0032883624000000005,0.0017525534000000001,-0.0003664716,-0.0003763334,4.484,0,0
-0.0024250419999999996,-0.0042580604,0.0021597134000000003,0.00015155300000000004,-0.0006017782,4.485,0,0
-0.0009123339999999997,-0.004401902,0.0014269520000000002,-1.6549999999999833e-06,-0.00048668299999999996,4.486,0,0
0.0010186740000000004,-0.0050446200000000005,0.00014993199999999997,-0.00046533819999999994,-0.00042605219999999997,4.487,0,0
0.002844034,-0.004247118,-0.0008319260000000002,-7.859819999999994e-05,-0.0004532234,4.488,0,0
0.003819236,-0.0026576660000000004,-0.0021283660000000005,-3.2175639999999946e-05,-0.0001568276,4.489,0,0
0.0034700150000000003,-0.002000976756,-0.0030470460000000003,-0.00049472364,9.174020000000003e-05,4.49,0,0
0.0026376566,0.0002306852439999999,-0.0023570709800000006,6.181156000000003e-05,9.115540000000002e-05,4.491,0,0
0.0016522686,0.004320287244000001,-0.00176037978,0.0008149547599999999,0.00030838619999999997,4.492,0,0
0.0009314376,0.007086963244000001,-0.00151240538,0.00103431876,0.00039975040000000007,4.493,0,0
0.000582685,0.008648799244000001,-0.0008649973800000002,0.0014772300000000002,0.00013448640000000001,4.494,0,0
0.000458497,0.009382224000000002,-0.00016625778,0.002153682,-0.0001163518,4.495,0,0
0.0003300242,0.007650296000000001,7.45412e-05,0.002103402,-0.0002565202,4.496,0,0
-0.0001405658,0.003629508000000001,1.282959999999997e-05,0.001763798,-0.00025085980000000003,4.497,0,0
-0.00018440760000000003,-0.000338236,0.0001212252,0.0020879740000000003,-0.00015877100000000004,4.498,0,0
-4.498300000000001e-05,-0.003067984,-5.8264800000000025e-05,0.0016354580000000002,8.709300000000003e-05,4.499,0,0
-8.098320000000001e-05,-0.005174524,-0.0005193664000000001,0.0005713420000000002,0.00035411920000000003,4.5,0,0
0.00012783920000000002,-0.0063378060000000005,-0.0011883324,-5.565799999999999e-05,0.00039908779999999996,4.501,0,0
0.0002386418,-0.0058556300000000006,-0.001530194,-0.001040898,0.0004468222,4.502,0,0
-0.00031177940000000007,-0.004410039,-0.001842258,-0.00233395,0.00039426379999999995,4.503,0,0
-0.0011813754000000003,-0.0025534238,-0.002023356,-0.0028725720000000003,-8.344619999999997e-05,4.504,0,0
-0.0015819842000000003,-0.0009054438000000002,-0.0017082566000000002,-0.0024628875999999997,-0.0006278621999999999,4.505,0,0
-0.0020789734,-0.0008117118000000002,-0.0014569738000000001,-0.0020280738,-0.00048643979999999997,4.506,0,0
-0.0024576100000000003,-0.0018356818000000003,-0.00020574380000000004,-0.0011300182,-0.00031650860000000005,4.507,0,0
-0.0020762028,-0.0020013668,0.0019388202000000005,0.0002337118000000001,-0.0005472150000000001,4.508,0,0
-0.0012662527999999999,-0.001919446,0.0035172542,0.0011684298000000002,-0.0003539546,4.509,0,0
-0.00024895479999999996,-0.0022433282000000002,0.0043164488,0.0015380174000000002,8.06736e-05,4.51,0,0
0.0008296272000000002,-0.0011575342,0.004972122000000001,0.0017090416000000003,-0.00016723940000000004,4.511,0,0
0.0020764432,0.0009312398,0.0048605060000000005,0.0015285404,-0.0007673914,4.512,0,0
0.0029077160000000003,0.0020349698,0.003549748,0.0004679143999999999,-0.000641277,4.513,0,0
0.0031378920000000006,0.0026561098,0.002829198,-2.9971800000000044e-05,-0.00043624380000000006,4.514,0,0
0.002924698,0.003990662000000001,0.0031305340000000004,-0.00012906520000000003,-0.00042218179999999994,4.515,0,0
0.002141091,0.005045554,0.003394414,-0.0008028172,0.00010264620000000003,4.516,0,0
0.001135895,0.004889384,0.00359721,-0.0010467955999999999,0.0006032102000000001,4.517,0,0
-8.5895e-05,0.004081892000000001,0.00409137,-0.0005663726,0.0008285292000000001,4.518,0,0
-0.001322943,0.0027462280000000003,0.002734214,-0.0009559163999999999,0.0010431376000000002,4.519,0,0
-0.002226071,0.0004344259999999997,-0.0007678900000000002,-0.001999355,0.0011160286,4.52,0,0
-0.00250971,-0.0026319280000000004,-0.0029583140000000005,-0.0019200390000000001,0.0010855416,4.521,0,0
-0.0024103012,-0.005202546000000001,-0.004023486000000001,-0.0016624276000000002,0.0012502436,4.522,0,0
-0.0025551832000000004,-0.0059440560000000005,-0.0052827180000000005,-0.0016188712,0.001277865,4.523,0,0
-0.0024180552,-0.004763972000000002,-0.0047676540000000005,-0.0008885912000000003,0.0008828338,4.524,0,0
-0.0017962662,-0.002656224000000001,-0.002451514,0.0003003128,0.0007477606000000001,4.525,0,0
-0.0010442782000000001,-0.0006371260000000002,-0.001549674,0.0010362188,0.0006817802000000001,4.526,0,0
-0.000349789,0.0010065900000000001,-0.001930148,0.0015726594000000003,0.00015416280000000006,4.527,0,0
0.000742153,0.0020039,-0.0017550914000000002,0.002242686,-0.000195123,4.528,0,0
0.001766551,0.0014862244,-0.0010817254,0.002337352,-0.00021365679999999998,4.529,0,0
0.0018723372,0.00010806839999999993,-0.00011423740000000003,0.0016748720000000002,-0.00039912279999999997,4.53,0,0
0.0020636852,0.00022231039999999987,0.0012509126,0.00082508,-0.0007155395999999999,4.531,0,0
0.0022831732000000004,0.0015304004,0.0026895106,1.2084000000000042e-05,-0.0006691068,4.532,0,0
0.0019529600000000001,0.0020674724,0.0032498940000000006,-0.00129508,-0.00034995480000000003,4.533,0,0
0.0016659022,0.00222964,0.0027200982000000003,-0.002318312,-0.00025087800000000006,4.534,0,0
0.0015145607,0.002280288,0.0013710962,-0.0022863320000000003,-6.809200000000004e-05,4.535,0,0
0.0007775667000000001,0.000636464,0.0004332149999999999,-0.0021000980000000003,0.0003069858,4.536,0,0
-0.00015432930000000003,-0.001990838,0.0004354170000000001,-0.0023643360000000003,0.0005440084,4.537,0,0
-0.0006208141000000001,-0.003030134,0.0008122050000000001,-0.002091386,0.0004412632,4.538,0,0
-0.0011666183,-0.002845378,0.0013049048000000002,-0.0014791370000000002,0.0002302902,4.539,0,0
-0.001700956,-0.002910768,0.0017703278000000002,-0.001451405,0.00027472280000000003,4.54,0,0
-0.0017191340000000002,-0.0024690920000000004,0.0017907791999999998,-0.0008488850000000002,-7.48966e-05,4.541,0,0
-0.0016143278000000003,-0.0015154740000000002,0.0008885188000000002,0.00035499100000000003,-0.0006365646,4.542,0,0
-0.0013254618000000003,-0.0018357920000000004,5.943940000000001e-05,0.0009060490000000001,-0.00067740054,4.543,0,0
-0.0005277077999999999,-0.0023072366,-0.0005342186,0.001549318,-0.00081599334,4.544,0,0
0.00020977820000000005,-0.0014648465999999999,-0.0013648936,0.0025338760000000004,-0.00133292994,4.545,0,0
0.0006275212000000001,-0.00034338660000000025,-0.0020082738,0.0023064100000000005,-0.0013087959400000001,4.546,0,0
0.001079639,0.0005938074,-0.0020008238,0.001456018,-0.00115221994,4.547,0,0
0.001373285,0.0015980014,-0.0016055604000000004,0.0010644274,-0.0015514638,4.548,0,0
0.0011121720000000002,0.0021767780000000003,-0.0011261344,5.7079400000000055e-05,-0.0010008958000000002,4.549,0,0
0.000766159,0.0018011734000000002,-0.00014412179999999993,-0.0017315426000000002,4.778019999999994e-05,4.55,0,0
0.00061586884,0.001307975,0.00047132000000000006,-0.0028255586000000004,0.0001996285799999999,4.551,0,0
0.00022511703999999994,0.0009842652,4.4422400000000044e-05,-0.0031418206000000002,0.00048370258,4.552,0,0
-0.0006435889600000001,0.00020690519999999997,-0.0009289796000000001,-0.0036479000000000004,0.0012535185800000002,4.553,0,0
-0.0010452399600000002,-0.0006728788000000001,-0.0017400576,-0.0037164980000000004,0.00130689058,4.554,0,0
-0.0005965869600000001,-0.0009068346000000001,-0.0020603162,-0.0025986276,0.0007034317799999999,4.555,0,0
-0.0003927598000000002,-0.0007004848000000001,-0.0021590859999999997,-0.0016896178,0.0006724312,4.556,0,0
-0.00010974200000000008,-0.000380379,-0.0016273998000000001,-0.0012225976000000002,0.00051196,4.557,0,0
0.0005850128,4.8728e-05,-0.0007464158000000001,2.619239999999989e-05,-0.000269874,4.558,0,0
0.0006024968,0.000671034,-0.00027710580000000004,0.0012799684,-0.0006180042,4.559,0,0
0.0001721836,0.0014174603999999999,3.9451600000000014e-05,0.00227776,-0.0006524854,4.56,0,0
-6.527840000000001e-05,0.001979813,-6.653440000000007e-05,0.0036375222000000007,-0.0011120054,4.561,0,0
-0.0005278884,0.0020946650000000003,-0.0005551586000000001,0.004490196,-0.0011950782,4.562,0,0
-0.0009650652,0.0019372904,-0.0004391226000000001,0.004330282,-0.0004946222,4.563,0,0
-0.0009317552,0.0018544943999999999,0.00018652139999999996,0.0042174840000000005,-0.000560391,4.564,0,0
-0.0007211526000000001,0.0015917143999999999,0.0005417339999999999,0.004190888,-0.000948251,4.565,0,0
-0.000547054,0.0013188103999999998,0.0008572419999999999,0.00339752,-0.00025095499999999997,4.566,0,0
-0.0007448800000000001,0.0016208964,0.0012097146000000002,0.0024768492000000002,0.000343261,4.567,0,0
-0.001213866,0.0022096780000000005,0.0010729226,0.0022500912,0.0002084722000000001,4.568,0,0
-0.001410612,0.0020307004000000004,0.0006424364000000001,0.001505792,0.0005948492,4.569,0,0
-0.0014733926,0.0010413884000000002,-0.0003374076,-0.00012227000000000006,0.0014078992,4.57,0,0
-0.0013315192,-0.0010770236,-0.0012463796000000001,-0.0007857984,0.0014781232000000003,4.571,0,0
-0.0005874232,-0.003955957600000001,-0.0018295622000000004,-0.0006800048,0.0011727308000000001,4.572,0,0
0.0005359108000000002,-0.005518809600000001,-0.0030063122,-0.0012966628,0.0011889218,4.573,0,0
0.0014033148000000002,-0.005736843000000002,-0.0038646180000000002,-0.0013423362,0.0009314280000000001,4.574,0,0
0.0017107420000000003,-0.0047948930000000015,-0.0038641920000000002,-0.00010791619999999985,0.000314042,4.575,0,0
0.0019202560000000004,-0.0017890950000000003,-0.003605018,0.0002095954000000001,-0.00018460600000000003,4.576,0,0
0.001973962,0.002209725,-0.0031576000000000004,6.681360000000005e-05,-0.0005643116,4.577,0,0
0.0016068946,0.005309011000000001,-0.0025642320000000005,0.0006807376000000001,-0.0010498598,4.578,0,0
0.0014134745999999998,0.006986632,-0.0019065258,0.0009478196000000001,-0.001410496,4.579,0,0
0.0010462630000000002,0.007152012,-0.0008607958000000002,0.0005716256,-0.0013081908000000001,4.58,0,0
0.00012985500000000017,0.006100485200000001,2.4996200000000017e-05,0.00038957294,-0.0011988952,4.581,0,0
-0.00039957679999999996,0.0042343170000000005,0.0007765482,0.00025228593999999997,-0.0008243572,4.582,0,0
-0.0004799108,0.0015232309999999999,0.0019453882000000002,-0.0005174260600000001,-5.006119999999997e-05,4.583,0,0
-0.0007475878,-0.001526095,0.0026768020000000003,-0.0015043694600000003,0.00041652020000000004,4.584,0,0
-0.0006390069999999999,-0.003984725,0.0023365120000000002,-0.0024068634600000003,0.0005682990000000001,4.585,0,0
-0.000491455,-0.0055696042,0.0015675040000000004,-0.0032560360000000003,0.0008137508000000001,4.586,0,0
-0.0007675612,-0.0057083820000000006,0.000584324,-0.0038950500000000006,0.0009432388,4.587,0,0
-0.000689775,-0.00439892,-0.00052281,-0.0035787060000000005,0.0005223144,4.588,0,0
-0.000668058,-0.0025787419999999998,-0.0012365416,-0.0027545292000000004,0.0005179644,4.589,0,0
-0.00083135,-0.0006477400000000001,-0.0014646156000000003,-0.0022882892000000007,0.0008020443999999999,4.59,0,0
-0.00040162779999999994,2.4629999999999986e-05,-4.812760000000012e-05,-0.0012651954000000001,0.00016831900000000005,4.591,0,0
0.0005052222000000001,-0.001080418,0.0019796644,0.00016369460000000008,-0.000304087,4.592,0,0
0.0009708454,-0.0025982260000000004,0.0027072024,0.0009684566,-9.418459999999997e-05,4.593,0,0
0.0013902514,-0.0030303312000000003,0.0029476389999999997,0.0019747258,-0.0003674428,4.594,0,0
0.0020024122000000004,-0.0023652532000000004,0.0032452504,0.0033293638000000004,-0.0007170703999999999,4.595,0,0
0.00216987,-0.0013302252,0.0028524984,0.0039018160000000007,-0.00034673980000000004,4.596,0,0
0.001923864,-0.00038443119999999987,0.0018502464,0.003995914,-0.00034946380000000005,4.597,0,0
0.0018151180000000003,-0.0005081371999999997,0.0017552024000000001,0.003918368,-0.0008338258000000001,4.598,0,0
0.0019751700000000005,-0.0007563339999999999,0.0020281774,0.00326777,-0.0007049790000000001,4.599,0,0
0.0016396708000000002,-0.00025589999999999966,0.002217404,0.0022744828,-0.00023589140000000004,4.6,0,0
0.0012764974000000003,0.0007823060000000002,0.0021998440000000003,0.0016023342,0.00010574399999999996,4.601,0,0
0.0010381894,0.0028963960000000003,0.0017013842000000003,0.0007895922,0.0005612354000000001,4.602,0,0
0.0005454556,0.0048682859999999994,0.0018720062000000003,-0.0004791938,0.0013633714,4.603,0,0
-0.00020448980000000003,0.004864776,0.0028947482,-0.0017808438000000001,0.0015234354,4.604,0,0
-0.0007685926,0.003382806000000001,0.0039572702,-0.0028916946000000004,0.0007473313999999999,4.605,0,0
-0.0011426092000000002,0.001418734,0.0024892321999999997,-0.0037953480000000005,0.0006404538,4.606,0,0
-0.0015502192,-0.001437482,-0.0010746139999999998,-0.004162566,0.0005906516,4.607,0,0
-0.0017193054,-0.0032529860000000002,-0.004123242,-0.0033872640000000005,-0.0002947844,4.608,0,0
-0.002112128,-0.002549326,-0.006693716000000001,-0.002072374,-0.0005297276,4.609,0,0
-0.00202065,-0.0019711620000000003,-0.0082389456,-0.0010344573999999998,-0.00016716479999999998,4.61,0,0
-0.0012269020000000002,-0.0012721418000000003,-0.0069757935999999994,-0.00010728779999999999,-0.0005970212,4.611,0,0
-0.000485108,0.0005403801999999999,-0.0032100156000000003,0.0007562182,-0.0011603124,4.612,0,0
0.00013282799999999993,0.0015933342,-0.00027371359999999974,0.0008127887999999999,-0.0008707262000000001,4.613,0,0
0.0008840232,0.0015138282000000001,0.0010283818000000001,0.0006469844,-0.0008159654,4.614,0,0
0.0010901398,0.0016838962000000001,0.001217005,0.0010088638,-0.0008236238000000001,4.615,0,0
0.00021354780000000008,0.0017326288000000002,0.0007304829999999999,0.001045752,-0.0002250118,4.616,0,0
-0.0005641662,0.0009717752000000001,0.0006257602,0.000780782,0.0001704602,4.617,0,0
-0.000973173,0.0005379252000000001,0.0009019322000000001,0.0009737334000000001,0.0003421994,4.618,0,0
-0.0016896022000000002,-6.90288e-05,0.0015443408000000002,0.0006007677999999999,0.0006114817999999999,4.619,0,0
-0.0025851728,-0.0011273588,0.0020301052,-0.0006682602,0.0008687334,4.62,0,0
-0.0026312468,-0.0016437316,0.0025857552000000004,-0.001141832,0.0009890194,4.621,0,0
-0.0022604502,-0.001791994,0.003032516,-0.00122554,0.001177164,4.622,0,0
-0.0025834933999999998,-0.002016564,0.0023197264,-0.001770182,0.0012361686000000002,4.623,0,0
-0.002237047,-0.0016387466000000002,0.0011373224,-0.0014268074000000001,0.0008188178000000002,4.624,0,0
-0.0007251190000000002,-0.0008794838000000001,0.0005149137999999999,-7.884539999999994e-05,8.21738e-05,4.625,0,0
7.321699999999993e-05,-0.0005461680000000001,8.807779999999992e-05,0.0004446436000000001,-0.0005733562,4.626,0,0
0.0002918539999999999,0.00036770600000000014,-0.0005263205,0.0006006938000000002,-0.0010441928,4.627,0,0
0.001239542,0.001534856,-0.0005687048999999999,0.0015421358000000003,-0.0016754268,4.628,0,0
0.0022287616000000003,0.0018293846,8.270510000000001e-05,0.0021415832000000004,-0.001747482,4.629,0,0
0.0022387316,0.0019943618,0.0004596557,0.0019871032,-0.001028482,4.63,0,0
0.0022172235999999997,0.00265282,0.0005383877,0.0021302842,-0.0007591404,4.631,0,0
0.002482434,0.0025932359999999996,0.0005811606,0.0023129300000000004,-0.000589773,4.632,0,0
0.0020218588,0.001603654,0.0005394913999999999,0.0013716420000000002,0.00019605500000000005,4.633,0,0
0.0013457478000000003,0.0009946380000000002,0.0006159113999999999,8.039999999999957e-06,0.000496076,4.634,0,0
0.0009712814000000002,0.0008699728000000002,0.0009074434000000001,-0.000877322,0.0001688898,4.635,0,0
0.0005016094000000001,0.0003010686,0.0013758774,-0.0020183220000000003,0.00036280020000000005,4.636,0,0
-5.943440000000003e-05,-0.0006439614000000001,0.0015908168000000002,-0.0032418940000000004,0.0008689968000000002,4.637,0,0
-0.00014743319999999997,-0.0013943674,0.0013810880000000002,-0.0032438020000000005,0.0009927528,4.638,0,0
-0.0001425216,-0.0021563594,0.000642018,-0.00285813,0.0012980038,4.639,0,0
-0.00017726320000000003,-0.0026014082000000004,-0.00057645,-0.0025670520000000002,0.001674354,4.64,0,0
0.00027623480000000004,-0.0024943836,-0.0016628139999999999,-0.0013377880000000003,0.001258937,4.641,0,0
0.0003552522,-0.0011217456000000004,-0.0024652980000000003,0.00015042800000000014,0.000492149,4.642,0,0
-3.662979999999994e-05,0.0014841204000000002,-0.0026855159999999998,0.0008797900000000001,-2.601980000000001e-05,4.643,0,0
-0.00017307239999999995,0.0033194504,-0.0026367219999999998,0.0013236798,-0.0007263818000000001,4.644,0,0
-0.00016581479999999997,0.0035409715999999997,-0.002237374,0.0019048098000000002,-0.0016737318,4.645,0,0
-0.00045169199999999985,0.0033629448000000004,-0.0013515080000000002,0.0017880858,-0.0016494970000000002,4.646,0,0
-0.0006702635999999999,0.0027707428,-0.0007521813999999999,0.0011448794,-0.001047419,4.647,0,0
-0.00017864620000000004,0.0014819147999999998,-6.042939999999995e-05,0.0007929176000000001,-0.0011923872000000001,4.648,0,0
7.545179999999998e-05,0.0008384496,0.0006938426000000001,0.0004533394000000001,-0.0008847766,4.649,0,0
-3.212500000000003e-05,0.00015234040000000008,0.0011446588,-0.0006448606000000001,-4.792400000000019e-06,4.65,0,0
0.000169326,-0.0005751992000000002,0.0010115826,-0.0016201626000000003,0.00030860580000000005,4.651,0,0
0.00024058,-0.00040239919999999997,0.0005798740000000001,-0.0020067282000000002,0.0006149658000000001,4.652,0,0
6.288140000000004e-05,-7.709319999999993e-05,-8.355799999999996e-05,-0.0028426444,0.0014018608000000003,4.653,0,0
-0.0001412112,-0.00015010819999999994,-0.00080649,-0.0032880060000000004,0.0020642382000000004,4.654,0,0
-0.000410106,-4.880620000000005e-05,-0.0009426203999999999,-0.0027080304000000003,0.002127724,4.655,0,0
-0.0010557798,-0.0005144082000000001,-0.0005550462000000002,-0.0018761876000000005,0.0020252472,4.656,0,0
-0.0013502418000000001,-0.0024197642000000005,0.0009226218,-0.0010978916000000003,0.0014042204000000002,4.657,0,0
-0.0009879906,-0.0038961842,0.0025944898000000004,0.0005319884000000001,0.0003570864000000001,4.658,0,0
-0.0003884899999999998,-0.0041476125999999995,0.0034243098000000007,0.0023641604,-0.0006912016,4.659,0,0
0.0002845800000000001,-0.0040405206,0.0037697119999999997,0.0034139088,-0.0015721156,4.66,0,0
0.0007949713600000001,-0.0041688046,0.003802834,0.004687852,-0.0019131168000000001,4.661,0,0
0.00143907916,-0.0034144865999999998,0.00309171,0.005826098,-0.0018400882000000004,4.662,0,0
0.0019620111600000003,-0.0018523686000000003,0.0016031620000000002,0.005576864000000001,-0.001362628,4.663,0,0
0.00233378516,-0.0010947319999999997,-0.00011611999999999994,0.00476614,-0.0010557510000000002,4.664,0,0
0.00253003916,-0.0003599260000000002,-0.001191322,0.0042995920000000005,-0.0006678490000000001,4.665,0,0
0.0025486902000000002,0.0013786340000000001,-0.0014861820000000002,0.002634846,-0.00013810300000000002,4.666,0,0
0.0023077300000000005,0.0022686780000000005,-0.0018075804000000002,0.00056086,0.0001486192,4.667,0,0
0.0012997959999999998,0.0012457860000000002,-0.0012065324,-0.0006169000000000001,0.0005826469999999999,4.668,0,0
-0.000170622,0.0005450066,-6.276359999999998e-05,-0.0018594420000000002,0.0014305,4.669,0,0
-0.00154327,0.0007778006000000001,-0.00023335359999999993,-0.0031610500000000003,0.001989304,4.67,0,0
-0.0023949324,0.0009422866000000001,-0.0015617816,-0.004024344,0.0018123577999999997,4.671,0,0
-0.0029823040000000003,0.0012121146,-0.0027602692,-0.004253784,0.0017213199999999997,4.672,0,0
-0.0031131660000000005,0.0022968626,-0.0039800172,-0.00438604,0.0011830757999999999,4.673,0,0
-0.0026793688000000004,0.003184102,-0.0048095,-0.003992346000000001,8.965179999999995e-05,4.674,0,0
-0.0020280288,0.003480716,-0.004257398000000001,-0.0028219620000000003,-0.0007106162000000001,4.675,0,0
-0.0012608232000000002,0.004018836,-0.0032645788000000005,-0.001443738,-0.001200802,4.676,0,0
-0.0003051851999999999,0.004482288,-0.0024099728,0.000126226,-0.00152241,4.677,0,0
0.0006158788000000001,0.0053343520000000005,-0.0020219488000000002,0.0017491980000000002,-0.0015968468000000001,4.678,0,0
0.0006303796000000001,0.006406726,-0.0015614528000000001,0.0024114180000000002,-0.0015705388,4.679,0,0
0.0004649476000000001,0.0060888819999999995,-0.0008975348,0.0020932112,-0.0013904528000000002,4.68,0,0
0.0005450210000000001,0.004008184,-0.00021235799999999995,0.0018837372000000004,-0.000987246,4.681,0,0
0.0003658802000000001,0.001208622,0.0010300740000000002,0.0010145372,-0.0009223200000000001,4.682,0,0
-8.36274e-05,-0.0018997420000000003,0.0028299980000000002,-0.0006958607999999999,-0.0006213312000000002,4.683,0,0
-1.0626999999999998e-05,-0.004603504,0.004392944,-0.0018197268,0.0002634568000000001,4.684,0,0
-3.059899999999997e-05,-0.006116882000000001,0.004685076000000001,-0.002166042,0.0010817608,4.685,0,0
-0.0010668600000000002,-0.00740985,0.004263680600000001,-0.0029371200000000005,0.0015806220000000003,4.686,0,0
-0.0018950872000000002,-0.00836007,0.0019086545999999994,-0.00357229,0.00180223,4.687,0,0
-0.0021678362000000003,-0.008405474,-0.0019808174000000003,-0.0031267540000000003,0.0016700988000000001,4.688,0,0
-0.0021113158,-0.008121294000000001,-0.0042774094,-0.0023711042000000002,0.0012158132,4.689,0,0
-0.0017197068000000004,-0.007401036000000001,-0.005230337400000001,-0.0019662768,0.000656754,4.69,0,0
-0.0004798487999999999,-0.005580498000000001,-0.0054922838,-0.0008355347999999999,-0.000235732,4.691,0,0
0.0006428592,-0.0029093052,-0.0040613993999999995,0.0010994852,-0.0008348142000000001,4.692,0,0
0.0010756598,-0.0012154874000000003,-0.0016512992,0.0025867272,-0.0011045728000000001,4.693,0,0
0.001345017,-0.0007765104000000001,-0.00050194702,0.0039437914000000004,-0.0018114792,4.694,0,0
0.0018250240000000002,-0.0005393434,-0.00011469222000000002,0.005250568000000001,-0.002497656,4.695,0,0
0.0023404920000000004,-0.0005257154000000001,0.00041837358000000005,0.005699648,-0.0028607000000000003,4.696,0,0
0.002214202,-0.0006978052000000001,0.0010369351800000003,0.004766109400000001,-0.0030928200000000005,4.697,0,0
0.0022056980000000003,-0.00011903900000000004,0.0019559669800000004,0.003749425400000001,-0.00311954,4.698,0,0
0.0018277623200000002,0.0014833840000000001,0.0026091048000000004,0.0026371444000000007,-0.0023521408000000002,4.699,0,0
0.0009166323200000001,0.002929267,0.003166096,0.0010301144,-0.0011049868000000001,4.7,0,0
0.00047390432,0.0043204310000000004,0.0034002500000000005,1.7859999999999968e-05,-2.868079999999995e-05,4.701,0,0
0.00048011832,0.005622190000000001,0.0030089100000000005,-0.00023229579999999999,0.0012284032,4.702,0,0
-0.00012118368000000002,0.006066648000000001,0.0026005240000000003,-0.0010211298,0.0025232412,4.703,0,0
-0.000450584,0.005676846,0.0021088608000000004,-0.0023504688,0.003241674,4.704,0,0
2.837099999999999e-05,0.005018880000000001,0.0014234345999999999,-0.0028266788000000003,0.0031912060000000003,4.705,0,0
-0.00035044279999999996,0.0039681816000000005,0.0006220055999999999,-0.0034693204,0.0030240647999999998,4.706,0,0
-0.0010171808000000002,0.0016577456000000004,1.6779599999999957e-05,-0.004279010000000001,0.0026918248,4.707,0,0
-0.0008165864,-0.00020664240000000007,-0.0006120624,-0.0039848159999999995,0.0016890646,4.708,0,0
-0.000585343,-0.0006749724000000002,-0.0013861772000000002,-0.0026043164,0.0007786258000000002,4.709,0,0
-0.0010049500000000001,-0.0005180824000000004,-0.001656073,-0.0015986764000000002,0.00011535520000000005,4.71,0,0
-0.0009146073000000001,0.0007249119999999999,-0.0018370880000000002,-0.0005954503999999999,-0.00042327559999999996,4.711,0,0
-0.00048058590000000004,0.002585464,-0.0019436580000000005,0.0010228056,-0.0007136976000000001,4.712,0,0
-0.0005155803000000001,0.0034384751999999995,-0.0017531156000000004,0.0017197976000000001,-0.0006943866000000001,4.713,0,0
-0.00038116790000000005,0.0024301692,-0.0011783308000000003,0.0017363098,-0.0004480838,4.714,0,0
5.492209999999998e-05,0.00039038920000000017,-0.0003529068000000001,0.0019039538000000002,-0.00013453300000000002,4.715,0,0
1.6644400000000016e-05,-0.0016672947999999998,0.00036104520000000006,0.0016556438,0.00028991148,4.716,0,0
-0.00023001700000000003,-0.0032314468,0.0007834212000000001,0.0005003518000000001,0.00047209848,4.717,0,0
-0.000284079,-0.0048027140000000005,0.0008142418,-0.00026707419999999997,0.00060748908,4.718,0,0
-0.0006165448000000001,-0.005322238,0.001218363,-0.000735344,0.0009288750800000001,4.719,0,0
-0.0008640586000000001,-0.003737996,0.0019381390000000002,-0.001611412,0.0015754088800000003,4.72,0,0
-0.0009119490000000001,-0.0027052234000000002,0.0028126470000000006,-0.002004408,0.0020972184000000002,4.721,0,0
-0.0009023770000000001,-0.0022425474000000003,0.0036506770000000006,-0.0017560882,0.0022623534000000005,4.722,0,0
-0.0006272296600000001,-0.0010650934,0.0037498628000000003,-0.0014517188000000001,0.002448696,4.723,0,0
-0.00010528366000000003,-0.0004063094,0.0027707808000000003,-0.0012334324,0.0020809696000000004,4.724,0,0
0.0005502021399999999,-0.0005240954,0.0008067468,-0.00039882039999999995,0.00133282812,4.725,0,0
0.0011364493400000003,-0.0004101380000000001,-0.0014582612000000003,0.0007520856000000001,0.0007890641200000001,4.726,0,0
0.00149946774,0.000249332,-0.0033544492,0.0015419178000000001,0.00023880012000000007,4.727,0,0
0.0020394804,0.001165018,-0.0036905460000000003,0.0025410464000000005,-0.0006511498800000001,4.728,0,0
0.0023436984,0.001392456,-0.0016506200000000002,0.0036071340000000006,-0.00125931748,4.729,0,0
0.0017042058000000001,0.00038069800000000006,0.0010709720000000003,0.0037586520000000008,-0.0013545752,4.73,0,0
0.0011704495999999998,-0.001000314,0.0034576620000000002,0.0033147940000000007,-0.0016136232,4.731,0,0
0.0011870945999999999,-0.00215614,0.005681234,0.003014978,-0.0017358532000000004,4.732,0,0
0.0009946886,-0.0024549660000000003,0.0059263592,0.00213792442,-0.0012825434000000003,4.733,0,0
0.0005666768000000001,-0.00162656,0.0035530512,0.00099393982,-0.000998859,4.734,0,0
-2.768459999999992e-05,8.958600000000011e-05,0.00036692919999999963,0.0005999424200000001,-0.0011782198,4.735,0,0
-0.0008909844,0.002245306,-0.0021101408,5.354419999999951e-06,-0.0010227512000000002,4.736,0,0
-0.0017369258,0.0036323780000000003,-0.0038687428,-0.0009939395800000002,-0.0007030736,4.737,0,0
-0.0024439138,0.0035812560000000005,-0.004440368,-0.001441184,-0.0007098647999999999,4.738,0,0
-0.0028528,0.0028347036000000003,-0.00375727,-0.0016861414,-0.0010062072,4.739,0,0
-0.002721082,0.0020354614000000003,-0.0030631,-0.0023093620000000006,-0.0012706392000000001,4.74,0,0
-0.0018769578000000001,0.0012537054,-0.0025801680000000003,-0.0019306905999999999,-0.0014911058,4.741,0,0
-0.0009900678000000001,0.0007611494000000002,-0.002384492,-0.0003278866000000002,-0.0021379674000000003,4.742,0,0
-0.0008265668,0.00042419404,-0.00223272,0.0007643974,-0.002836158,4.743,0,0
-0.0005593484,0.00054483684,-0.0019079502000000003,0.0016274434,-0.0030896580000000003,4.744,0,0
0.00018977160000000002,0.0012978830400000002,-0.0011999102,0.0029591714,-0.003293516,4.745,0,0
0.00041498080000000007,0.0023097370400000003,-0.0003635062,0.0033319580000000003,-0.0033436439999999998,4.746,0,0
0.00016079500000000004,0.0035892470400000005,0.0002116154,0.0020709780000000002,-0.0027641528,4.747,0,0
0.00022535619999999998,0.0044507924,0.0007370286,0.0010202000000000002,-0.0019859558,4.748,0,0
0.0005510158,0.004099769600000001,0.000610374,2.9548000000000226e-05,-0.0010559278,4.749,0,0
0.0006932157999999999,0.0028238036000000004,5.251399999999998e-05,-0.00160006,0.00023045820000000008,4.75,0,0
0.000584516,0.0011583996000000003,-0.000423916,-0.002608136,0.0012944282,4.751,0,0
0.0007671341999999999,-0.0019707604000000004,-0.0004382152000000001,-0.003006412,0.002078321,4.752,0,0
0.0007263296,-0.005433698400000001,0.00019704960000000002,-0.0037949360000000005,0.0026862120000000003,4.753,0,0
-0.00017255440000000003,-0.006669884000000001,0.0008479384,-0.004606046000000001,0.0028750900000000003,4.754,0,0
-0.0011026164,-0.006657650000000001,0.0015019004000000002,-0.004874612,0.002757658,4.755,0,0
-0.00159049,-0.0053583960000000005,0.0023926624000000004,-0.005107924000000001,0.002656482,4.756,0,0
-0.0016132942,-0.002308284,0.0031968020000000003,-0.004840976,0.0025279419999999996,4.757,0,0
-0.0007635118000000001,0.0004958140000000003,0.003073128,-0.0034713296000000006,0.0019210186600000002,4.758,0,0
0.00020435220000000005,0.0016126980000000003,0.0023131404,-0.0012628756000000003,0.0012960326600000003,4.759,0,0
0.0008744546000000002,0.0012565660000000006,0.0015793304,0.0007013603999999998,0.0007073568600000001,4.76,0,0
0.0018573026000000001,-0.0004473639999999998,-0.0005076035999999999,0.0024094564,-0.00027852314,4.761,0,0
0.0024074824,-0.0024499960000000003,-0.0033829076000000003,0.0038743784,-0.0013212791400000002,4.762,0,0
0.0020280684,-0.00323529,-0.004378333600000001,0.004175444,-0.0016458458,4.763,0,0
0.0016705419120000003,-0.00257826,-0.003780262000000001,0.0038233580000000002,-0.0016013476000000001,4.764,0,0
0.0015771825120000002,-0.0009383299999999998,-0.002852406,0.0037714980000000003,-0.0017815558,4.765,0,0
0.001069208112,0.0007059480000000003,-0.0012583092000000005,0.0036769660000000007,-0.0010927698000000002,4.766,0,0
0.0005610869120000001,0.002354648,0.0008797128000000001,0.0030003480000000003,2.8376200000000055e-05,4.767,0,0
0.00022675511200000005,0.004014776,0.0018000228,0.0026583800000000006,0.0006694842000000001,4.768,0,0
-5.014639999999999e-05,0.004923828000000001,0.0013442608000000002,0.0020260228000000004,0.0013130820000000001,4.769,0,0
-0.00023233039999999997,0.00509142,0.0007272712000000001,0.0006358608000000002,0.002285032,4.77,0,0
-0.00065907,0.005105774,0.0004681260000000001,-0.0007533552000000002,0.002594176,4.771,0,0
-0.0012403068,0.00468448,0.00036165360000000007,-0.0015296492000000002,0.0021422008,4.772,0,0
-0.0014844390000000002,0.0031783540000000004,-0.0001590434,-0.0020392752,0.0019652686000000003,4.773,0,0
-0.0013406964,0.000909336,7.592260000000001e-05,-0.0025658240000000004,0.0014408,4.774,0,0
-0.0007869413999999999,-0.0008998860000000002,0.0005787122000000001,-0.0017288420000000002,0.000409264,4.775,0,0
0.0002054906000000001,-0.002049094,0.0001882626,-0.0005994939999999999,-0.0004160180000000001,4.776,0,0
0.0010735586,-0.0027985760000000005,-3.557339999999995e-05,4.501540000000006e-05,-0.0008317408000000001,4.777,0,0
0.0019484046000000001,-0.0026391540000000003,2.536250000000007e-05,0.0011351874,-0.0013187866,4.778,0,0
0.002477968,-0.0017851698000000001,-0.00011256389999999997,0.0020156134000000004,-0.0014388684,4.779,0,0
0.002268791,-0.0011051776,2.3436099999999977e-05,0.0014712754000000003,-0.0009249915999999999,4.78,0,0
0.0018387968,-0.0006939162000000002,0.0008141881,0.0008794853999999999,-0.000851802,4.781,0,0
0.0014100478800000002,-0.00015085819999999996,0.0013928745,0.0006712641999999999,-0.000956728,4.782,0,0
0.0007538114799999999,7.000600000000001e-05,0.0018944856000000002,-0.0006791098000000001,-0.0005078694000000001,4.783,0,0
0.00038005608,-0.0001307262,0.002119408,-0.0015792178000000002,-3.7821e-05,4.784,0,0
0.0005100310800000001,-0.0005784684,0.0010852560000000002,-0.0018689458000000002,0.00013630020000000007,4.785,0,0
0.00010841728000000005,-0.0010717678000000002,-0.00047142799999999986,-0.0026810298,0.0007303586,4.786,0,0
-0.0003960458,-0.0020113858,-0.001681044,-0.0033298959999999997,0.0014543406000000001,4.787,0,0
-0.0002749398,-0.003273006,-0.002053463,-0.00317482,0.0015774020000000003,4.788,0,0
-0.0004503936,-0.0036341000000000004,-0.002083367,-0.0028705200000000005,0.0013404334,4.789,0,0
-0.0011179236,-0.003417502,-0.0017591878,-0.0027286080000000004,0.0010424518,4.79,0,0
-0.0012859876000000001,-0.003077324,-0.0005987040000000001,-0.001908484,0.00047248179999999997,4.791,0,0
-0.0012046436,-0.0017937860000000001,-0.000241278,-0.0008663159999999999,-0.0003001342,4.792,0,0
-0.00126428644,0.00028467400000000017,-0.0014521249999999999,-0.0001486619999999999,-0.0008685002,4.793,0,0
-0.0011079999,0.0013787480000000002,-0.002496763,0.000560954,-0.0013964736,4.794,0,0
-0.0009218021,0.0012643200000000004,-0.0026126022,0.001717128,-0.001963242,4.795,0,0
-0.0006452283000000001,0.0006484360000000003,-0.0024270818,0.0022701500000000003,-0.0025536919999999998,4.796,0,0
-0.0002487763,-0.00053065,-0.0015546998,0.0017507484000000002,-0.002761108,4.797,0,0
-0.00011545206000000005,-0.0017017560000000002,-3.0638000000000366e-06,0.0016806956,-0.0027860000000000003,4.798,0,0
-1.0787799999999978e-05,-0.001341478,0.0010171522,0.0016050596,-0.00285471,4.799,0,0
5.721199999999995e-06,0.00038629000000000007,0.0013815163999999999,0.00031247360000000006,-0.0023716418,4.8,0,0
-5.8771999999999985e-05,0.0022789,0.0013833772,-0.0008445744,-0.0015726579999999998,4.801,0,0
-6.56358e-05,0.004297742,0.0007033962000000001,-0.0010498708,-0.0008720112000000001,4.802,0,0
-0.0005298908,0.005231208,7.0093e-05,-0.0020367560000000002,-0.00042627280000000006,4.803,0,0
-0.0010920504,0.004057020000000001,0.00036119500000000003,-0.003142404,0.0002456134,4.804,0,0
-0.0017112312000000002,0.001714982,0.0012056568,-0.0025452300000000003,0.0007493532000000001,4.805,0,0
-0.0030901998000000003,-0.00089186,0.0018987018,-0.0015530300000000002,0.0010657774,4.806,0,0
-0.0042819320000000004,-0.00285043,0.002210721,-0.0006005340000000001,0.0017449466,4.807,0,0
-0.0038191872,-0.002885388,0.0018816602000000001,0.0016165700000000001,0.0023848522,4.808,0,0
-0.0027408872,-0.0019702620000000004,0.00037148020000000006,0.004040338,0.003187328,4.809,0,0
-0.0020791212000000002,-0.0009682960000000003,-0.0011016638000000002,0.0054022160000000005,0.0038485420000000004,4.81,0,0
-0.0011114472,0.0004094226,-0.0017167988,0.007162082,0.004321256000000001,4.811,0,0
-0.00033392320000000004,0.0006759466000000002,-0.001181869,0.008803196000000001,0.004784450000000001,4.812,0,0
-0.0008284360000000001,-0.0006229754,0.0010291710000000004,0.008822786,0.005286470000000001,4.813,0,0
-0.0016161046000000001,-0.0021289654,0.0035089530000000004,0.008443512,0.005692866,4.814,0,0
-0.0010645306000000004,-0.0029688434000000002,0.004911093,0.007960916,0.0057892360000000006,4.815,0,0
0.00017313739999999978,-0.00367105,0.005153980000000001,0.006140292,0.006051972,4.816,0,0
0.0010342533999999999,-0.003736654,0.004609976,0.003527918,0.00595768,4.817,0,0
0.0016964694,-0.00188706,0.003122952,0.0020104448,0.0051682839999999996,4.818,0,0
0.0020456258,0.0015144460000000002,0.0018394240000000003,0.0010924368,0.0039862414,4.819,0,0
0.0020131278000000002,0.004699484,1.7918000000000014e-05,-0.00033387719999999996,0.0021539254000000002,4.82,0,0
0.0019455658,0.006804824,-0.003209658,-0.0024674071999999997,-0.0005076526000000006,4.821,0,0
0.0020470858,0.008719354,-0.005130012000000001,-0.0050864732,-0.0034729046,4.822,0,0
0.0026221578000000002,0.009317384,-0.006133688,-0.008280938000000002,-0.0063206566,4.823,0,0
0.003424906,0.007695378000000001,-0.007388908,-0.011528687999999999,-0.009321712,4.824,0,0
0.0035538180000000007,0.005539821200000001,-0.007164862000000001,-0.012821932,-0.01151108,4.825,0,0
0.003081457,0.004053415800000001,-0.005101642,-0.011580718000000002,-0.012333616,4.826,0,0
0.002881077,0.0019939418000000006,-0.0033518280000000003,-0.008106394000000001,-0.012276114000000001,4.827,0,0
0.002499051,-0.0010348922,-0.0024795018,-0.0033621880000000003,-0.011190688,4.828,0,0
0.001999121,-0.0036766942000000004,-0.0012725914000000001,0.0016051120000000001,-0.008868418000000001,4.829,0,0
0.002337919,-0.005877237400000001,0.0006166346000000001,0.004637098,-0.005475822000000001,4.83,0,0
0.0031396120000000004,-0.006828558000000001,0.0024713746000000003,0.004438434,-0.0023131,4.831,0,0
0.0035339200000000003,-0.005809756,0.0035509646000000004,0.0023937000000000003,5.132400000000005e-05,4.832,0,0
0.0032615900000000004,-0.0039013840000000004,0.0041493184,-0.001183326,0.0018583220000000001,4.833,0,0
0.0027746979400000006,-0.0018495928,0.0042720480000000005,-0.005822626,0.0024190326000000004,4.834,0,0
0.0018166885400000003,0.00022794260000000006,0.0035731120000000007,-0.008648647999999998,0.0016881666000000003,4.835,0,0
0.00020268253999999994,0.001120682,0.0026086290000000003,-0.008933058000000002,0.0009668124,4.836,0,0
-0.0013896654600000001,2.0648000000000064e-05,0.001814243,-0.008364422,0.0009355804,4.837,0,0
-0.00271602146,-0.0022217699999999996,0.0017645350000000002,-0.0066054600000000005,0.0016503304,4.838,0,0
-0.0036074094000000004,-0.0043385352,0.002222559,-0.0049063,0.0031053718000000003,4.839,0,0
-0.003320366,-0.005215320600000001,0.002099889,-0.0043774799999999996,0.0048386818,4.84,0,0
-0.002047872,-0.0050797590000000005,0.0020466502,-0.0047518939999999996,0.00605615,4.841,0,0
-0.0004842500000000003,-0.003958421000000001,0.0016142362,-0.00743728,0.005847710000000001,4.842,0,0
0.001350156,-0.0015916969999999998,0.00012727620000000002,-0.011323022,0.0048567720000000005,4.843,0,0
0.00301655,0.000729689,-0.0013413758,-0.013411001999999998,0.0041168820000000005,4.844,0,0
0.0041903140000000005,0.0025557950000000005,-0.0024271798,-0.013434743999999998,0.0026028582,4.845,0,0
0.0047343,0.0038358439999999997,-0.0034527060000000003,-0.01084484,0.00031543420000000014,4.846,0,0
0.004292304,0.00354189,-0.0038682240000000004,-0.0025585600000000005,-0.0007998278,4.847,0,0
0.003241062,0.00287011,-0.0026469860000000005,0.0118275,-0.0013855158000000002,4.848,0,0
0.0012781199999999998,0.002462606,-0.0008244100000000005,0.028887580000000003,-0.0023090260000000005,4.849,0,0
-0.0025109060000000002,0.0006532219999999999,0.0008241919999999996,0.044782716,-0.0018062362000000002,4.85,0,0
-0.006391242,-0.0009647200000000001,0.0026011499999999996,0.05588211999999999,0.00034567780000000013,4.851,0,0
-0.008694332,-0.00046346600000000005,0.0031610543999999996,0.058084620000000003,0.0025517438000000007,4.852,0,0
-0.010398346000000001,0.000412426,0.0019571103999999995,0.0480978142,0.0041329318000000006,4.853,0,0
-0.011723960000000002,0.001180238,0.0004039663999999998,0.0292862142,0.005651990000000001,4.854,0,0
-0.01168918,0.00278514,-0.0007959176000000001,0.008924134199999998,0.007130844000000001,4.855,0,0
-0.010595180000000001,0.0035677200000000004,-0.0014516004000000003,-0.007689925800000001,0.008124338,4.856,0,0
-0.009920410000000001,0.001503664,-0.0009251488000000002,-0.016370351800000002,0.008749156000000001,4.857,0,0
-0.008846397999999998,-0.002110288,0.00044369919999999994,-0.016443099000000003,0.009111338,4.858,0,0
-0.0058341339999999995,-0.004526726,0.0006992686000000001,-0.011059775000000003,0.009448958,4.859,0,0
-0.001829248,-0.005633178,-0.0002468294,-0.007597255000000001,0.008590696000000002,4.86,0,0
0.002581092,-0.005688487999999999,-0.0005718450000000002,-0.011581215000000002,0.00516124,4.861,0,0
0.006502102,-0.003089504,-0.000535379,-0.022168709,-0.00027225999999999986,4.862,0,0
0.008967280000000001,0.0011443580000000003,-0.0007886069999999999,-0.035841376,-0.006480858000000001,4.863,0,0
0.00973624,0.00415809,1.963760000000007e-05,-0.05062928,-0.012732558000000001,4.864,0,0
0.008154178600000003,0.005155766,0.0020932316000000003,-0.06294736000000001,-0.017691476,4.865,0,0
0.0045409026000000005,0.004651808800000001,0.001916876,-0.06399532,-0.01876132,4.866,0,0
0.0011350606,0.0031677448,-0.0005037140000000002,-0.05378438,-0.016533038000000003,4.867,0,0
-0.0006570713999999999,0.0011027328000000002,-0.002195688,-0.03808926,-0.013430795999999998,4.868,0,0
-0.0016754674,-0.0012759832000000001,-0.003427576,-0.01890794,-0.009528734,4.869,0,0
-0.000825398,-0.0031202872000000003,-0.004201109,-0.0008991600000000013,-0.006053854,4.87,0,0
0.0036551180000000006,-0.0033717760000000004,-0.003458267,0.009690299999999999,-0.004522224,4.871,0,0
0.009962600000000002,-0.002873256,-0.0013765486000000002,0.0133342,-0.0029916099999999996,4.872,0,0
0.013546442000000002,-0.002888194,5.37539999999999e-05,0.013337159999999999,-0.00053341,4.873,0,0
0.013790266,-0.0031687580000000003,0.0005281902,0.012939840000000001,0.0024628080000000004,4.874,0,0
0.012272832000000001,-0.0029730040000000004,0.0001321292,0.01964784,0.007673388000000001,4.875,0,0
0.006666943999999999,-0.003200938,-0.0011189228000000001,0.035030740000000005,0.013565378000000003,4.876,0,0
-0.0016644760000000007,-0.00421497,-0.0011831112,0.05323428000000001,0.017613262,4.877,0,0
-0.007794576000000001,-0.00388404,-0.00012283580000000001,0.07033842000000001,0.020065680000000002,4.878,0,0
-0.011451688000000002,-0.001980786,0.0009594700000000002,0.08231652,0.019399664000000004,4.879,0,0
-0.014813368000000002,-0.00017285199999999981,0.002359122,0.08402788,0.015253818,4.88,0,0
-0.016782960000000003,0.0007698880000000003,0.004875272,0.07602448,0.009466177999999999,4.881,0,0
-0.015566402000000003,0.0012000560000000003,0.006784816,0.06194764000000001,0.0033995680000000004,4.882,0,0
-0.013110696000000002,0.0015475950000000004,0.005913570000000001,0.043279026,-0.0013575859999999998,4.883,0,0
-0.010175678000000002,0.0009912516000000003,0.003860058,0.024362125999999998,-0.004616182,4.884,0,0
-0.005783044000000001,-0.0007967763999999999,0.0017079340000000006,0.009182546,-0.008229276,4.885,0,0
-0.0004175699999999997,-0.0020355464,-0.0010246920000000002,-0.004757834000000001,-0.011419576,4.886,0,0
0.004276192,-0.0013905464,-0.0040556640000000005,-0.019633494,-0.013464746000000001,4.887,0,0
0.007507786000000001,-8.764940000000011e-05,-0.005515974000000002,-0.033886980000000004,-0.016828832000000002,4.888,0,0
0.009393988,0.001551206,-0.004675332000000001,-0.047105560000000005,-0.020936820000000002,4.889,0,0
0.010171904,0.004056256,-0.0032073020000000004,-0.059866720000000005,-0.024019440000000003,4.89,0,0
0.010667086000000001,0.006540244,-0.0018209720000000001,-0.06988188000000001,-0.025944920000000003,4.891,0,0
0.009752786,0.008019916,-0.000410504,-0.07466864000000001,-0.02625984,4.892,0,0
0.00820823,0.009283178000000001,0.0014332800000000003,-0.07354280000000002,-0.023892280000000002,4.893,0,0
0.007394168,0.010467846000000001,0.0031562980000000005,-0.06722786,-0.019408888,4.894,0,0
0.006664102,0.009768432,0.004580980000000001,-0.05817304000000001,-0.0136515894,4.895,0,0
0.00651866,0.009419070000000002,0.005535634000000001,-0.046969880000000006,-0.0059449974,4.896,0,0
0.008224140000000001,0.011199856000000001,0.004465732,-0.033448858000000005,0.0023769426,4.897,0,0
0.011680276,0.012536976000000002,0.0021876480000000012,-0.018456838000000003,0.0094154226,4.898,0,0
0.013631638,0.012835816000000002,0.000396034,-0.003081737999999999,0.015093950600000001,4.899,0,0
0.0129931822,0.014643926,-0.0008424640000000003,0.011858502,0.020342672,4.9,0,0
0.0097623862,0.012358208,-0.0009575820000000002,0.024661902,0.02404548,4.901,0,0
0.0033107861999999992,0.002176047999999999,0.00038898399999999977,0.03446144,0.024776199999999998,4.902,0,0
-0.0043026538,-0.005802412,0.0021262798000000003,0.04053814,0.02488572,4.903,0,0
-0.0105867138,-0.010020804000000001,0.003994703800000001,0.04175352,0.02424936,4.904,0,0
-0.014637282,-0.014338872000000003,0.004834513800000001,0.04008012,0.019490818,4.905,0,0
-0.01785738,-0.015153644,0.0026704878000000003,0.036960940000000005,0.012763446000000003,4.906,0,0
-0.020787560000000004,-0.013400944000000001,-0.0005903721999999997,0.03252646000000001,0.007472456000000002,4.907,0,0
-0.02198224,-0.014584304000000001,-0.002741894,0.02797004,0.0021380640000000007,4.908,0,0
-0.02065586,-0.016156172,-0.006870556,0.023079600000000002,-0.0029839239999999998,4.909,0,0
-0.017140092,-0.015854102000000002,-0.012387210000000001,0.016304868000000004,-0.005968182000000001,4.91,0,0
-0.011394163999999998,-0.015000178000000001,-0.013448960000000001,0.008829,-0.00785699,4.911,0,0
-0.004094840000000001,-0.010350342,-0.010500882000000001,0.0031794280000000006,-0.009138638000000001,4.912,0,0
0.00213828,-0.0037830019999999997,-0.0076550360000000005,-0.0017625060000000003,-0.009631708000000001,4.913,0,0
0.006594500000000001,0.001167938,-0.0045504099999999995,-0.007284926000000001,-0.010035884000000002,4.914,0,0
0.009699932000000001,0.0038840140000000007,-0.0005819703999999999,-0.009947534000000001,-0.009269654,4.915,0,0
0.010938364,0.0030007000000000007,0.0010496496000000004,-0.00915295,-0.006441248000000001,4.916,0,0
0.010695464,-0.0016129360000000001,0.0006495764000000003,-0.0073947200000000005,-0.002333590000000001,4.917,0,0
0.010361960000000002,-0.007604596000000002,0.0004198324000000001,-0.0058611700000000015,0.002105292,4.918,0,0
0.010194320000000002,-0.011991876000000002,0.00019738640000000005,-0.004900189999999999,0.005942776,4.919,0,0
0.009376344000000002,-0.014085978,0.0007175388,-0.004741169999999999,0.008868782,4.92,0,0
0.00886234,-0.012081635800000002,0.0017167288,-0.005850586,0.00989709,4.921,0,0
0.009622196000000001,-0.0047129758000000015,0.0017990086000000001,-0.008012148,0.009024850000000001,4.922,0,0
0.009797960000000001,0.005845864200000001,0.0010334965999999998,-0.009680824000000001,0.00846769,4.923,0,0
0.008541474,0.015168944200000003,0.0006347335999999999,-0.008422016000000001,0.00889057,4.924,0,0
0.006294370000000001,0.0205598682,0.00023050319999999992,-0.004573194000000001,0.010841074,4.925,0,0
0.002097394,0.0217182,-0.00046541720000000005,-0.0008847460000000001,0.015025740000000003,4.926,0,0
-0.003926366000000001,0.017614316,0.0002685302000000001,-0.0036786220000000003,0.019015280000000002,4.927,0,0
-0.009751806000000002,0.008638256,0.0015479562000000001,-0.013325502000000001,0.021090420000000002,4.928,0,0
-0.013950320000000002,-0.001722444,0.0019595992,-0.02331031,0.021957280000000003,4.929,0,0
-0.017127040000000003,-0.008053394,0.0030665616,-0.033145592,0.019571052000000002,4.93,0,0
-0.02011914,-0.010196542000000001,0.004823668000000001,-0.0421867,0.011380912000000002,4.931,0,0
-0.023490320000000002,-0.012020478000000001,0.005816212,-0.04272028,-0.00016608799999999826,4.932,0,0
-0.026785700000000003,-0.012950838,0.0070735960000000014,-0.0351949,-0.012727388000000001,4.933,0,0
-0.02744422,-0.011969238,0.008597488,-0.02951814,-0.026226728,4.934,0,0
-0.024305378,-0.011134746,0.008392358,-0.025571379999999998,-0.03709142,4.935,0,0
-0.017473864,-0.010163176199999999,0.007197108000000001,-0.02137942,-0.041796980000000004,4.936,0,0
-0.0046600240000000005,-0.0057727322,0.004535054,-0.017771954000000003,-0.04057112,4.937,0,0
0.011490396,0.0038571278000000004,-0.000546426,-0.009080953999999999,-0.03432824000000001,4.938,0,0
0.023885996,0.0171619678,-0.004672078,0.008787706000000003,-0.024185465000000003,4.939,0,0
0.031794714,0.0313698058,-0.006664986000000001,0.03270226600000001,-0.012472637,4.94,0,0
0.03444576,0.043352664,-0.007167471200000001,0.058719426000000005,-0.0021179169999999995,4.941,0,0
0.029235858,0.05188614,-0.006148604400000001,0.08113234,0.005216683000000001,4.942,0,0
0.019551286,0.05393338,-0.0042508104,0.09280592000000001,0.009744683,4.943,0,0
0.010192108,0.047101599999999993,-0.0019591104,0.09434346000000002,0.012438988000000002,4.944,0,0
0.0016372099999999996,0.030490000000000003,-8.863999999998836e-07,0.08878932,0.013478240000000002,4.945,0,0
-0.00515841,0.0016192199999999976,0.0012931208000000003,0.0760434,0.01345098,4.946,0,0
-0.008802008,-0.024848300000000004,0.0026880080000000004,0.05901834,0.01321632,4.947,0,0
-0.010413976000000002,-0.037001360000000004,0.004797562000000001,0.042946700000000004,0.013603200000000001,4.948,0,0
-0.009170118,-0.042711664,0.004796142,0.027289088000000003,0.01609096,4.949,0,0
-0.0050691799999999995,-0.041071036000000005,0.0016053319999999997,0.010107248000000001,0.02017814,4.95,0,0
1.919999999999873e-06,-0.023240234,-0.0016747959999999997,-0.0068461519999999994,0.02282906,4.951,0,0
0.005024256,-0.0034429939999999996,-0.004251562,-0.022828752,0.021322978,4.952,0,0
0.009082224,0.0021934220000000004,-0.006283190000000001,-0.038132852,0.015379578000000001,4.953,0,0
0.011150364000000001,0.003310686,-0.005835410000000001,-0.05294442,0.005650078,4.954,0,0
0.011499724000000001,0.0033450880000000004,-0.00311138,-0.06533317999999999,-0.006254422000000001,4.955,0,0
0.012308924000000002,-0.0028168539999999997,-0.0016794819999999997,-0.07264936,-0.016937682000000003,4.956,0,0
0.012673928000000001,-0.013363414,-0.0020345140000000003,-0.07458532000000001,-0.02443314,4.957,0,0
0.012388074,-0.021349890000000003,-0.002903704,-0.07165624,-0.0288389,4.958,0,0
0.012183594,-0.02502725,-0.004755124,-0.062017760000000005,-0.028989380000000002,4.959,0,0
0.009846638000000001,-0.025996960000000003,-0.0069195,-0.045579310000000005,-0.023948648000000003,4.96,0,0
0.005472436000000001,-0.021036884000000002,-0.007428517999999999,-0.02591197,-0.015798528,4.961,0,0
0.0015130659999999995,-0.012078734,-0.005819973599999999,-0.005878729999999999,-0.0060619079999999995,4.962,0,0
-0.0020754080000000004,-0.0052692772,-0.0023288955999999994,0.01214191,0.004352052,4.963,0,0
-0.007490148,-0.0025991092,0.0026264044000000007,0.02633399,0.012308312000000002,4.964,0,0
-0.013562952000000001,-0.0017914352000000001,0.007793130400000001,0.0345173,0.015213820000000001,4.965,0,0
-0.019579570000000004,-0.0024202772000000003,0.0111101904,0.03735464,0.014367178000000001,4.966,0,0
-0.02617754,-0.0030999712000000005,0.010078563999999998,0.03702884,0.012587462,4.967,0,0
-0.032115960000000006,-0.001501674,0.005503815999999999,0.0343418,0.011456822,4.968,0,0
-0.036012180000000005,0.0015332940000000001,0.0008496399999999996,0.028281947999999998,0.011155282,4.969,0,0
-0.03592158,0.004584390000000001,-0.0015518640000000005,0.017716067999999998,0.011410742000000001,4.97,0,0
-0.03131844,0.006674670000000001,-0.000529084,0.005315348000000001,0.012672244000000003,4.971,0,0
-0.023220442,0.005973119000000001,0.0065147,-0.006852352,0.012888122000000002,4.972,0,0
-0.012960322,0.0029142150000000004,0.01550812,-0.018977992,0.009511332,4.973,0,0
-0.0013360020000000002,0.00013876100000000027,0.018493719999999998,-0.029602780000000002,0.0027332720000000006,4.974,0,0
0.010218958,-0.000820351,0.015202903999999998,-0.035329360000000004,-0.006768248000000001,4.975,0,0
0.019761898,-0.0012031189999999999,0.007419423999999999,-0.0364205,-0.017123888,4.976,0,0
0.026730959999999998,-0.002217802,-0.002378296000000001,-0.0340837,-0.025701230000000002,4.977,0,0
0.030159080000000005,-0.000293284,-0.010901256000000002,-0.027733918000000003,-0.03121116,4.978,0,0
0.029354460000000006,0.0035738740000000003,-0.0152294,-0.018567387000000005,-0.03242872,4.979,0,0
0.025189840000000005,0.006212476000000001,-0.014773844000000001,-0.009341259000000001,-0.029101500000000002,4.98,0,0
0.019321758000000005,0.01188415,-0.012942924,-0.001211939,-0.02430612,4.981,0,0
0.01319298,0.024680728000000002,-0.012245604,0.006974021,-0.01948452,4.982,0,0
0.008140464,0.039807800000000004,-0.012792364,0.012705379,-0.014439360000000002,4.983,0,0
0.0044183092,0.05257156,-0.016053844,0.014521860000000001,-0.010725714,4.984,0,0
0.0011231092,0.06285758000000001,-0.019946000000000002,0.015402151999999999,-0.008008860000000001,4.985,0,0
-0.0014073628000000002,0.06580708,-0.01766254,0.015336032000000001,-0.004059508000000001,4.986,0,0
-0.0026137668000000003,0.055989354,-0.010180660000000001,0.013590672000000002,0.001342712,4.987,0,0
-0.0037029968,0.025807174000000002,-0.0010925200000000005,0.013179632,0.006843992,4.988,0,0
-0.004874876,-0.021582746,0.0147559,0.015219360000000001,0.012205726,4.989,0,0
-0.0039269354000000005,-0.061531006,0.03667808,0.01663088,0.016963012000000003,4.99,0,0
-0.0011485354000000001,-0.080816286,0.05304998,0.01775742,0.019100060000000002,4.991,0,0
0.0009138505999999999,-0.08508648,0.057544340000000006,0.019507220000000002,0.018135320000000003,4.992,0,0
0.0015667566,-0.072163712,0.04869246000000001,0.019842580000000002,0.016388259999999998,4.993,0,0
0.0014668665999999996,-0.040345073200000005,0.027658540000000002,0.01865466,0.015284599999999999,4.994,0,0
0.0004905360000000002,-0.008654673200000003,0.0014706799999999985,0.016625504,0.015017440000000002,4.995,0,0
-0.0013663119999999997,0.0071980268,-0.020610780000000002,0.012124268,0.01658016,4.996,0,0
-0.003175124,0.013373866799999998,-0.03269608,0.004172328000000001,0.01992686,4.997,0,0
-0.003408724,0.0189282388,-0.03319698,-0.003932091999999999,0.02285882,4.998,0,0
-0.001186552,0.022351580000000003,-0.026472560000000003,-0.010742112,0.02332996,4.999,0,0
0.0010717020000000001,0.018668926000000002,-0.02069398,-0.016360196,0.020990846,5.0,0,0
0.002248836,0.006466426,-0.01781144,-0.02042522,0.0158604922,5.001,0,0
0.0030437500000000004,-0.008817094000000001,-0.015157438000000002,-0.02333748,0.0093136122,5.002,0,0
0.0023918219999999996,-0.018451574000000002,-0.007605878000000001,-0.0247805,0.004232682800000001,5.003,0,0
-0.00027935199999999986,-0.023275426,0.004628762000000001,-0.02407768,0.0012642008000000003,5.004,0,0
-0.004177316,-0.025509928,0.013438942000000002,-0.01915819,-1.2919999999993093e-07,5.005,0,0
-0.008565488000000001,-0.018115138000000003,0.015383498000000002,-0.007218050000000002,0.0018938106000000003,5.006,0,0
-0.012900334000000003,-0.004832386,0.011592896000000002,0.01176283,0.0064636706000000006,5.007,0,0
-0.015926506,0.004106014000000001,0.0034883560000000006,0.03224171000000001,0.00967106,5.008,0,0
-0.01696748,0.013276946000000001,-0.006152866,0.04779547000000001,0.00832446,5.009,0,0
-0.015049906000000004,0.024587582000000004,-0.01196824,0.05408464,0.0029712839999999994,5.01,0,0
-0.010546142000000001,0.033399872000000004,-0.010530856400000002,0.048796602,-0.003800902,5.011,0,0
-0.004875344000000001,0.04451958,-0.0036245564000000003,0.031064942000000005,-0.011819142000000001,5.012,0,0
0.0020288359999999996,0.057821880000000006,0.0028117236,0.004732482000000003,-0.019259742,5.013,0,0
0.009193856,0.06245632,0.0062968156,-0.021331238000000002,-0.020944119999999997,5.014,0,0
0.015156022000000002,0.04989978,0.008864271600000001,-0.042879718,-0.01863964,5.015,0,0
0.020170538000000002,0.028136639999999997,0.007982376,-0.06031108,-0.017273780000000002,5.016,0,0
0.024295960000000005,0.011336299999999999,0.003014896,-0.06967416000000001,-0.01687066,5.017,0,0
0.02446058,-0.016070960000000002,-0.0014577200000000005,-0.0649212,-0.01849264,5.018,0,0
0.019158024000000003,-0.05089866,-0.005243108,-0.04788996,-0.0217723,5.019,0,0
0.010412184,-0.06060778,-0.011853770000000001,-0.025869,-0.022912240000000004,5.02,0,0
-0.00012103600000000058,-0.05268208,-0.021727974000000004,-0.0028201400000000022,-0.021349100000000003,5.021,0,0
-0.011379036000000002,-0.042633199999999996,-0.032243754000000006,0.01773994,-0.017350553200000004,5.022,0,0
-0.020721576,-0.015086899999999993,-0.040309498000000006,0.028074139999999997,-0.0097289972,5.023,0,0
-0.02482726,0.017128580000000004,-0.04321396000000001,0.02785424,8.750279999999912e-05,5.024,0,0
-0.02387642,0.021985760000000007,-0.03527832,0.024859060000000002,0.0092564228,5.025,0,0
-0.020837166,0.016344500000000005,-0.015523720000000003,0.022537100000000004,0.0174606028,5.026,0,0
-0.017172786,0.008358418000000006,0.00958416,0.02137928,0.023517316,5.027,0,0
-0.012087552000000001,-0.012934702,0.036371020000000004,0.023757220000000003,0.02527746,5.028,0,0
-0.005468782,-0.029022922,0.05620638,0.027846160000000002,0.023362119999999997,5.029,0,0
0.0012730379999999998,-0.028962062,0.05946335999999999,0.030499380000000003,0.019087689999999997,5.03,0,0
