bandpass 1,bandpass 2,bandpass 3,bandpass 4,bandpass 5,time,onset,mark
0.0035184100000000005,-0.0014146167999999999,-0.0028077560000000002,0.0026215640000000003,-0.000699819,3.647,0,0
0.004525152000000001,-0.0033893188,-0.0033121620000000004,0.003041134,-0.000378949,3.648,0,0
0.005707138000000001,-0.0041559688,-0.0032922451800000006,0.0035431940000000004,-0.00031591039999999995,3.649,0,0
0.006264292000000001,-0.0032640084,-0.00361677778,0.0021632576000000002,5.778780000000001e-05,3.65,0,0
0.0044727280000000005,-0.0036068016000000004,-0.00233602806,0.0005680975999999999,0.0005191512,3.651,0,0
0.001597352,-0.0030424488,-0.0010289700600000001,-0.00045334239999999994,0.0008420566000000001,3.652,0,0
-0.0005984239999999997,-0.0014130867999999999,-0.0014976560600000002,-0.0021483544,0.0009679126,3.653,0,0
-0.00292812,-0.0014495168,-0.00225178288,-0.0041625424,0.0009754168,3.654,0,0
-0.004140648,-0.0017775512,-0.0028549182800000003,-0.00493626,0.0009858256,3.655,0,0
-0.0024946540000000002,-0.001354136,-0.003377494,-0.0050679900000000005,0.0008104245999999999,3.656,0,0
-0.00043957799999999993,-0.0014813348,-0.0030829860000000002,-0.005185390000000001,0.0003610222000000001,3.657,0,0
0.00035874999999999986,-0.0012471081999999999,-0.0022048220000000004,-0.0036212100000000006,-0.0005143278,3.658,0,0
0.0004544340000000001,0.0002517818000000001,-0.001740964,-0.00108568,-0.0011890606000000002,3.659,0,0
-0.0005229499999999999,0.0008069858000000001,-0.001264362,0.00036043999999999996,-0.0013918502,3.66,0,0
-0.002873694,0.00021619460000000005,-4.3097999999999986e-05,0.0016885120000000003,-0.0013287474,3.661,0,0
-0.004913428,0.0004221962,0.001316798,0.003451532,-0.0010307502,3.662,0,0
-0.005463272,0.0005891394000000002,0.002574028,0.0038464180000000008,-0.0005284500000000001,3.663,0,0
-0.004589650000000001,-0.0003940846,0.004116656,0.0027610232,0.00026887480000000006,3.664,0,0
-0.0016647660000000002,-0.0002723426,0.005350624000000001,0.0024468062000000002,0.0005817454,3.665,0,0
0.002034352,0.0017296314,0.005042704,0.0022922682000000006,0.0008702902000000001,3.666,0,0
0.0045164540000000005,0.0026831878000000003,0.0035341559999999997,0.0007748462000000002,0.0010948530000000002,3.667,0,0
0.006120418,0.0026566925999999998,0.0020598860000000004,-0.00048221579999999987,0.0009876946000000003,3.668,0,0
0.006874076,0.0030666090000000005,0.0008253676000000001,-0.00040998977999999995,0.0009950038000000002,3.669,0,0
0.0049410520000000005,0.001986537,-0.0005119164,-0.00129985478,0.0008041650000000001,3.67,0,0
0.00120037,-0.0009079330000000001,-0.0017199164000000003,-0.0031022947799999997,0.0004433036000000001,3.671,0,0
-0.001165492,-0.0027745950000000004,-0.0022480204,-0.00320274678,-3.4740399999999956e-05,3.672,0,0
-0.0032529020000000002,-0.0037312596000000004,-0.0027171084,-0.0031855327800000004,-0.00021318419999999993,3.673,0,0
-0.005658252000000001,-0.004776298,-0.003600216,-0.0037502560000000004,-0.0004480192,3.674,0,0
-0.006352156,-0.00455495,-0.003433716,-0.002338244,-0.0009326884,3.675,0,0
-0.0057514,-0.0031699014000000003,-0.0021804399999999996,5.846200000000001e-05,-0.001229433,3.676,0,0
-0.004397768,-0.0019477714000000002,-0.00103473,0.0012360700000000001,-0.001276477,3.677,0,0
-0.0017678400000000003,-0.00039311140000000005,0.0002943180000000001,0.00284256,-0.001376129,3.678,0,0
0.0009279,0.0022419626000000003,0.002327062,0.004551330000000001,-0.0015293330000000001,3.679,1,1
0.0022660840000000002,0.0042891686,0.003671156,0.004251938,-0.0012458568,3.68,0,0
0.0027195346,0.005516858,0.004118578,0.0032628502000000004,-0.0010147766,3.681,0,0
0.0022543100000000003,0.007214484,0.005297684,0.0028909516,-0.0007750726,3.682,0,0
0.0009391648,0.00760072,0.006011926,0.0018396296000000004,-0.00015463859999999995,3.683,0,0
-0.0003093412000000001,0.004755792,0.0054811320000000005,-8.307440000000007e-05,0.0005432284000000001,3.684,0,0
-0.0010077752,0.0013411479999999997,0.00341715,-0.0010112364000000001,0.000829208,3.685,0,0
-0.0010083962,-0.0013650700000000003,-0.00027784399999999975,-0.0016712466000000001,0.0011403858000000001,3.686,0,0
-0.0012238376000000002,-0.005076408,-0.003091404,-0.003423812,0.0018037218000000002,3.687,0,0
-0.0017004424,-0.007567628000000001,-0.004086264,-0.004986076,0.0016843532,3.688,0,0
-0.0008698724000000002,-0.006875506,-0.0046908534,-0.005192062000000001,0.0011556212,3.689,0,0
0.0007529956,-0.004939365,-0.0041872554,-0.005627162000000001,0.0010058334,3.69,0,0
0.0020007460000000003,-0.003205709,-0.0016119394000000003,-0.005712924,0.0004081394,3.691,0,0
0.003418048,-0.0009325330000000003,1.7986599999999934e-05,-0.0033382140000000004,-0.0006596666000000001,3.692,0,0
0.004906524,0.001136579,-0.00014816420000000007,-0.0004794160000000003,-0.0012043000000000002,3.693,0,0
0.004941682,0.0016263996,-9.91802e-05,0.001507812,-0.001458778,3.694,0,0
0.0035434586000000004,0.0017760026,-0.00011353020000000005,0.004223476,-0.0016481898000000003,3.695,0,0
0.0021160886,0.0020442586000000004,-0.0006405242,0.006916366,-0.00124413134,3.696,0,0
0.0006736865999999999,0.0016498648,-0.000858609568,0.0070557400000000004,-0.00040628933999999994,3.697,0,0
-0.0006818754,0.0016126228,-0.0005253387679999999,0.0066394620000000005,9.86480600000001e-05,3.698,0,0
-0.0013359764000000001,0.0027525222000000004,-6.632736800000008e-05,0.0069367380000000005,0.00010954406000000008,3.699,0,0
-0.001710451,0.0034557422000000004,0.0009358826319999999,0.005475952,0.0004173300600000001,3.7,0,0
-0.002391729,0.0035382882,0.002090084632,0.0032854916000000004,0.0006599636,3.701,0,0
-0.002661941,0.0039333860000000005,0.0024257440000000005,0.0022435478,0.0006932336000000001,3.702,0,0
-0.002621941,0.00343944,0.0021780846,0.0005004057999999999,0.0010662202000000002,3.703,0,0
-0.002821136,0.00136872,0.0012477026000000003,-0.0023987802,0.0013831308,3.704,0,0
-0.0022516327999999998,-0.0009764960000000002,-0.00012793340000000002,-0.0041442722,0.0012668766,3.705,0,0
-0.0013128188000000004,-0.0028348320000000002,-0.0011040394,-0.0048104098,0.0007998626,3.706,0,0
-0.0011290528,-0.004243686,-0.0019341314,-0.005346526000000001,0.00024109779999999996,3.707,0,0
-0.0010592888,-0.0044781866000000005,-0.0023889700000000002,-0.004486404,-0.0006487602,3.708,0,0
-0.0011560128,-0.0030471145999999994,-0.0018021280000000003,-0.002053604,-0.0013875848000000001,3.709,0,0
-0.0019761400000000004,-0.0009437825999999994,-0.0009655864000000001,-6.016800000000042e-05,-0.0013254535999999999,3.71,0,0
-0.0021014095999999996,0.0006552954,9.794160000000014e-05,0.001354184,-0.0011488506,3.711,0,0
-0.0005374976,0.0016957202000000002,0.0013976156000000003,0.003055876,-0.0010909732000000001,3.712,0,0
0.0014364204000000002,0.0020210488,0.0009268316000000002,0.003909098,-0.0004762371999999999,3.713,0,0
0.0025826684000000003,0.0012184448000000002,-0.0005985084,0.003583606,0.0001741016,3.714,0,0
0.0031770740000000002,-0.00024118320000000003,-0.0006483794,0.0033886100000000002,4.566040000000001e-05,3.715,0,0
0.003255129,-0.0010754152000000002,-0.0005277214,0.0031992639999999994,0.00029159940000000005,3.716,0,0
0.002054034,-0.001260904,-0.0012872316,0.0019679072,0.0009718688000000001,3.717,0,0
0.0003732915999999999,-0.001416822,-0.00033901359999999987,0.0004935552000000002,0.0009849948000000002,3.718,0,0
-0.000395214,-0.00101632,0.0016596364,-0.0005200248,0.000998074,3.719,0,0
-0.00047922960000000006,-0.001480018,0.0015190390000000002,-0.0022027888,0.001433374,3.72,0,0
-0.00017071700000000003,-0.002760976,0.00012873699999999986,-0.0043803608,0.001559222,3.721,0,0
0.000931938,-0.0023636280000000004,-0.0010712008,-0.005436696,0.00095704976,3.722,0,0
0.0025072664000000003,-0.0014338700000000003,-0.0023944488,-0.005819510000000001,0.00048785976,3.723,0,0
0.00409091,-0.0012713879999999998,-0.0037903988000000002,-0.006246940000000001,0.00032034716,3.724,0,0
0.005368024000000001,-0.00011266399999999994,-0.0038459909999999996,-0.0047931912000000005,-0.00051772884,3.725,0,0
0.0053000464,0.0016793450000000003,-0.0024767989999999996,-0.0019062512000000008,-0.00122640484,3.726,0,0
0.0034133444000000006,0.0016917450000000001,-0.0008681589999999999,0.00022904679999999973,-0.0015464806,3.727,0,0
0.0005475083999999999,0.001126439,0.0006653290000000001,0.0023720588,-0.0018556666,3.728,0,0
-0.0018789256,0.0015403930000000001,0.0014828024,0.0049338888,-0.0017839202000000003,3.729,0,0
-0.0038587436,0.002059335,0.0018739654000000001,0.00623703,-0.0011568726,3.73,0,0
-0.004937414000000001,0.0021408762,0.0018281434,0.0059555680000000005,-0.0003948826,3.731,0,0
-0.003684824,0.0024635102,0.001551157,0.005677466000000001,0.00019835540000000013,3.732,0,0
-0.00232516764,0.0025791442000000003,0.001751455,0.004520171600000001,0.0011278854,3.733,0,0
-0.00221943564,0.0012512622,0.0022445976,0.0018759956000000005,0.0017144036,3.734,0,0
-0.0014003780400000001,0.0005734962,0.0026840296000000003,-0.00039726840000000013,0.0017159346000000001,3.735,0,0
-0.00074945004,0.0005624382,0.0028979336000000003,-0.0021098544,0.0014390796,3.736,0,0
-0.00194905204,-0.0009071418,0.0026445676,-0.0041488264000000006,0.0012596635999999998,3.737,0,0
-0.0030179164,-0.0024168058,0.0011837556000000005,-0.005477432,0.0009625112000000001,3.738,0,0
-0.0030654204,-0.0024088878,-0.0008676243999999998,-0.005280548,0.00011910319999999997,3.739,0,0
-0.0037754380000000003,-0.002348403,-0.0029154164,-0.005381368,-0.0003733634,3.74,0,0
-0.00445943,-0.0027494052,-0.0047204584,-0.005195492,-0.0006073874000000001,3.741,0,0
-0.0037214144,-0.00196259,-0.004854098,-0.00312582,-0.0010663954,3.742,0,0
-0.0019638744,-0.000663908,-0.0037330460000000007,-0.0006221780000000001,-0.001539219,3.743,0,0
-0.0004442484000000001,-0.00041886200000000004,-0.0024327294,0.0012640620000000003,-0.0012997652,3.744,0,0
0.0008446216000000001,-0.0005369288,-0.0006256653999999999,0.0035000020000000003,-0.000925803,3.745,0,0
0.0028746476,7.543119999999995e-05,0.0012909706000000002,0.005362844,-0.0007676712,3.746,0,0
0.004640478,0.00050877,0.0020573726000000002,0.0053948120000000006,9.051079999999997e-05,3.747,0,0
0.0054210280000000005,0.0009184,0.0021568606000000002,0.004901956,0.0008220448000000001,3.748,0,0
0.005878408000000001,0.001935866,0.0028674660000000004,0.0046449460000000005,0.0006856550000000001,3.749,0,0
0.006011774,0.0024033960000000004,0.00305745,0.0032759522,0.0007534824,3.75,0,0
0.005136582,0.0020755228,0.002719628,0.0009555121999999998,0.0010699816,3.751,0,0
0.0034637932000000007,0.0016549724000000001,0.002431446,-0.0006432938000000001,0.0005384634000000001,3.752,0,0
0.0017166132000000004,0.0010470438000000002,0.0017764919999999997,-0.0026182778000000003,0.00033584460000000006,3.753,0,0
-4.5008799999999975e-05,0.0001847552,0.0007540199999999999,-0.0052722558,0.0008686606,3.754,0,0
-0.0016052788000000002,-0.00033600080000000004,-0.0004847800000000001,-0.006719316000000001,0.0004233710000000001,3.755,0,0
-0.0031102668,-0.0006090656,-0.0010432804,-0.006854326,-0.00034123300000000003,3.756,0,0
-0.004674338,-0.0008773592,-0.0008138663999999999,-0.006777826000000001,-0.0005439008,3.757,0,0
-0.00568223,-0.0012475506,9.175160000000015e-05,-0.005822460000000001,-0.00124747,3.758,0,0
-0.005907498000000001,-0.0012119750000000001,0.0011132616000000001,-0.0032239500000000006,-0.002149376,3.759,0,0
-0.006119388000000001,-0.0007709078,0.0023093916000000003,-0.00072954,-0.0021131319999999998,3.76,0,0
-0.006403448,-0.0004168796,0.0032118100000000003,0.001282878,-0.0017455648000000003,3.761,0,0
-0.004286516,0.0010633724,0.0013010580000000003,0.003545314,-0.0016270456000000001,3.762,0,0
0.00028868600000000024,0.0038717184000000003,-0.002089202,0.005389002,-0.0011826202000000002,3.763,0,0
0.0036226640000000003,0.0055371934,-0.0026540979999999997,0.005392274000000001,-0.0005003690000000001,3.764,0,0
0.00620182,0.0064589302,-0.0013964899999999996,0.004946890000000001,-0.00019232878,3.765,0,0
0.009232226000000001,0.006902228000000001,-0.0007407439999999996,0.00496264,4.124561999999999e-05,3.766,0,0
0.009176094000000001,0.0033349040000000005,0.0015547500000000006,0.0036621406,0.00066697642,3.767,0,0
0.005631854,-0.002185056,0.003966694000000001,0.0018968585999999997,0.00099644102,3.768,0,0
0.002594166,-0.0055843,0.00286036,0.0007365105999999998,0.00117046182,3.769,0,0
0.000816104,-0.008352976,-0.0005353080000000002,-0.0008919494000000002,0.0018124655999999999,3.77,0,0
-0.0009680060000000002,-0.010277622,-0.00409342,-0.0030810174000000003,0.002085982,3.771,0,0
-0.002303896,-0.008672814000000001,-0.00650047,-0.004102626,0.0015157664000000001,3.772,0,0
-0.0031474780000000004,-0.006003622,-0.006921918000000001,-0.00443055,0.0010585764000000002,3.773,0,0
-0.0038807660000000003,-0.004698086000000001,-0.0061773259999999995,-0.004890192,0.0007237042000000001,3.774,0,0
-0.0047878420000000005,-0.003427976,-0.004812999400000001,-0.003705588,-0.0004675018,3.775,0,0
-0.005653034,-0.0021693128000000003,-0.0024898114,-0.0011172599999999997,-0.0012927638,3.776,0,0
-0.0054093679999999995,-0.0013158308,-0.0004020194,0.0007426120000000002,-0.0009790522,3.777,0,0
-0.0032838140000000004,0.0005139291999999998,0.0010289986000000001,0.002416896,-0.0006146046000000001,3.778,0,0
-0.00024601600000000016,0.0032385892,0.0028467846,0.004863162000000001,-0.0002903004,3.779,0,0
0.001880436,0.004584171200000001,0.005055172,0.005847972000000001,0.000436809,3.78,0,0
0.004216168,0.005801496,0.006273760000000001,0.004944502,0.0006371692000000001,3.781,0,0
0.006938745999999999,0.007402087999999999,0.006791162,0.004494789999999999,0.00029036000000000014,3.782,0,0
0.006860178,0.006468982000000001,0.006592948,0.0036466280000000003,0.0006344844,3.783,0,0
0.004808539999999999,0.0037988660000000006,0.003298376000000001,0.001063,0.0009815824,3.784,0,0
0.0037380719999999994,0.0019138819999999996,-0.0008997639999999999,-0.001167178,0.0008715482,3.785,0,0
0.0017039440000000002,-0.0008735360000000003,-0.00277237,-0.0025175980000000002,0.00104543328,3.786,0,0
-0.0016175920000000002,-0.004062194,-0.004335292,-0.004723462,0.00129195568,3.787,0,0
-0.002916908,-0.004501078,-0.005946006,-0.006611172,0.0009279486800000002,3.788,0,0
-0.0025873920000000004,-0.0032804400000000004,-0.005359890000000001,-0.006637152000000001,0.00028378028000000004,3.789,0,0
-0.0025848280000000004,-0.001412664,-0.004202974,-0.0063392380000000005,-5.4418919999999935e-05,3.79,0,0
-0.0024101060000000004,0.001164774,-0.0039611818,-0.006004188000000001,-0.0005223382000000001,3.791,0,0
-0.00097086,0.003836378,-0.0029308238000000006,-0.0037761120000000003,-0.0013804854,3.792,0,0
0.000648602,0.005037146,-0.0011847398,-0.0006373820000000001,-0.0018839524,3.793,0,0
0.0010612260000000002,0.004427017200000001,0.0006213881999999998,0.0014141979999999998,-0.001998914,3.794,0,0
0.0016420900000000001,0.0031200792000000005,0.0027086862,0.00377703,-0.00219651,3.795,0,0
0.0031683860000000005,0.0012217232,0.0043994080000000005,0.006590166,-0.002187128,3.796,0,0
0.0031618880000000003,-0.0009571908000000001,0.005181774000000001,0.007399418000000001,-0.0015150986,3.797,0,0
0.0019602076,-0.0023001932000000004,0.005314668000000001,0.0069312639999999995,-0.0009198046000000001,3.798,0,0
0.0022112236,-0.0019881544000000004,0.005273266,0.006848160000000002,-0.0007380087999999999,3.799,0,0
0.0024934316,-0.0012631684000000002,0.004980316,0.005586306000000001,-0.00010231539999999993,3.8,0,0
0.0017003446,-0.0004881274000000002,0.004297258,0.003104272,0.0004885154,3.801,0,0
0.0010891786,0.00013481659999999994,0.003634422,0.0013225619999999998,0.0005660362000000001,3.802,0,0
-0.00013920499999999988,-0.000281673,0.0029795644000000002,-0.0003043300000000001,0.0005863362000000001,3.803,0,0
-0.002980085,-0.0012536090000000001,0.0010460184,-0.0026399120000000003,0.0005853584,3.804,0,0
-0.005709897,-0.001927129,-0.0022941856000000004,-0.004266772,0.00036883520000000004,3.805,0,0
-0.007005694000000001,-0.002215482,-0.004905573600000001,-0.004573476,0.00021571840000000002,3.806,0,0
-0.007277464000000001,-0.0028339100000000002,-0.006518431600000001,-0.004949299999999999,0.0001522662,3.807,0,0
-0.0062568354,-0.0031957260000000003,-0.0072729199999999996,-0.004951224000000001,-9.697179999999999e-05,3.808,0,0
-0.0036080514,-0.0028279480000000003,-0.0058606940000000005,-0.00331319,-0.00020995920000000003,3.809,0,0
-0.0010620294,-0.0024912274000000005,-0.003371488,-0.0013946080000000003,-9.140580000000001e-05,3.81,0,0
0.0005455286,-0.0021300046000000007,-0.0017346018000000002,-0.00017408600000000027,4.1201399999999975e-05,3.811,0,0
0.0018901586,-0.0007110585999999999,-0.0001316758000000001,0.00210768,0.00022795459999999998,3.812,0,0
0.0024901180000000004,0.0009473134000000002,0.0016582742,0.004319278,0.0005451406,3.813,0,0
0.0023824780000000004,0.0017018654000000002,0.0022855622,0.0042377660000000004,0.00089177,3.814,0,0
0.0025546600000000003,0.0027457028000000003,0.0025432462,0.003939234000000001,0.0009044132,3.815,0,0
0.00267893,0.003759318,0.003088602,0.0041358820000000004,0.0009677990000000001,3.816,0,0
0.0018068986000000001,0.0034223307999999997,0.0024720658,0.002457552,0.0015857318,3.817,0,0
0.0008704285999999999,0.0028203828,0.0012505258,-1.077199999999993e-05,0.0020409618000000003,3.818,0,0
0.00031894439999999985,0.0025901808,0.0009763218000000001,-0.000990202,0.0022952798,3.819,0,0
-0.0006444176,0.0013380288,0.0003990398,-0.002946,0.002633755,3.82,0,0
-0.0016680736000000002,-0.0003892492000000001,-0.0010955662,-0.005737972,0.0026828840000000004,3.821,0,0
-0.0017864142000000001,-0.0011633760000000003,-0.0019353900000000002,-0.00664756,0.001886058,3.822,0,0
-0.001256207,-0.0015849924,-0.002449128,-0.006851686,0.00112434618,3.823,0,0
-0.0012578102000000001,-0.002089538,-0.0035918800000000004,-0.006969506,0.00073295338,3.824,0,0
-0.0009434522000000002,-0.0019248224,-0.003904328,-0.0050469392,-0.00039773661999999995,3.825,0,0
0.00018583579999999992,-0.0008043944000000001,-0.0030308244000000002,-0.0017633052000000005,-0.0011923726199999998,3.826,0,0
0.0004923406,0.00022542760000000004,-0.0021337234000000003,0.0004229507999999997,-0.00107789322,3.827,0,0
0.0005438754,0.0007062300000000001,-0.0011839034000000002,0.0026066447999999994,-0.0013387053999999998,3.828,0,0
0.0013844048,0.0014642816000000002,0.0005136005999999999,0.0053345288,-0.0017815425999999999,3.829,0,0
0.0017623008000000001,0.002437984,0.0023110406,0.006667406000000001,-0.0013002266,3.83,0,0
0.0016735288000000001,0.002721718,0.003315191,0.006476976,-0.0009133232,3.831,0,0
0.0024203600000000003,0.002789892,0.004270194,0.00657431,-0.0009607126,3.832,0,0
0.0028469280000000003,0.0031918579999999997,0.005031880000000001,0.006408046,-0.0003931466,3.833,0,0
0.0021448876,0.0029130500000000004,0.004913870000000001,0.004389018000000001,0.00045126340000000006,3.834,0,0
0.0017607316,0.0021355608,0.0040209500000000006,0.0024253820000000002,0.0008897234000000001,3.835,0,0
0.0013210710000000003,0.0014677954,0.0028237960000000004,0.0011662719999999999,0.0010718415600000002,3.836,0,0
-0.00011078299999999993,-0.00017148459999999995,0.0008268959999999999,-0.0014399120000000002,0.00136896356,3.837,0,0
-0.0019206890000000002,-0.0024295526,-0.0013659120000000004,-0.004176532,0.0009340761600000001,3.838,0,0
-0.0030758166,-0.0038593706,-0.0022228264000000004,-0.005144446,-0.0003522678400000001,3.839,0,0
-0.0041850546,-0.0049714134,-0.0036546604000000007,-0.005958126000000001,-0.00120989584,3.84,0,0
-0.005225698,-0.005871194,-0.006025274400000001,-0.006683502000000001,-0.0018876274000000004,3.841,0,0
-0.0044468482,-0.004972114,-0.0059631804,-0.004979644000000001,-0.0030353354000000003,3.842,0,0
-0.0024278162000000002,-0.0030303939999999996,-0.0037449544000000006,-0.0022158920000000006,-0.0034608720000000003,3.843,0,0
-0.0007059661999999999,-0.0019129579999999995,-0.0025308960000000004,-0.00039052800000000045,-0.0029644199999999997,3.844,0,0
0.0007303518000000002,-0.001172202,-0.0005062040000000004,0.002320458,-0.002589166,3.845,0,0
0.0016246028,-0.000627364,0.0028711220000000003,0.005048554,-0.0023070380000000004,3.846,0,0
0.0011305830000000001,-0.000765076,0.003240756,0.005459042,-0.0016383164,3.847,0,0
0.000583161,-0.0006592200000000001,0.0009799619999999998,0.0050071,-0.000920001,3.848,0,0
0.0009237329999999999,0.000506966,-0.0005414599999999999,0.004787522,-0.00043107019999999994,3.849,0,0
0.001517061,0.002044624,-0.0010111739999999999,0.0033143,0.00047418580000000007,3.85,0,0
0.0021377640000000003,0.003681286,-0.0012586540000000001,0.000905396,0.0014041798,3.851,0,0
0.0023929146000000005,0.004922296,-9.016399999999989e-05,-0.0004102700000000001,0.0015925674000000002,3.852,0,0
0.0019862258,0.0050674760000000004,0.001876642,-0.001895388,0.001627398,3.853,0,0
0.0006899478000000003,0.0043971999999999995,0.001973806,-0.0043433280000000005,0.0017827392000000003,3.854,0,0
-0.0010227162,0.003183194,0.0007753399999999998,-0.005913700000000001,0.0011829744,3.855,0,0
-0.0024896242000000002,0.0018976728000000003,0.00010929,-0.006272034000000001,0.0002453663999999999,3.856,0,0
-0.0034690108,0.0012614380000000001,-0.00053373808,-0.006508712000000001,-0.00012929880000000013,3.857,0,0
-0.0034039802,0.001801642,-0.00135634408,-0.00578104,-0.0005886108000000001,3.858,0,0
-0.0024568902,0.002932458,-0.00038842407999999974,-0.0030553460000000005,-0.0012722568000000003,3.859,0,0
-0.0017946015999999996,0.0032242600000000005,0.00146827192,-0.0005547840000000004,-0.0014009504000000003,3.86,0,0
-0.0010250652,0.0024096132000000006,0.00280925592,0.001410522,-0.0009448888000000002,3.861,0,0
0.0009542088000000001,0.00047493000000000014,0.004438178,0.004419198000000001,-0.0006578368,3.862,0,0
0.002504051,-0.0029374400000000004,0.005999402000000001,0.006802806,-0.00043193580000000005,3.863,0,0
0.002381835,-0.006270622,0.005445372600000001,0.006945738,9.879640000000001e-05,3.864,0,0
0.0027501324000000003,-0.0069839080000000005,0.002321738600000001,0.007030296000000001,0.0004045788,3.865,0,0
0.004135452,-0.004922630000000001,-0.0010249213999999995,0.007377050000000001,0.0004098534,3.866,0,0
0.003594192,-0.0022964200000000004,-0.0038439294000000004,0.005394447,0.0008741514,3.867,0,0
0.0012620679999999999,1.420660000000017e-05,-0.0058533414,0.0025937769999999994,0.0014261064,3.868,0,0
-7.284200000000005e-05,0.0013572706,-0.005630996000000001,0.0008716169999999999,0.0014425348,3.869,0,0
-0.0010904400000000002,0.0003259325999999999,-0.0033091420000000006,-0.0016656970000000003,0.0017849448000000002,3.87,0,0
-0.0023428734000000002,-0.0023495454,-0.0013253340000000003,-0.005002013,0.0022090806,3.871,0,0
-0.0020911874,-0.0043119514,-0.0007051860000000001,-0.006693198,0.0015374366000000003,3.872,0,0
-0.00039183139999999996,-0.0045839486,-0.0007566440000000001,-0.00726015,0.0007388706,3.873,0,0
0.0013350966,-0.0041206592,-0.0011287584,-0.007762936,0.0003095700000000001,3.874,0,0
0.0030463586,-0.0029316172,-0.0009429344,-0.00663912,-0.0008289819999999999,3.875,0,0
0.004324115999999999,-0.0008066652000000002,-0.0003774384,-0.003900466,-0.0015331140000000001,3.876,0,0
0.004106966,0.0009763228,-0.00038220640000000003,-0.0015690220000000006,-0.0013299876,3.877,0,0
0.0032885326,0.0017367134000000001,-0.0010039244,0.0007779980000000002,-0.0014554076,3.878,0,0
0.0029338766,0.002713788,-0.00134338,0.003923816,-0.0015416076000000002,3.879,0,0
0.0024825986,0.003447346,-0.0008679860000000002,0.005511852,-0.0008382239999999999,3.88,0,0
0.0013546238,0.0028772172,-0.0003424260000000003,0.0050209422000000005,-0.00014554,3.881,0,0
0.0009200506,0.0024803872,0.0008289199999999998,0.004847646200000001,0.0002673536,3.882,0,0
0.0008954082000000002,0.002017246,0.0031163980000000003,0.004560820200000001,0.0011464556,3.883,0,0
-0.0002554758000000001,0.000619082,0.004315216,0.0022590622,0.0022074056,3.884,0,0
-0.0016116018,-0.000254842,0.003900108,3.047420000000002e-05,0.0027990000000000003,3.885,0,0
-0.002466287,-0.0006402672,0.0032804108,-0.0006758220000000001,0.0027976520000000003,3.886,0,0
-0.0034584918000000004,-0.0017832652,0.0023482268,-0.0024724580000000003,0.002911864,3.887,0,0
-0.004497168,-0.002664942,0.0005979507999999998,-0.0048179880000000005,0.0026480040000000002,3.888,0,0
-0.004820138,-0.0027261620000000003,-0.0011616672,-0.005126372000000001,0.0018444646000000003,3.889,0,0
-0.0049720680000000005,-0.0027541280000000002,-0.0024141312,-0.004853946,0.0013463806,3.89,0,0
-0.004929108000000001,-0.0022057508,-0.003327694,-0.004964512000000001,0.0006606746000000001,3.891,0,0
-0.0037562886,-0.0009474527999999999,-0.0035756880000000005,-0.0031393660000000006,-0.0005298713999999999,3.892,0,0
-0.0024695350000000006,-8.155519999999988e-05,-0.0030879242,-0.00036758600000000026,-0.0012442534,3.893,0,0
-0.0016044492,0.0004818228000000001,-0.001990778,0.0014803739999999998,-0.001615742,3.894,0,0
-0.00021280720000000015,0.0013904268,-0.0008570800000000001,0.004032404,-0.002399264,3.895,0,0
0.0009408547999999999,0.0023369776,0.0004266699999999999,0.006778882,-0.0024195700000000002,3.896,0,0
0.0013029154000000001,0.0032862196,0.0017491420000000002,0.0075337040000000004,-0.001445884,3.897,0,0
0.0017890578,0.004187078,0.0023362962000000004,0.006971098,-0.0007661966,3.898,0,0
0.002615848,0.004730148,0.003009386,0.006686308,-0.0006141826,3.899,0,0
0.002846604,0.0043067096,0.0037521000000000004,0.005227277999999999,-2.9039159999999965e-05,3.9,0,0
0.0024455476000000004,0.0026831856,0.003713202,0.002007958,0.00048339684000000004,3.901,0,0
0.0022761296,0.0011046536,0.0031060830000000004,-0.0007794920000000001,0.00014178084,3.902,0,0
0.0023481576000000002,-0.0003063664,0.0027266704,-0.0028625860000000003,-9.754876000000001e-05,3.903,0,0
0.0018810648000000003,-0.0018956964,0.0019014656000000002,-0.005495342,0.00019785512,3.904,0,0
0.0010455488,-0.0025700400000000004,0.0004048815999999999,-0.007729400000000001,-0.00013322632000000004,3.905,0,0
0.0010811015999999999,-0.0021784414,-0.00046219440000000006,-0.00795054,-0.00100889832,3.906,0,0
0.0004176436000000001,-0.0020652954,-0.0009274094,-0.007546414000000001,-0.0011071051200000001,3.907,0,0
-0.0013754324,-0.0022283674,-0.0020335928,-0.0068903440000000005,-0.0014033149200000001,3.908,0,0
-0.0022863896,-0.0015357154000000001,-0.003658754,-0.004599126,-0.0021176848,3.909,0,0
-0.0025591076000000003,-0.0006827874,-0.00449673,-0.0018261020000000002,-0.0019852286,3.91,0,0
-0.0030173420000000005,-0.0003328220000000001,-0.0044515019999999995,0.00022711599999999986,-0.0015624416000000001,3.911,0,0
-0.0027793342000000006,0.000612292,-0.003577786,0.003109532,-0.0017776808,3.912,0,0
-0.0015497682000000003,0.0018900240000000001,-0.0015490160000000003,0.0061002,-0.0015478194000000001,3.913,0,0
-0.0011137362,0.0020729060000000002,0.0012008839999999997,0.006818252,-0.0005203674,3.914,0,0
-0.0014828562000000001,0.0016426712000000001,0.003493354,0.006899772,5.96204e-05,3.915,0,0
-0.0018180762000000001,0.0013475894,0.004572478,0.006966670000000001,0.0005796294,3.916,0,0
-0.0019959780000000002,0.0005672817999999999,0.00470017,0.004698238,0.0015677174,3.917,0,0
-0.0018255180000000004,6.57438e-05,0.004195288,0.0016266179999999998,0.002069772,3.918,0,0
-0.0010857120000000002,0.0006902498,0.0036944460000000005,5.543600000000007e-05,0.0018995152000000001,3.919,0,0
0.000708944,0.0014536486,0.0026843870000000003,-0.0020227179999999997,0.0017871372000000001,3.92,0,0
0.00306658,0.0016817866,0.000706901,-0.00471864,0.0017291172000000001,3.921,0,0
0.00434334,0.0015315500000000002,-0.001454511,-0.005914666,0.0012688376,3.922,0,0
0.0034147660000000005,0.0006780599999999999,-0.0031473990000000004,-0.006400638,0.0007045056,3.923,0,0
0.0015477240000000003,-0.0012035400000000003,-0.004704609,-0.007165306000000001,0.000478973,3.924,0,0
-0.0005128140000000001,-0.002587596,-0.006816292,-0.006366332000000001,-8.349900000000001e-05,3.925,0,0
-0.0023074014,-0.0029967062,-0.007958518000000001,-0.0033848980000000003,-0.000855009,3.926,0,0
-0.0021262954,-0.0034628180000000003,-0.006733986000000001,-0.0006394239999999998,-0.0012306654,3.927,0,0
-7.82974000000001e-05,-0.0029430218,-0.004812980000000001,0.001765288,-0.0013378874,3.928,0,0
0.0027394986,-0.0010780898,-0.002647104000000001,0.005075098,-0.001388594,3.929,0,0
0.005223652600000001,0.00020951019999999995,0.0007981559999999997,0.007378412000000001,-0.0010751291999999998,3.93,0,0
0.00567924,0.0008672242,0.0040278499999999995,0.0074878720000000005,-0.0003584911999999999,3.931,0,0
0.003984612,0.0021336002000000003,0.005168274,0.00737259,7.331079999999996e-05,3.932,0,0
0.0013651500000000003,0.0030551679999999996,0.004519605,0.007043102000000001,0.0006855548,3.933,0,0
-0.001940254,0.0024446962,0.0031445445999999993,0.004728364,0.0014323348,3.934,0,0
-0.005142382,0.0014598782,0.0023308086,0.0021343300000000003,0.00171587,3.935,0,0
-0.007236706000000001,0.00024124219999999998,0.0025460446,0.000517104,0.0014394428000000003,3.936,0,0
-0.008066516000000001,-0.0021385718,0.0026386206,-0.002091308,0.001320625,3.937,0,0
-0.0068389,-0.0041329237999999996,0.0025959790000000004,-0.004734248,0.001340197,3.938,0,0
-0.0039174959999999995,-0.004599102,0.0025292098,-0.0055354060000000005,0.00045336700000000004,3.939,0,0
-0.0014695360000000005,-0.0044328499999999995,0.0019075282,-0.006009744,-0.000295985,3.94,0,0
0.0001950016,-0.00416385,0.0012615562000000001,-0.006776608,-0.0004926718,3.941,0,0
0.0020593816,-0.0023707462,0.00030564420000000006,-0.005648524,-0.0009104120000000002,3.942,0,0
0.0039969076,0.0010033118000000005,-0.0016532112,-0.0030416059999999997,-0.0012936024000000002,3.943,0,0
0.0054597455999999996,0.0030025418000000003,-0.0033714376,-0.0011782859999999995,-0.0010061354000000002,3.944,0,0
0.0072370175999999994,0.0029776058,-0.003611456,0.0007926300000000001,-0.0006548536,3.945,0,0
0.009127302,0.0030433698000000005,-0.0036550240000000006,0.003267626,-0.0005020954000000001,3.946,0,0
0.008583482,0.0027429520000000003,-0.0039534,0.004931882,2.081859999999999e-05,3.947,0,0
0.005770249999999999,0.000671328,-0.002525008,0.0053411560000000005,0.0002665206,3.948,0,0
0.0028642159999999997,-0.0007719868000000001,-8.816999999999994e-05,0.0053889739999999995,0.000378856,3.949,0,0
0.00035811420000000005,-0.00036093540000000014,0.0009438740000000001,0.0049255919999999995,0.0010401962,3.95,0,0
-0.0016229898,0.0006255945999999999,0.00104506,0.0031939480000000003,0.00169163,3.951,0,0
-0.0019390998000000002,0.0017145766,0.0019516200000000003,0.0012426119999999997,0.0016066365999999998,3.952,0,0
-0.0012289254000000002,0.0024214406,0.003066184,-0.0006285319999999999,0.0016506749999999999,3.953,0,0
-0.0015059334,0.0026174194000000003,0.00252167,-0.003176304,0.0019569766000000002,3.954,0,0
-0.0031609056000000005,0.002989142,0.0004651080000000001,-0.005464982,0.0013416538,3.955,0,0
-0.0046430536000000005,0.00295262,-0.001726324,-0.006251390000000001,0.00022501979999999997,3.956,0,0
-0.0056798456,0.0009488759999999998,-0.00315796,-0.006898836,-0.00046387679999999995,3.957,0,0
-0.006902646,-0.0015547280000000002,-0.004183212,-0.007246466000000002,-0.0011822807999999998,3.958,0,0
-0.006225908400000001,-0.0030594100000000003,-0.0040422558,-0.005207286,-0.0021429148,3.959,0,0
-0.0040040464,-0.00452273,-0.0019393237999999998,-0.0025590280000000005,-0.002378542,3.96,0,0
-0.002392999400000001,-0.0055124779999999995,0.00023789220000000003,-0.0009769260000000001,-0.002101,3.961,0,0
-0.0007160894,-0.004190560000000001,0.0013471022,0.0014834100000000001,-0.0017314302000000002,3.962,0,0
0.0011850926000000002,-0.0014702079999999998,0.0023614102,0.004183124,-0.001333042,3.963,0,0
0.001745061,0.0002498420000000002,0.0032466479999999995,0.004910744,-0.001101516,3.964,0,0
0.002037227,0.001240868,0.003124252,0.005039746,-0.0008419240000000001,3.965,0,0
0.003416428,0.002294698,0.0026924602,0.005544912000000001,-0.0004718046000000001,3.966,0,0
0.003971744,0.00205034,0.0019402942000000005,0.00486311,0.0001641376,3.967,0,0
0.00376385,0.0005139880000000002,0.0005027021999999999,0.0034068946000000004,0.0008027014,3.968,0,0
0.0037733560000000003,-3.9247199999999945e-05,-0.0010139778,0.002404521,0.0011791056,3.969,0,0
0.0031474864,-0.00018341019999999994,-0.0022044098000000003,0.0007101569999999999,0.0014701316,3.97,0,0
0.0012587784,-0.0012174522,-0.0028633540000000002,-0.001625269,0.0015822701999999998,3.971,0,0
-0.0007611155999999999,-0.0016168462,-0.0027174200000000003,-0.003064209,0.0011713788,3.972,0,0
-0.0020731916,-0.001038961,-0.0024218819999999998,-0.0039774376,0.0006000368000000001,3.973,0,0
-0.0033930196000000004,-0.0008368338000000002,-0.002801782,-0.0051506899999999994,0.0002518986000000001,3.974,0,0
-0.003984934,-0.0003868988000000001,-0.002655914,-0.004811864,-0.0007431554,3.975,0,0
-0.0034608242000000004,0.0006469372000000001,-0.0014260319999999998,-0.0023638020000000004,-0.0019546434,3.976,0,0
-0.0025011516000000003,0.0013564072,-0.0002058260000000001,-0.00013852000000000005,-0.00239424,3.977,0,0
-0.0012344756000000003,0.001645824,0.000932818,0.0018640380000000002,-0.0024926696,3.978,0,0
0.0003216024,0.002347762,0.002850992,0.004752102,-0.0022114459999999997,3.979,0,0
0.0015744544,0.0033285960000000005,0.00472077,0.006606996,-0.001279122,3.98,0,0
0.0021136186,0.0033073779999999997,0.005020794,0.006242528000000001,7.104999999999991e-05,3.981,0,0
0.002173983,0.0030764512,0.0047297020000000006,0.005728662000000001,0.0009114419999999999,3.982,0,0
0.001222673,0.0029041752000000002,0.004601552,0.005023840000000001,0.0013020316000000001,3.983,0,0
-0.0006174209999999999,0.0015342652,0.003560504000000001,0.002945544,0.0016304920000000003,3.984,0,0
-0.002371501,-0.00034344280000000007,0.0020467922,0.0008158619999999999,0.0016933160000000003,3.985,0,0
-0.0029332992000000004,-0.0010403982000000002,0.0007319702,-0.0008581740000000002,0.001816598,3.986,0,0
-0.0024845922000000004,-0.0015935334,-0.0009330138,-0.00317292,0.002094096,3.987,0,0
-0.0015832082000000005,-0.0028367154,-0.0025772618000000002,-0.005786116,0.002345964,3.988,0,0
-0.0001805281999999999,-0.0031259334,-0.0036759078000000002,-0.007201628,0.002110935,3.989,0,0
0.0006626632,-0.0026590198,-0.004497270000000001,-0.007847444,0.001476817,3.99,0,0
0.0012005414,-0.0021386164,-0.004827428,-0.008282089999999999,0.0004937330000000001,3.991,0,0
0.0018398994,-0.0010127843999999998,-0.004225406000000001,-0.0071494819999999995,-0.0007626169999999999,3.992,0,0
0.0019188834,0.0005431896000000001,-0.0029115824000000004,-0.004203681999999999,-0.001830969,3.993,0,0
0.0016882472000000002,0.0016286316000000002,-0.0013256204000000004,-0.0012887199999999997,-0.0022564000000000004,3.994,0,0
0.0023155998,0.0022734900000000004,0.00033300159999999986,0.0015157280000000003,-0.0021331460000000003,3.995,0,0
0.0033158358,0.0025358640000000005,0.0019367176,0.004852712,-0.002035138,3.996,0,0
0.0035950558000000005,0.00206504,0.0031304836,0.0066352040000000004,-0.0015952826000000002,3.997,0,0
0.0039819538,0.0015210708000000003,0.003397992,0.006185884000000001,-0.0008366106000000002,3.998,0,0
0.004795646,0.0011577660000000004,0.003151506,0.005543640000000001,-0.00033631380000000003,3.999,0,0
0.0048359959999999995,0.00046694239999999995,0.0028066800000000006,0.004575062,0.00040609219999999995,4.0,0,0
0.0033291706000000004,-0.00016019782000000006,0.002172662,0.0020720820000000003,0.0016035902,4.001,0,0
0.0019752296,0.00018817217999999995,0.001784856,0.00017486400000000005,0.0022749528,4.002,0,0
0.001149146,0.0009182093799999999,0.001647838,-0.0005717419999999999,0.0023974828,4.003,0,0
3.292599999999991e-05,0.00107997898,0.0008977659999999999,-0.0024179680000000004,0.0021340442,4.004,0,0
-0.0002788278,0.0009056345800000001,-0.00042956600000000004,-0.00394461,0.0013544482000000001,4.005,0,0
9.97076e-05,0.0004805228000000001,-0.0016136000000000002,-0.0036523020000000005,0.0004127216000000001,4.006,0,0
-0.0005279754,-0.0013874972000000002,-0.0026832340000000005,-0.0034913080000000007,-0.0002685627999999999,4.007,0,0
-0.0019680478,-0.0043122392,-0.0033229760000000005,-0.0034784180000000005,-0.000810703,4.008,0,0
-0.0028596218,-0.005846820000000001,-0.004185670000000001,-0.0018381480000000002,-0.0013666072000000002,4.009,0,0
-0.0037616620000000007,-0.005994458,-0.006041956000000001,0.0002868300000000003,-0.0016416232000000001,4.01,0,0
-0.004781906000000001,-0.0054230468,-0.006507786,0.0015775020000000002,-0.0017341066,4.011,0,0
-0.004489092000000001,-0.0035072888,-0.004524816000000001,0.0033256460000000002,-0.001727212,4.012,0,0
-0.0031665718000000002,-0.0010250028,-0.0018936520000000004,0.005374376,-0.0017249140000000001,4.013,0,0
-0.0023504158,0.0005551082000000001,0.0012931239999999999,0.005534814000000001,-0.001101634,4.014,0,0
-0.0020663458,0.0014064842,0.004929318,0.0044698820000000005,-0.0002886860000000001,4.015,0,0
-0.0020521878,0.0013219618,0.006827196,0.003933782,0.00017845800000000002,4.016,0,0
-0.0027105938,0.0003089858000000001,0.0065826899999999995,0.0026105940000000004,0.0007274918000000001,4.017,0,0
-0.003711502,-0.0006299342,0.005349708,0.0002516860000000001,0.001142508,4.018,0,0
-0.003419965140000001,-0.0015708792000000001,0.00442632,-0.0008707440000000001,0.0012807406,4.019,0,0
-0.0014292111400000006,-0.001734639,0.0031521480000000004,-0.00161978,0.0011767684,4.02,0,0
0.0003903328599999998,-0.0010205438000000003,0.0003753859999999997,-0.003658226,0.0013224344,4.021,0,0
0.00152344366,-0.0006639380000000002,-0.00226881,-0.005117352,0.0011453924,4.022,0,0
0.00240150366,-0.000347208,-0.0038692880000000002,-0.005168418,0.000728971,4.023,0,0
0.0022249908,0.0010202260000000002,-0.005399844,-0.005252012,0.0004688804000000001,4.024,0,0
0.0005454504000000001,0.0021835558,-0.00660432,-0.00467986,7.265660000000003e-05,4.025,0,0
-0.0010829776,0.0023294478,-0.005702,-0.0020157800000000004,-0.0006690654000000001,4.026,0,0
-0.0013085944,0.00295522,-0.0037446080000000004,0.0006099879999999999,-0.0012544114,4.027,0,0
-0.00041856840000000016,0.003695168,-0.0025196039999999995,0.0022551059999999998,-0.0011936378,4.028,0,0
0.0014527656000000002,0.0040494,-0.0009288539999999995,0.004654902000000001,-0.0015632518000000001,4.029,0,0
0.0036150800000000005,0.003861914,0.0018855700000000003,0.006309148,-0.0017607998000000002,4.03,0,0
0.005369508,0.00277502,0.0043565240000000005,0.005617002,-0.0011809038000000001,4.031,0,0
0.006606716,0.0016750200000000002,0.005378928000000001,0.0046149962,-0.0006098118,4.032,0,0
0.006700744000000001,0.0011000319999999997,0.005624454000000001,0.0038783162000000006,-0.00015233799999999996,4.033,0,0
0.0048287656000000016,-0.00026659199999999996,0.0047774682,0.0015423542000000002,0.00092591,4.034,0,0
0.0014287496,-0.001925532,0.0031064082000000002,-0.0010958358000000001,0.0017743519999999999,4.035,0,0
-0.0018874184,-0.002055232,0.0011704962000000005,-0.0022522878,0.0014329025999999998,4.036,0,0
-0.0049395364,-0.002016758,-0.0010959578,-0.003766434,0.0011938983200000001,4.037,0,0
-0.0076560324,-0.0023215960000000004,-0.0025901858000000003,-0.005866742,0.0009533427200000001,4.038,0,0
-0.00906338,-0.002343186,-0.003058958,-0.006524078000000001,0.0001233647200000001,4.039,0,0
-0.008692692,-0.0023341440000000002,-0.003235486,-0.006532830000000002,-0.00032974948,4.04,0,0
-0.00714414,-0.0023797260000000004,-0.0031045160000000003,-0.006891460000000001,-0.00018875720000000002,4.041,0,0
-0.0045108200000000005,-0.0012991620000000002,-0.0021964986000000005,-0.005689674,-0.00058680292,4.042,0,0
-0.001274832,0.0010836679999999999,-0.0006683046000000003,-0.0029519880000000004,-0.0011627973200000002,4.043,0,0
0.0008880180000000001,0.0032624840000000004,0.0005548273999999997,-0.000740716,-0.0011615553200000001,4.044,0,0
0.0026958800000000003,0.00523231,0.0016921594,0.0015061839999999998,-0.00129177112,4.045,0,0
0.0047180320000000005,0.007401082,0.0032173714000000003,0.004529976,-0.0013623026000000001,4.046,0,0
0.005574450000000001,0.007939262,0.004305296,0.0063391179999999995,-0.0008959898000000001,4.047,0,0
0.005233446000000001,0.005243246000000001,0.00474883,0.0063759820000000005,-0.0003429986,4.048,0,0
0.005114732,0.0018805379999999997,0.004791872,0.006639728000000001,8.440880000000004e-05,4.049,0,0
0.004858692,-0.0010896180000000003,0.003679364,0.006390342,0.0005301268000000001,4.05,0,0
0.0030554400000000004,-0.00482471,0.0017109520000000004,0.003933558,0.0010590894000000002,4.051,0,0
0.0008876760000000001,-0.007680704000000001,-0.00010796399999999989,0.0015899420000000004,0.0013083766,4.052,0,0
-0.0003951320000000001,-0.007711842000000001,-0.002303754,0.0001728340000000004,0.0014769674,4.053,0,0
-0.0016776640000000002,-0.006774564,-0.004153934,-0.002533852,0.0017760400000000002,4.054,0,0
-0.0025071579999999998,-0.005643550000000001,-0.004317094,-0.005145048,0.001721648,4.055,0,0
-0.00220813802,-0.0034509980000000003,-0.00401294,-0.005762044000000001,0.001070229,4.056,0,0
-0.0018403680200000001,-0.0018380766,-0.004242654,-0.00621013,0.00038343099999999994,4.057,0,0
-0.0011282600200000002,-0.0008747108000000002,-0.0040784919999999995,-0.006721754,-5.9523000000000074e-05,4.058,0,0
0.00038154797999999986,0.0004176732000000001,-0.0032292868000000003,-0.004793134,-0.0010361050000000003,4.059,0,0
0.00121105398,0.0011017292000000001,-0.0020380928000000003,-0.0015056240000000001,-0.0018618010000000002,4.06,0,0
0.001519928,0.0007680492000000001,-0.0005013348,0.0008014879999999999,-0.002030534,4.061,0,0
0.00234502,0.0014743158000000002,0.0006845292,0.003552352,-0.002171698,4.062,0,0
0.0027947840000000002,0.0025157900000000004,0.001493205,0.006718124000000001,-0.0021256606000000003,4.063,0,0
0.0025852340000000005,0.0023725,0.0022993038,0.007791296,-0.0012398626,4.064,0,0
0.002479784,0.0022302882,0.0027158838,0.007413900000000001,-0.00033778259999999984,4.065,0,0
0.002382734,0.0023961944,0.0030006738,0.007644102,5.551280000000009e-05,4.066,0,0
0.0015931460000000001,0.0018961219999999999,0.0033634998,0.006679494,0.0011406608000000002,4.067,0,0
0.0009627736000000001,0.0011118160000000003,0.003024141,0.0035258599999999996,0.0020630914,4.068,0,0
0.00045704560000000004,0.0013405860000000002,0.0021340352000000003,0.0010171379999999995,0.0018608800000000003,4.069,0,0
-0.0011214084,0.0014103698000000001,0.0012709894600000003,-0.0009415200000000002,0.0017996340000000003,4.07,0,0
-0.0029352464,0.0007903636000000002,0.00012346306000000012,-0.0042944920000000004,0.0020936086000000005,4.071,0,0
-0.0038337564000000004,0.0006209251999999999,-0.00133241894,-0.0070285040000000005,0.0013946356,4.072,0,0
-0.0040831596000000005,0.0010435992000000002,-0.0026727699400000003,-0.007236296,0.0003332316,4.073,0,0
-0.004332361600000001,0.0007234432000000001,-0.00366676414,-0.007426996,-0.00010143099999999997,4.074,0,0
-0.0039772676,-0.0003885328000000001,-0.0043125324,-0.0075943040000000005,-0.000624021,4.075,0,0
-0.0018953656000000004,-0.0009384688000000001,-0.00394069,-0.005040266000000001,-0.001288497,4.076,0,0
0.0006065144,-0.002002032,-0.002523496,-0.0017921340000000006,-0.0015918440000000002,4.077,0,0
0.0013245980000000002,-0.004035444,-0.0005352079999999998,0.00046987599999999993,-0.0017736320000000002,4.078,0,0
0.0022999220000000003,-0.00392994,0.0015164,0.003457398,-0.002043506,4.079,0,0
0.004401104,-0.0014680019999999997,0.003018728,0.006302302,-0.0018563214000000003,4.08,0,0
0.004787294,0.0003469300000000003,0.003909242,0.0067060140000000015,-0.0010537694,4.081,0,0
0.003905136,0.0019514800000000002,0.004269838000000001,0.006219424,-0.0002838654,4.082,0,0
0.0034499050000000005,0.004026692,0.004005108,0.0060781820000000005,0.0004967606,4.083,0,0
0.0023142410000000003,0.00443972,0.002602682,0.003910778,0.0017175606000000001,4.084,0,0
-3.3983000000000234e-05,0.0030460160000000003,0.00139968,0.0007516859999999997,0.002249104,4.085,0,0
-0.002230403,0.0020910026000000004,0.00010295179999999989,-0.001184322,0.0019624984,4.086,0,0
-0.003936449,0.0012756646000000003,-0.0032330382,-0.0034319840000000003,0.0018905244,4.087,0,0
-0.005699580000000001,-0.00047638739999999986,-0.0060904642,-0.006427546000000001,0.0016947552,4.088,0,0
-0.007084508000000001,-0.0024584254000000003,-0.0059474622,-0.007797974000000001,0.0009599682,4.089,0,0
-0.007277488,-0.0040883254,-0.0050415422000000005,-0.007344248,0.00028935019999999997,4.09,0,0
-0.00696976,-0.0052114660000000005,-0.0047090504,-0.006942224,-8.253800000000033e-06,4.091,0,0
-0.006758874000000001,-0.004911855200000001,-0.0023922946,-0.0054255364,-0.0007593618,4.092,0,0
-0.0057818900000000005,-0.0028250012000000002,0.0010219114,-0.0022767884,-0.0013822366,4.093,0,0
-0.004175614,-0.00045182320000000057,0.0025384354,0.0007909735999999997,-0.0012006754000000001,4.094,0,0
-0.002736876,0.0018739728,0.0031849534,0.0030789556,-0.0011319968,4.095,0,0
-0.001165776,0.0041862648,0.0043239198,0.0056292016,-0.0015610692,4.096,0,0
0.0004827319999999998,0.0048961379999999995,0.005748426,0.0074713060000000005,-0.0012801562,4.097,0,0
0.0017229420000000003,0.0033246160000000003,0.0063652560000000006,0.007472682,-0.0003966401999999998,4.098,0,0
0.00302336,0.0012280500000000003,0.006414414,0.007153484000000001,-0.00047425099999999997,4.099,0,0
0.0045770640000000005,-0.00010687000000000012,0.005913084,0.00657934,-0.00034120419999999997,4.1,0,0
0.0059023980000000005,-0.0011472324,0.003381350000000001,0.0045172968,0.00047081180000000007,4.101,0,0
0.007091878,-0.0015537344000000001,-0.00018419199999999926,0.0018547768,0.0009558028,4.102,0,0
0.00802521,-0.0007305324,-0.002705314,0.00029474480000000016,0.0008377047999999999,4.103,0,0
0.007670676000000001,0.00019839180000000002,-0.00418174,-0.0023595392,0.0009006865999999999,4.104,0,0
0.006181784000000001,0.00030495780000000007,-0.005708114,-0.0043976092,0.0007360708,4.105,0,0
0.00497454,3.8856199999999996e-05,-0.005889518,-0.005446362000000001,6.180279999999996e-05,4.106,0,0
0.0036533200000000007,-0.0003900058,-0.005817818000000001,-0.004907772,0.0004196108,4.107,0,0
0.0020812066,-0.0006791854,-0.005243308,0.0002858359999999994,0.0009654428,4.108,0,0
0.0015240948000000002,-0.0006946734,-0.0019322740000000003,0.00448317,0.0017175176,4.109,0,0
0.0009839388,-0.0007679734000000001,0.0008655879999999996,0.00397007,0.00325705,4.11,0,0
-0.0012598572000000001,-0.0012918834,0.0022760106,0.001887474,0.004434152,4.111,0,0
-0.0044366852,-0.0026257534000000003,0.0033461945999999996,-0.002597848,0.004405876,4.112,0,0
-0.0070431518,-0.0045520458000000005,0.0009827505999999999,-0.012689188,0.0038670500000000003,4.113,0,0
-0.009302620000000001,-0.006264578,-0.0055122294,-0.020699088,0.002447114,4.114,0,0
-0.010864268000000002,-0.006476052,-0.0099354774,-0.022011520000000003,-0.00037967600000000023,4.115,0,0
-0.010366318000000001,-0.00503464,-0.01092856,-0.019690734000000005,-0.002867042,4.116,0,0
-0.007905982,-0.0028345540000000004,-0.010163189999999999,-0.014023980000000002,-0.00490582,4.117,0,0
-0.0045162480000000005,4.888799999999997e-05,-0.006532224,-0.00497966,-0.00677724,4.118,0,0
-1.770799999999996e-05,0.0037553880000000006,-0.001174138,0.00600688,-0.0075830080000000005,4.119,0,0
0.0057349919999999995,0.0071485640000000005,0.004076402,0.01544394,-0.007081752000000001,4.12,0,0
0.01081727,0.009560092000000001,0.008457906000000001,0.023422114,-0.006121652000000001,4.121,0,0
0.014283054,0.011404114,0.012631832,0.029353900000000002,-0.004735996,4.122,0,0
0.015722859999999998,0.011998684,0.015559586000000002,0.03038642,-0.0023241660000000008,4.123,0,0
0.014286004000000001,0.01053569,0.016169640000000002,0.026993299999999998,0.00024180199999999995,4.124,0,0
0.010669870000000001,0.0069975060000000006,0.014949072000000002,0.021060173999999997,0.002439132,4.125,0,0
0.005882554,0.002561072,0.012006970000000002,0.012123744,0.004619706,4.126,0,0
0.0007529959999999997,-0.001974768,0.007091722000000002,0.000720844,0.006106414,4.127,0,0
-0.003511164,-0.006205972000000001,0.0013612220000000013,-0.009286356,0.006359730000000001,4.128,0,0
-0.006874928000000001,-0.009371378,-0.0037972979999999997,-0.017202956000000002,0.0058196340000000015,4.129,0,0
-0.009581054,-0.011359694000000002,-0.00871249,-0.024060750000000002,0.004923830000000001,4.13,0,0
-0.010422960000000002,-0.011948120000000001,-0.012684948,-0.027271980000000005,0.0031368500000000005,4.131,0,0
-0.009846562,-0.011000742,-0.014350159999999999,-0.025588500000000007,0.0007872220000000002,4.132,0,0
-0.008589988,-0.0085116058,-0.013956818000000001,-0.021603124,-0.0009076300000000001,4.133,0,0
-0.006115069799999999,-0.0048355678,-0.011983408000000001,-0.015029054,-0.002597528,4.134,0,0
-0.0032798318000000003,-0.0001995298000000002,-0.007758959999999999,-0.0053846139999999985,-0.004265458,4.135,0,0
-0.0007255638000000004,0.0043366102,-0.00204606,0.003960045999999999,-0.00472249,4.136,0,0
0.0022176342,0.0079428722,0.0033545800000000002,0.011689826,-0.004331708,4.137,0,0
0.005636100200000001,0.010286316,0.008107798,0.01813229,-0.004083378,4.138,0,0
0.008018902000000001,0.010022694,0.012261768000000001,0.021880619999999996,-0.0031067318000000004,4.139,0,0
0.009072601999999999,0.00813049646,0.013885960000000001,0.021588680000000002,-0.0010280078,4.14,0,0
0.009675772,0.006385722460000001,0.012809748000000001,0.018746236,0.0010469721999999998,4.141,0,0
0.008741308000000001,0.00422998246,0.010908110000000002,0.014147048600000002,0.0026973982000000002,4.142,0,0
0.0055657020000000005,0.00170944646,0.007665427200000001,0.007045106600000001,0.0040160322,4.143,0,0
0.0020284680000000003,0.00043771045999999985,0.0025900332,-0.0012275134000000005,0.0049671,4.144,0,0
-0.0011799999999999994,-0.00025967599999999997,-0.0025423468000000003,-0.008650433400000001,0.004984006,4.145,0,0
-0.005119456,-0.002179698,-0.006604174800000001,-0.0149262894,0.004277768,4.146,0,0
-0.00869965,-0.004988038,-0.010341376800000001,-0.020182422000000002,0.003208166,4.147,0,0
-0.010517464,-0.007420181999999999,-0.012635854,-0.021694520000000002,0.0013446259999999998,4.148,0,0
-0.011055371999999999,-0.008306843999999999,-0.012638622,-0.019112188000000002,-0.00087486,4.149,0,0
-0.010698161999999999,-0.008194904,-0.011223994000000001,-0.014699510800000001,-0.0025888500000000006,4.15,0,0
-0.008665002000000002,-0.006974783199999999,-0.008648876,-0.007993192800000002,-0.004094830000000001,4.151,0,0
-0.005025888000000001,-0.0030103572,-0.0055737082,0.000586907199999999,-0.005244066000000001,4.152,0,0
-0.00181968,0.0013815268000000002,-0.0023796242000000004,0.0078428072,-0.005080536,4.153,0,0
0.000662154,0.0038240168,0.0009974558,0.0132225552,-0.00417194,4.154,0,0
0.003488442,0.0052630508,0.0041108458,0.017690938,-0.003475544,4.155,0,0
0.0053346240000000005,0.0050906074,0.006648107800000001,0.01939294,-0.002250934,4.156,0,0
0.005992278,0.0032703694,0.008397914000000001,0.01807498,-0.00032744000000000013,4.157,0,0
0.006844318,0.0018143574000000003,0.009204588000000001,0.01530622,0.00129571,4.158,0,0
0.006654766,0.0006531026,0.009268682,0.01060524,0.002646852,4.159,0,0
0.0044779600000000004,-0.0006793934000000001,0.008528220000000001,0.00367688,0.003967892,4.16,0,0
0.001784526,-0.0006387462000000001,0.0067020280000000005,-0.00319832,0.004386256,4.161,0,0
-0.0011784600000000003,-0.0003861188,0.0049398492000000006,-0.008812740000000001,0.0038491140000000003,4.162,0,0
-0.003921642,-0.0015748668000000001,0.0023012832,-0.013835860000000002,0.0032839100000000006,4.163,0,0
-0.004865752000000001,-0.002746234,-0.0028062888,-0.017300560000000003,0.0021187020000000005,4.164,0,0
-0.004567394000000001,-0.003228172,-0.0068288848,-0.017424680000000005,0.0002532280000000001,4.165,0,0
-0.0038853800000000003,-0.0033291100000000006,-0.0096222928,-0.015289592000000001,-0.001172214,4.166,0,0
-0.0024481104,-0.0034135132000000005,-0.013013328,-0.012241584000000002,-0.002300822,4.167,0,0
-0.00028336240000000003,-0.0018453372000000003,-0.012911908,-0.007117128,-0.0035894480000000003,4.168,0,0
0.0013630876,0.0015599568,-0.008251856,-0.000759928,-0.0039368779999999996,4.169,0,0
0.0021272416,0.0039941348,-0.004090376,0.0043720519999999995,-0.0031531318,4.17,0,0
0.0031854556,0.0051982082,-0.0005014679999999993,0.008358384,-0.0024785500000000004,4.171,0,0
0.004629632,0.006404688,0.004747590000000001,0.012045416,-0.0016157972000000003,4.172,0,0
0.00524006,0.0067660640000000005,0.008005238000000001,0.013446379999999999,-0.00011250719999999993,4.173,0,0
0.005217558000000001,0.00526277,0.008275934,0.012012462,0.0009912088,4.174,0,0
0.005591846000000001,0.0038911242,0.008426892,0.010146438,0.0014418446,4.175,0,0
0.0049211648,0.0025232722,0.008420908,0.006949760000000001,0.0021225248,4.176,0,0
0.0021465948,-7.119979999999993e-05,0.006703064,0.0015864599999999996,0.002914158,4.177,0,0
-0.0013080472,-0.0028907858,0.003940546,-0.0028467180000000003,0.003014544,4.178,0,0
-0.004698905200000001,-0.0053136078,0.001400772,-0.00615418,0.0026581434,4.179,0,0
-0.008284587199999999,-0.007483434000000001,-0.0019922580000000002,-0.009932456000000001,0.0024824954,4.18,0,0
-0.011293962000000001,-0.008855226,-0.006117462000000001,-0.011993578000000001,0.0016331894,4.181,0,0
-0.011478202,-0.0073985323999999995,-0.008867296,-0.011320752,0.00024529339999999997,4.182,0,0
-0.008860765999999999,-0.0045535564,-0.009606162,-0.009961966000000003,-0.00042798459999999995,4.183,0,0
-0.005330868000000001,-0.0019237024000000001,-0.008989958000000001,-0.00741174,-0.0011969799999999998,4.184,0,0
-0.001221228,0.0012215216000000001,-0.006593014,-0.002629364,-0.002279592,4.185,0,0
0.00259215,0.0035345736000000003,-0.0023625460000000005,0.0024508760000000003,-0.002562644,4.186,0,0
0.004943166000000001,0.003854272,0.0015350820000000001,0.00639517,-0.0026364,4.187,0,0
0.0059429059999999995,0.0037359740000000004,0.004397416,0.009546102,-0.0030058620000000006,4.188,0,0
0.0061935819999999996,0.004014888,0.006632690000000001,0.011790416000000001,-0.0024701864000000007,4.189,0,0
0.005568686,0.0030318766000000004,0.007660016000000001,0.011843372000000001,-0.0012363764000000003,4.19,0,0
0.005320064,0.0020194866000000002,0.007286840000000001,0.01037126,-0.00011821240000000016,4.191,0,0
0.005750088,0.0021305626,0.006086006400000002,0.008636940000000001,0.0011753336,4.192,0,0
0.004431856,0.0016591506,0.003832250400000001,0.005533608000000001,0.0023018416,4.193,0,0
0.002168578,0.0004898828,0.00037246239999999976,0.0011457100000000003,0.002756288,4.194,0,0
0.0008822739999999997,0.0001444442,-0.0028054556000000003,-0.002221494,0.0024825044,4.195,0,0
-0.00043460000000000016,3.692420000000004e-05,-0.004651471600000001,-0.005286846,0.0018483698000000002,4.196,0,0
-0.002555948,-0.0012350698000000002,-0.005445242,-0.009082926,0.0011351052,4.197,0,0
-0.0036483580000000004,-0.0024037018,-0.005598126000000001,-0.010451874,0.00042335140000000006,4.198,0,0
-0.0035792820000000005,-0.002784816,-0.00451381,-0.009194734000000001,-0.0001420412,4.199,0,0
-0.003519996,-0.002944756,-0.0032065,-0.0076628875999999995,-0.0006241676000000001,4.2,0,0
-0.0031260660000000003,-0.0026980700000000003,-0.00241288,-0.0048063776,-0.001124085,4.201,0,0
-0.001897436,-0.0014232719999999997,-0.00127059,-0.0002617615999999999,-0.0014273584,4.202,0,0
5.981600000000008e-05,8.198000000000276e-06,-5.391400000000007e-05,0.0031917084000000003,-0.0011635185999999999,4.203,0,0
0.0015710420000000001,0.0007035940000000001,0.0008770360000000001,0.0052540364,-0.0007531459999999999,4.204,0,0
0.0025861540000000002,0.0011794730000000003,0.0019272579999999998,0.007253036000000001,-0.00031554700000000006,4.205,0,0
0.0030629363999999997,0.00135768,0.002705992,0.008121794,0.000511477,4.206,0,0
0.0021963884000000006,0.0007603980000000001,0.0023384044,0.00721601,0.0010972470000000002,4.207,0,0
0.0006340414000000001,-0.00035045000000000003,0.0021232644000000003,0.005867784800000001,0.0011779390000000002,4.208,0,0
-0.0003788521999999999,-0.0013151720000000003,0.0021470384,0.004441138600000001,0.001424431,4.209,0,0
-0.0007762196000000001,-0.002126993,0.0018356104,0.0015168786,0.001785724,4.21,0,0
-0.000434494,-0.0022602968,0.0011688369999999998,-0.0020900494,0.0016715756,4.211,0,0
0.0002303947,-0.0014202328,0.0007204965999999999,-0.0045062254,0.0013281824000000002,4.212,0,0
5.6709700000000024e-05,-0.0003095467999999999,0.00040168659999999994,-0.006922450199999999,0.0011496777999999998,4.213,0,0
-0.0007152927,0.0008566292000000001,-0.0013191114000000001,-0.009316074,0.0004719338,4.214,0,0
-0.0013432713000000002,0.0020307772,-0.0031188274000000004,-0.00902441,-0.0005355842,4.215,0,0
-0.0016771305000000002,0.0024054396,-0.003520904,-0.006999501000000001,-0.0011850118000000002,4.216,0,0
-0.0018565748000000002,0.0012257015999999998,-0.0035944300000000005,-0.0053150654,-0.0017526546000000002,4.217,0,0
-0.0011865728000000002,-0.0005087004,-0.003592882,-0.0023084774000000003,-0.002321912,4.218,0,0
4.2319199999999986e-05,-0.0018729724000000002,-0.001797944,0.0015696066,-0.002472442,4.219,0,0
0.00039200720000000006,-0.0027797544000000003,0.00021458000000000002,0.0032262506,-0.002211872,4.22,0,0
0.000247596,-0.0021374500000000004,0.001188822,0.0038910416000000002,-0.0018014476000000003,4.221,0,0
0.0011366575999999999,0.00039359400000000015,0.00267921,0.005339698,-0.0013722056,4.222,0,0
0.0021904936,0.0031752300000000002,0.0038314359999999997,0.005706254,-0.0010768662000000002,4.223,0,0
0.0028090115999999995,0.005213512,0.0037593640000000003,0.004737582000000001,-0.0003047882,4.224,0,0
0.003969307599999999,0.006971044,0.00378536,0.00442891,0.00030832580000000003,4.225,0,0
0.004588286,0.007171914000000001,0.003970216,0.00387099,0.000539755,4.226,0,0
0.003623698,0.004574768,0.002819628,0.001731434,0.001446597,4.227,0,0
0.0017985459999999998,0.0018509260000000006,0.0013007360000000003,-0.00011876399999999983,0.0019557196,4.228,0,0
6.256799999999993e-05,0.000231646,0.000395038,-0.001553108,0.0014557108000000003,4.229,0,0
-0.001791114,-0.0025041200000000003,-0.00043548799999999993,-0.00411204,0.0014035288,4.23,0,0
-0.0034608500000000006,-0.005792208,-0.0013839780000000001,-0.006290728000000001,0.0013959566000000003,4.231,0,0
-0.004143454,-0.007161202,-0.001898046,-0.006317698,0.0004792226000000001,4.232,0,0
-0.00446009,-0.007687644000000001,-0.0022050940000000003,-0.00595051,0.00017769320000000005,4.233,0,0
-0.004317260000000001,-0.008391094000000002,-0.002686532,-0.005515454,0.0002743368,4.234,0,0
-0.0026603860000000007,-0.006940679922,-0.0026727440000000003,-0.003083532,-0.0003307732,4.235,0,0
-0.0004719780000000003,-0.0035786699219999994,-0.002493508,-0.00011156000000000013,-0.0005336934,4.236,0,0
0.0004850322,-0.0009535399220000001,-0.0017903116000000001,0.00141011,-0.00012904939999999998,4.237,0,0
0.0011169932000000002,0.001104806078,5.497040000000024e-05,0.0028135240000000004,-0.00022940159999999997,4.238,0,0
0.0022037892000000003,0.003378304078,0.0022461084000000003,0.004437398,-0.00025795340000000003,4.239,0,0
0.0019473612000000004,0.0036088300000000004,0.0039292324000000005,0.0040710222,0.00023989100000000005,4.24,0,0
0.0012738792000000002,0.0026815568000000006,0.005073896400000001,0.0029266450000000007,0.00034217940000000005,4.241,0,0
0.0028365130000000006,0.0042934068,0.005310396,0.0024834710000000005,7.020580000000001e-05,4.242,0,0
0.004982764000000001,0.0053312168,0.0047119959999999995,0.000896381,0.00017648760000000003,4.243,0,0
0.0050392380000000014,0.003419370800000001,0.004082146,-0.001089743,0.00027127140000000004,4.244,0,0
0.004060582000000001,0.0026187848,0.0012120580000000002,-0.0015306652,-0.00014334299999999999,4.245,0,0
0.0028159400000000007,0.0024939108000000005,-0.0039720499999999995,-0.0017375040000000002,-0.00020519178,4.246,0,0
-0.00048364399999999944,-0.00030185919999999977,-0.007556317999999999,-0.003033158,-2.309379999999994e-06,4.247,0,0
-0.0044311,-0.0023957712,-0.008741818,-0.0031920780000000005,-0.00047397158,4.248,0,0
-0.0063361780000000005,-0.0011821232,-0.008954004,-0.0018731760000000005,-0.00105966238,4.249,0,0
-0.006739068000000001,-0.0002904912,-0.006792625999999999,-0.0015132948800000003,-0.0009629641800000001,4.25,0,0
-0.0056257854000000005,-0.0003466340000000001,-0.0016818379999999997,-0.0009261328800000001,-0.0012956030000000002,4.251,0,0
-0.0030587774000000005,0.0007668740000000001,0.0027414820000000004,0.0013822251200000003,-0.0015807818000000003,4.252,0,0
-0.0011799601999999997,0.001373799,0.004519394,0.0031117091200000002,-0.0008809858,4.253,0,0
-0.0004833722,0.0003572829999999999,0.0045292200000000005,0.0032887511200000007,-0.0003759894,4.254,0,0
-0.00022945820000000005,-0.0001314338000000001,0.0044358900000000005,0.0040389480000000005,-0.00023035899999999994,4.255,0,0
-0.0008292868000000001,-1.626240000000003e-05,0.004415922,0.004683322000000001,0.00031379700000000005,4.256,0,0
-0.0019127048000000002,-0.0004332928,0.0034544279999999994,0.00358993,0.000861519,4.257,0,0
-0.0022051040000000003,-0.00022950980000000003,0.00240562086,0.0026769692,0.000808471,4.258,0,0
-0.0024216660000000003,0.0005104082,0.00209853746,0.0024173472000000003,0.0010144106,4.259,0,0
-0.0027633120000000004,0.000345177,0.00153423826,0.0014209332,0.001467528,4.26,0,0
-0.002221096,0.00013105499999999998,0.00030361426000000006,0.00029039600000000006,0.001407669,4.261,0,0
-0.0006180000000000001,0.0008173534000000001,-0.0003575237400000001,8.373814000000004e-05,0.001010199,4.262,0,0
0.0013490279999999997,0.0013433254000000002,-0.0005463324,-0.00058977906,0.0009207488,4.263,0,0
0.0025708339999999997,0.0012009312600000002,-0.0009577330000000001,-0.00202793506,0.0007636286000000001,4.264,0,0
0.003364886,0.00157036706,-0.0012887998,-0.00214737106,0.0001438514,4.265,0,0
0.002896264,0.00190369366,-0.00117122,-0.00188201786,-0.0001875158,4.266,0,0
0.000584188,0.0007413876600000002,-0.001176014,-0.0022808719999999998,-0.0005606998000000001,4.267,0,0
-0.0012896120000000003,-0.00033461634000000003,-0.0013844782,-0.0014032419999999999,-0.0014525076000000002,4.268,0,0
-0.0010853860000000002,-0.00032288176,-0.001086424,0.000552244,-0.001738427,4.269,0,0
0.00024615399999999995,-0.0006644855600000001,-0.0010063038,0.0010221606,-0.0011528538000000002,4.27,0,0
0.0019407780000000002,-0.0014739095600000002,-0.0012560556,0.0009421246,-0.0009318138000000001,4.271,0,0
0.003740558,-0.00205686156,-0.0010142768,0.0017752126,-0.0008854578,4.272,0,0
0.004260946,-0.00278808956,-0.000768937,0.0014849712,-0.0006006218,4.273,0,0
0.0034743368,-0.003981504,-0.0010351936,0.00011013919999999994,-0.0004963820000000001,4.274,0,0
0.0020711748000000006,-0.0046657059999999995,-0.0008933319600000001,0.00017334560000000003,-0.0008373966000000001,4.275,0,0
0.0002951708000000001,-0.0042031146,-0.00043561236,0.0006535315999999999,-0.0007721846000000001,4.276,0,0
-0.0014598352,-0.0031022958,-0.00093694316,-0.00010162840000000012,0.00012180139999999986,4.277,0,0
-0.0025230632,-0.0016676378000000003,-0.0018522469600000002,-0.0002155626000000001,0.0007440203999999999,4.278,0,0
-0.0025124132000000003,0.0004819202,-0.00189345056,0.0004267211999999999,0.0009899406,4.279,0,0
-0.0024019506000000006,0.0026315402,-0.0013018924,-0.0005753298,0.0013334172,4.28,0,0
-0.0020463808000000003,0.0040263268000000005,-0.0008584080000000001,-0.0021401598000000003,0.0012865086,4.281,0,0
-0.00012275680000000018,0.005069412000000001,7.329e-05,-0.0019665308,0.0005934120000000001,4.282,0,0
0.0016364952,0.004987808000000001,0.0012532982000000002,-0.0022620191999999997,0.0004132712000000001,4.283,0,0
0.0022154304,0.0040922258,0.0012102462,-0.0031557289999999995,0.00027029974,4.284,0,0
0.0033906678000000003,0.0029058098000000004,0.00039971219999999994,-0.0020714250000000004,-0.00031227825999999997,4.285,0,0
0.004224554,0.0007731038,-0.00024294260000000008,-0.000700867,-0.00034351065999999996,4.286,0,0
0.00365007,-0.0018982462000000002,-0.0009444186,-0.0007495262000000001,-7.530945999999997e-05,4.287,0,0
0.00295608,-0.0036449462000000005,-0.0015100548,-0.0005257542000000001,-0.00013779086,4.288,0,0
0.0024214082,-0.004351148,-0.0013167591999999999,0.0004142642000000001,-0.0002591618,4.289,0,0
0.0010182562,-0.004673404000000001,-0.0010202346000000003,0.0002943918,0.00010752680000000002,4.29,0,0
-0.0006049858000000001,-0.0039364280000000005,-0.0009240866000000001,-0.00023626420000000001,0.00023226420000000005,4.291,0,0
-0.0016162818,-0.00215851,-0.00021593059999999996,0.000298064,0.00010033400000000002,4.292,0,0
-0.0024303578000000004,-0.00031573200000000005,0.0007846234,0.000812394,0.0002819256,4.293,0,0
-0.002806606,0.00091183,0.0014167398,0.0003492316,0.00023930460000000007,4.294,0,0
-0.0024819896,0.0024018299999999998,0.0022002832,0.000658794,-0.000144858,4.295,0,0
-0.0016385532,0.0036889699999999997,0.00330084,0.001681372,-0.00032840020000000003,4.296,0,0
-0.0010724238,0.0035913620000000003,0.0034967680000000004,0.0011034419999999998,-0.00027174282000000003,4.297,0,0
-0.00048711540000000007,0.0032340731999999997,0.0028793612,0.0004535659999999999,-0.00048335122,4.298,0,0
-0.0001226644,0.0027980165999999997,0.0026946572,0.0010296219999999998,-0.00048043982,4.299,0,0
-0.00045207080000000006,0.0012421606,0.0022114272000000003,0.00029398799999999996,-7.815982000000001e-05,4.3,0,0
-0.0004551012000000001,-0.0004924853999999999,0.0009069032,-0.000962414,-3.744514e-05,4.301,0,0
-0.00011466059999999998,-0.0010784394,0.00018056320000000003,-0.0003673559999999999,6.899879999999997e-06,4.302,0,0
-5.866779999999999e-05,-0.0016573326,-0.000123892,-0.00019686239999999993,0.00031793167999999997,4.303,0,0
-0.0003030248,-0.002124922,-0.001379318,-0.0010951904000000001,0.00056862088,4.304,0,0
2.0151800000000046e-05,-0.001695717,-0.002561144,-0.0010173224000000001,0.00030238167999999994,4.305,0,0
7.158678000000006e-05,-0.0010101748,-0.002628368,-0.0009168764000000001,-0.00010198299999999999,4.306,0,0
-0.00090750922,-0.0006824799999999998,-0.002750384,-0.0017913044000000002,-4.942520000000002e-05,4.307,0,0
-0.00145247442,-0.000519042,-0.003248166,-0.0014455500000000003,-0.00029250120000000004,4.308,0,0
-0.00120236162,-0.0002841396,-0.003015106,2.433599999999991e-05,-0.0006815988,4.309,0,0
-0.0011842292200000002,-0.0007915786,-0.0023540264,0.0004521719999999999,-0.00047194459999999995,4.31,0,0
-0.0012956014,-0.0016370248000000002,-0.0025061504,0.0008725285999999999,4.1244000000000014e-05,4.311,0,0
-0.0006328284,-0.0020611915999999997,-0.0023019984,0.0020172766,0.00015470940000000003,4.312,0,0
-0.0003396768,-0.0023747296,-0.0008846344,0.0022840426000000002,0.0004154196000000001,4.313,0,0
-0.0013342255999999999,-0.0027312180000000005,0.00044650160000000007,0.0013550828,0.0007083051500000002,4.314,0,0
-0.0022801606,-0.0018294600000000002,0.0021932300000000004,0.0011626928,0.00046569615000000014,4.315,0,0
-0.0026043894,0.0002504520000000002,0.005071944,0.0015311602000000002,0.00061315355,4.316,0,0
-0.0027247374,0.0020769000000000004,0.00746696,0.00037333820000000004,0.0009331575500000001,4.317,0,0
-0.0020412530000000003,0.0036101980000000007,0.00870357,-0.0008178558,0.0008220205500000001,4.318,0,0
-0.00020683699999999975,0.0034240580000000002,0.009824482,-0.0009114632,0.0005910770000000002,4.319,0,0
0.002260991,0.0010885420000000007,0.009248112,-0.0018624892000000002,0.0006739250000000001,4.32,0,0
0.004344987,-0.0010904879999999997,0.004615012,-0.0031541952000000003,0.00038917300000000014,4.321,0,0
0.0045891014,-0.002111008,-0.0025188879999999995,-0.0029696472,-0.0005561450000000001,4.322,0,0
0.0030300094,-0.0027690900000000005,-0.008480844000000001,-0.0025019152,-0.001002746,4.323,0,0
0.0012338453999999996,-0.0022714526,-0.011910606,-0.0026059300000000002,-0.0009177078000000001,4.324,0,0
-0.0005421386000000002,-0.00026882319999999997,-0.012882045800000002,-0.0011763560000000004,-0.0011487758000000002,4.325,0,0
-0.0022881964,0.0007689308000000001,-0.009766547800000002,0.0007913979999999999,-0.0011612482,4.326,0,0
-0.0024115900000000003,0.0002078488000000001,-0.0040007998,0.001365906,-0.0006047187999999999,4.327,0,0
-0.0014543778,-0.00018448199999999997,0.0009569141999999997,0.0021315080000000003,-0.0003293574000000001,4.328,0,0
-3.478379999999993e-05,0.0001731306,0.0037252222000000003,0.0033640180000000007,0.00011635040000000001,4.329,0,0
0.0021692382,0.0007193752000000001,0.004331542,0.0030060074,0.0006737604000000001,4.33,0,0
0.004047164000000001,0.0013937032000000001,0.003810536,0.0017357786,0.0006440848000000001,4.331,0,0
0.0048123182,0.0020236672000000003,0.0033199220000000003,0.0020129646,0.00043802360000000005,4.332,0,0
0.004903226662000001,0.002433152,0.0031222460000000004,0.0018858365999999999,0.0005244802,4.333,0,0
0.0050325286620000005,0.002399582,0.0021539586000000003,0.00037426059999999995,0.00020249840000000004,4.334,0,0
0.0035878406620000005,0.0015186160000000002,0.0018453646000000001,-0.0001808528,-0.0003909976,4.335,0,0
0.00019311466200000005,0.00021438399999999997,0.0015570554,-0.00044038000000000004,-0.00025285980000000003,4.336,0,0
-0.002810413338,-0.00081499,-0.0012063386000000001,-0.002357728,-1.618240000000003e-05,4.337,0,0
-0.004615018,-0.0019324240000000003,-0.0038175566000000004,-0.0042368,-0.00017174039999999998,4.338,0,0
-0.005891540000000001,-0.002885636,-0.0037736732,-0.004179934,-0.00031165800000000003,4.339,0,0
-0.0056272660000000006,-0.0026282240860000003,-0.0031817652,-0.004108426,-0.00014888719999999999,4.34,0,0
-0.0037480920000000006,-0.001969850086,-0.0025114700000000005,-0.004109464,-0.000364449,4.341,0,0
-0.0018814020000000001,-0.000945692086,0.0005135580000000002,-0.001977916,-0.0007778626,4.342,0,0
0.00026320799999999996,0.0008847279139999999,0.0029440120000000006,0.000499918,-0.0007691298000000001,4.343,0,0
0.0013071699999999999,0.0026082979139999997,0.0029382900000000005,0.00153726,-0.0004646056000000001,4.344,0,0
0.0007463986,0.0035860239999999997,0.0025266719999999998,0.003185306,-0.00011854040000000001,4.345,0,0
0.0007167106,0.003941586,0.002019016,0.005157292000000001,0.00013459399999999995,4.346,0,0
0.0007216586,0.003519126,0.00138617762,0.005053628,0.0005599086,4.347,0,0
0.00026691219999999997,0.0032965420000000004,0.0009048964200000001,0.004574216,0.0008023129999999999,4.348,0,0
0.0004506722000000001,0.004026984000000001,0.0005409858200000001,0.005043420000000001,0.0006221828,4.349,0,0
0.0005560896,0.0038481400000000003,-0.00033810618,0.0038716984000000004,0.0005968928000000001,4.35,0,0
0.0007397336000000002,0.0034691840000000006,-0.0013515241800000001,0.0021505283999999998,0.0008970544000000001,4.351,0,0
0.0017430876000000001,0.0035310292000000003,-0.0019245218,0.0017266884,0.0008616250000000001,4.352,0,0
0.0020855500000000003,0.0021917492000000003,-0.0020389144000000003,0.0006015944000000001,0.0009352856000000001,4.353,0,0
0.001555489,-0.0005278648000000002,-0.0022560378,-0.0014791036,0.001364455,4.354,0,0
0.0011208931999999998,-0.0027660228,-0.0023451998000000003,-0.0025759900000000002,0.0011004138,4.355,0,0
0.0005566570000000001,-0.0042880868,-0.001634592,-0.003009734,0.0004038958,4.356,0,0
-0.000556321,-0.0052885399999999996,-0.0014689400000000002,-0.004091356000000001,8.248519999999994e-05,4.357,0,0
-0.001089183,-0.0047837668,-0.0016811082,-0.004004748000000001,-0.0005414926,4.358,0,0
-6.90179999999999e-05,-0.0036521314,-0.0008905642000000002,-0.0021430660000000003,-0.0014978906000000002,4.359,0,0
0.0013757898,-0.0026921154,0.00017988779999999983,-0.000620944,-0.001582354,4.36,0,0
0.0023172460000000002,-0.0016680314000000003,0.001021178,0.00048259200000000006,-0.0011400196,4.361,0,0
0.003540004,-0.0007021694,0.0022233680000000003,0.002354384,-0.0011946621999999998,4.362,0,0
0.00436627,-0.0007530966,0.0033985380000000004,0.0033352900000000003,-0.0010214322000000001,4.363,0,0
0.0032545656000000003,-0.001239538,0.0036016300000000006,0.002101644,-0.0001511182,4.364,0,0
0.0011820216000000003,-0.00039888400000000007,0.0025470580000000005,0.001333502,0.00014621639999999998,4.365,0,0
-0.00036045239999999996,0.000680764,0.0007964740000000001,0.0013480220000000002,1.4469200000000007e-05,4.366,0,0
-0.0016156643999999999,0.0008167128,-0.0007314300000000001,0.00018949120000000006,0.0006040792000000001,4.367,0,0
-0.0027475584,0.0009348308,-0.0016231802000000002,-0.0007757648,0.0014296312,4.368,0,0
-0.003134514,0.0014356923999999998,-0.0019050122000000003,-0.00015095680000000002,0.0014826872000000002,4.369,0,0
-0.0032684080000000004,0.0008507764000000001,-0.0015583234,-0.00041130280000000006,0.0014048278000000003,4.37,0,0
-0.0034800259999999998,-0.0004931136,-0.0007544743999999999,-0.0020590447999999997,0.00137553074,4.371,0,0
-0.003551068,-0.0007332410000000001,5.8042e-05,-0.002099482,0.00047610674,4.372,0,0
-0.00359911,-0.00030298900000000004,6.471179999999999e-05,-0.0016676636,-0.0005830252600000001,4.373,0,0
-0.0036214960000000005,-5.185999999999039e-07,-0.0006982402000000001,-0.0023419596,-0.0010866292600000002,4.374,0,0
-0.0030102920000000003,0.0006097134000000001,-0.0007540124,-0.0015672896,-0.00146111386,4.375,0,0
-0.0022424158000000005,0.0015813494,-0.0002612313999999999,0.00016863639999999992,-0.001696246,4.376,0,0
-0.0019857758000000002,0.00144873,-8.715799999999907e-06,0.0005093144,-0.0011347384,4.377,0,0
-0.0013319978,0.00029894199999999996,0.0004478386000000001,0.001004664,-0.0005490687999999999,4.378,0,0
-0.00048501380000000007,-0.0008774820000000001,0.0011225466,0.002461222,-0.00040469168000000004,4.379,0,0
0.00048283219999999995,-0.002017508,0.0013663220000000001,0.002900788,0.00010215032000000001,4.38,0,0
0.002169928,-0.0025948032,0.000808318,0.0024260344,0.00031177992000000005,4.381,0,0
0.004080978,-0.0021551612,0.000266802,0.0027422784,0.00015184652,4.382,0,0
0.0054339,-0.0008091732,0.00017858600000000006,0.0024908104000000006,0.00028007292000000004,4.383,0,0
0.005937058,0.0001889048000000001,5.914320000000004e-05,0.0006516044,0.00034954360000000005,4.384,0,0
0.00531890672,0.0007371608000000001,-0.00019796199999999999,-0.0007210236000000002,8.334859999999999e-05,4.385,0,0
0.0032750507199999996,0.0009287208,-0.000182486,-0.0013998320000000002,3.8705e-05,4.386,0,0
0.0006645047199999998,0.00016618480000000005,-0.00029822000000000003,-0.00299662,0.0004257468,4.387,0,0
-0.00162106728,-0.0008742012000000001,-0.0008757720000000001,-0.0045106899999999995,0.0003472994,4.388,0,0
-0.0031224912800000004,-0.0010770868000000002,-0.0009495888000000001,-0.004313234,1.129359999999999e-05,4.389,0,0
-0.003686036,-0.0008625156999999999,-0.0005825136,-0.004246426,3.408259999999997e-05,4.39,0,0
-0.003595638,-0.0010896528999999999,-0.0001719286,-0.004475652,2.5980799999999994e-05,4.391,0,0
-0.0018538820000000003,-0.00043905910000000003,0.0007193274000000001,-0.0030257520000000005,-0.0004474552000000001,4.392,0,0
0.0002494359999999999,6.151130000000001e-05,0.0020859834,-0.0012243220000000003,-0.000708442,4.393,0,0
0.0007865599999999998,-0.0006037891,0.002128904,-0.00047487400000000024,-0.0006732880000000001,4.394,0,0
0.0012155462000000001,-0.00022850620000000002,0.0005601200000000001,0.000984332,-0.001317732,4.395,0,0
0.0014757212,0.0012325762,-0.0004356089999999999,0.0030423600000000005,-0.0015726902000000001,4.396,0,0
-0.00040800280000000014,0.0019799824,-0.0011943358,0.0035167580000000005,-0.0008892282000000001,4.397,0,0
-0.0025441408000000006,0.0024206740000000003,-0.0020795154,0.0037693720000000004,-0.0003918040000000001,4.398,0,0
-0.0012718407999999998,0.0037679700000000003,-0.0009623643999999998,0.004597526,-3.649340000000007e-05,4.399,0,0
0.0009571830000000001,0.004044542,0.0018094736000000002,0.0037484986000000005,0.0009310146,4.4,0,0
0.0026039360000000003,0.0033719440000000004,0.0033658236,0.0018165186000000002,0.0013839314,4.401,0,0
0.0048262420000000006,0.0033140720000000004,0.0042626804,0.0006156665999999999,0.0004978834000000001,4.402,0,0
0.005389938,0.0023913940000000002,0.004338262,-0.0009475334000000001,5.553400000000061e-06,4.403,0,0
0.0031300440000000002,0.0004942340000000001,0.0013427139999999998,-0.0030773353999999998,0.00017834880000000005,4.404,0,0
-0.00032738400000000044,-0.00119249,-0.002026356,-0.004047230000000001,-3.6848999999999985e-05,4.405,0,0
-0.002735012,-0.00211667,-0.0035632680000000005,-0.004149374,-0.0003877418,4.406,0,0
-0.0035619360000000004,-0.002060564,-0.004634213999999999,-0.004808992000000001,-0.00019999379999999998,4.407,0,0
-0.0031196734000000005,-0.000700772,-0.0048759599999999995,-0.0049196380000000005,2.8147800000000015e-05,4.408,0,0
-0.0021373392000000008,0.0016444780000000004,-0.002684542,-0.0035514006000000003,-0.0001405852,4.409,0,0
-0.0008682777999999999,0.003766462000000001,0.00043921999999999993,-0.0022224946000000004,-3.14278e-05,4.41,0,0
0.00021392519999999997,0.0042104282000000005,0.0025226220000000004,-0.0009488486000000002,0.00032486000000000006,4.411,0,0
0.0002031292,0.0028394422000000002,0.003797548,0.0014331914000000002,0.00034223,4.412,0,0
-1.246e-05,0.0002640322000000005,0.004120466000000001,0.0036395174000000002,0.00029415280000000005,4.413,0,0
3.4058600000000006e-05,-0.0031756258,0.003142276,0.004378962,0.0005539418,4.414,0,0
-0.0001966728,-0.0058356058,0.0010175619999999996,0.005050882,0.0006319062000000001,4.415,0,0
-0.0011236218,-0.0071325799999999995,-0.0004333258,0.0055783000000000004,0.0006648676,4.416,0,0
-0.0022543758,-0.007623132000000001,-0.0022536918,0.004393645999999999,0.0011842636,4.417,0,0
-0.0028247112,-0.006697578000000001,-0.005626709800000001,0.002645844,0.0015257292,4.418,0,0
-0.002552768,-0.004722334000000001,-0.006886803800000001,0.0015143639999999998,0.0014149192000000002,4.419,0,0
-0.001834258,-0.003254875,-0.005541891800000001,-0.00038668000000000014,0.0016027472000000001,4.42,0,0
-0.001532134,-0.0021545049999999997,-0.004464186000000001,-0.0027620400000000003,0.0018533660000000002,4.421,0,0
-0.0011279600000000001,-0.000796829,-0.002957154,-0.003752704,0.0013465366000000002,4.422,0,0
-0.00068639,0.0008565270000000002,0.00011233603999999986,-0.00415307,0.0007023726000000002,4.423,0,0
-0.0011781,0.002432551,0.00181650304,-0.004869956,0.00028198000000000014,4.424,0,0
-0.000887798,0.003794332,0.0013592024399999999,-0.004116145000000001,-0.0009000000000000001,4.425,0,0
0.000412618,0.004653846000000001,0.0007975464400000001,-0.0020802769999999997,-0.002004578,4.426,0,0
0.0012456440000000002,0.004151867199999999,0.0008411064400000001,-0.00040832699999999967,-0.0019845408,4.427,0,0
0.002012438,0.0023614232,0.0018773604000000001,0.001789343,-0.0019983868000000003,4.428,0,0
0.0027065720000000004,-6.99708000000002e-05,0.0032267494000000002,0.004500519000000001,-0.0019824566,4.429,0,0
0.0026136100000000006,-0.0020703268,0.003518948,0.006074448000000001,-0.0011186756000000002,4.43,0,0
0.002008468,-0.0028153922000000004,0.0033125978,0.00609868,-0.0004398996,4.431,0,0
0.0017592838000000002,-0.0021007794000000002,0.0032305558,0.0060795680000000005,-0.00034303080000000003,4.432,0,0
0.0014416846000000001,-0.0007478594,0.0027571578,0.005473664000000001,0.00018868519999999997,4.433,0,0
0.0011991486,0.0006834846,0.0021493118000000004,0.0032676140000000003,0.0006885976,4.434,0,0
0.0012707726,0.0018370966,0.0024173598,0.0012141300000000003,0.0006093284,4.435,0,0
0.0013190986,0.002109474,0.0028238739999999997,-0.0001526279999999997,0.0006960994,4.436,0,0
0.0009290568,0.001290886,0.0022760820000000005,-0.00232893,0.0009874768,4.437,0,0
0.000507812,0.00010477800000000003,0.0013865019999999997,-0.004670214000000001,0.0007952284000000001,4.438,0,0
0.00036912600000000006,-0.0009297420000000001,0.0004233119999999997,-0.0051246600000000005,3.239439999999996e-05,4.439,0,0
-0.0008093299999999999,-0.00244669,-0.0008322080000000001,-0.00541871,-0.0004265674,4.44,0,0
-0.001622002,-0.003448064,-0.003061268,-0.0057581920000000005,-0.0007519524,4.441,0,0
-0.0013151862,-0.0030061258,-0.005256338000000001,-0.003894948,-0.0014017604000000003,4.442,0,0
-0.0012666321999999998,-0.0015881277999999998,-0.0061702860000000005,-0.0015682739999999997,-0.0015309384,4.443,0,0
-0.001103476,0.0003507542000000005,-0.006059019999999999,-0.00041435000000000007,-0.0013444604000000001,4.444,0,0
-0.00022942599999999997,0.0029221362000000006,-0.004865826,0.0013195400000000001,-0.0014086624000000001,4.445,0,0
0.0008862900000000001,0.0050986802000000005,-0.0025658260000000002,0.003190652,-0.0011363802,4.446,0,0
0.0016660042,0.005802890000000001,0.0001730560000000001,0.003147544,-0.0004026781999999999,4.447,0,0
0.0024614922,0.00551252,0.001959982,0.0025840586000000004,0.00011296020000000007,4.448,0,0
0.0028845560000000004,0.0044423608,0.0028226640000000008,0.0027173066000000003,0.0005439062000000001,4.449,0,0
0.0026318282,0.0024632148000000003,0.00310704,0.0018465706,0.0014341582000000001,4.45,0,0
0.0019098256000000004,-6.16652000000001e-05,0.0026767500000000003,-0.00016819540000000003,0.002173242,4.451,0,0
0.0010179538000000003,-0.0015384572,0.0019378748,-0.0012131174,0.0022940100000000004,4.452,0,0
0.00048813720000000005,-0.0017466932000000002,0.0011749108,-0.001825852,0.0020464800000000003,4.453,0,0
-9.08028e-05,-0.0019346758000000001,1.9572799999999875e-05,-0.0037776280000000003,0.0018700136,4.454,0,0
-0.000830847,-0.0018369678,-0.0013594312000000002,-0.005451432000000001,0.0013490174000000002,4.455,0,0
-0.0015457444,-0.0010483238000000001,-0.0018695832000000003,-0.005444652,0.00043443260000000005,4.456,0,0
-0.0025192886,-0.0009249198,-0.00207395,-0.005781686,1.1642600000000047e-05,4.457,0,0
-0.003913762,-0.0016168398000000002,-0.00233477,-0.005923354,-0.0004827454,4.458,0,0
-0.005234082,-0.001789592,-0.0018817468000000002,-0.003667134,-0.000995275,4.459,0,0
-0.0058974380000000005,-0.0016619680000000002,-0.0013254326,-0.0008698399999999998,-0.0010755742,4.46,0,0
-0.005495728000000001,-0.0014781844000000001,-0.0008477066,0.001355134,-0.0013654214,4.461,0,0
-0.003599800000000001,-0.0005201004000000001,0.0004451634000000001,0.004313744,-0.0019909254000000003,4.462,0,0
-0.0012090740000000007,0.0004971976,0.0025994174,0.006663302,-0.0021759394,4.463,0,0
0.00011725555999999978,0.0002464016,0.0048459682,0.006843298,-0.001758447,4.464,0,0
0.00162649156,0.0007985896000000001,0.0068243,0.006611324000000001,-0.0015336722000000003,4.465,0,0
0.0038297915600000003,0.002931596,0.007489510000000001,0.006178572000000001,-0.0009567698000000002,4.466,0,0
0.004308919560000001,0.003611642,0.005828768000000001,0.003974448,0.0004232922000000001,4.467,0,0
0.0032539495600000003,0.0031330412,0.0031566979999999994,0.0017939440000000004,0.0015185342000000003,4.468,0,0
0.002387376,0.0033317392000000003,0.0002582759999999998,0.00068216,0.0018197138,4.469,0,0
0.0007299880000000002,0.0023067712,-0.0034494,-0.0013672880000000001,0.0016941826000000002,4.47,0,0
-0.00256115,-0.0007205008000000002,-0.006761696000000001,-0.0036096480000000005,0.0013594722,4.471,0,0
-0.004823872000000001,-0.0032785088,-0.007564244000000001,-0.004197810000000001,0.0006960094000000002,4.472,0,0
-0.004465506000000001,-0.004631962,-0.0070864360000000015,-0.004409870000000001,1.5564200000000003e-05,4.473,0,0
-0.0030545740000000004,-0.005160058,-0.006779034000000001,-0.004858296000000001,-0.0005284797999999999,4.474,0,0
-0.0013240679999999996,-0.004954856,-0.005114097400000001,-0.003401134,-0.0009018440000000001,4.475,0,0
0.0004933820000000001,-0.0040427268,-0.0021286874000000003,-0.0005660399999999999,-0.0006352704000000001,4.476,0,0
0.0015470108000000002,-0.0025584500000000003,0.00014441060000000008,0.0013705280000000002,-0.0004012196,4.477,0,0
0.0013540074,-0.0011395064,0.0011659006,0.003143882,-0.00043699719999999996,4.478,0,0
0.0010762414,0.0004080936,0.0025762426000000005,0.005529172000000001,-0.000310376,4.479,0,0
0.0019339934000000003,0.0018065216000000004,0.004062276,0.0065148639999999996,-0.00012914999999999997,4.48,0,0
0.0029522734,0.0022397224,0.004366276,0.005658566,-0.0003309754,4.481,0,0
0.0034937886000000005,0.0025451336000000004,0.004490178,0.0053340079999999995,-0.0005373731999999999,4.482,0,0
0.003752180000000001,0.0026651600000000006,0.0048177820000000005,0.005126302000000001,0.00019789960000000012,4.483,0,0
0.003270594000000001,0.0020917522,0.004195896,0.0034129739999999996,0.0009564624000000003,4.484,0,0
0.0015767760000000002,0.0021748842000000003,0.0032534219999999997,0.001655472,0.0012385675740000002,4.485,0,0
-0.000138572,0.0031284222000000006,0.0033101259999999996,0.000677562,0.0017675793740000003,4.486,0,0
-0.0006434566,0.0045321342,0.001466024,-0.0017153020000000001,0.002356319174,4.487,0,0
-0.0009134562,0.0061116182,-0.0018373220000000004,-0.004750634,0.0019379631740000002,4.488,0,0
-0.0016213382,0.006547876000000001,-0.0024918340000000005,-0.006067696,0.001112519174,4.489,0,0
-0.0025099462,0.0045428000000000005,-0.0019766960000000004,-0.006868536,0.0007711219999999998,4.49,0,0
-0.0025281482,0.0006605840000000005,-0.0026607534,-0.007559434,0.00013467200000000001,4.491,0,0
-0.0016785575999999998,-0.003632698,-0.0030944454000000005,-0.0060192380000000005,-0.0009921040000000002,4.492,0,0
-0.0010323679999999999,-0.007724278000000001,-0.0028421454000000005,-0.003199078,-0.001671512,4.493,0,0
0.00024387800000000032,-0.010010352,-0.003906163400000001,-0.0013137340000000002,-0.001456448,4.494,0,0
0.0025358620000000003,-0.008676718000000002,-0.0056055314000000005,0.001095794,-0.0012720040000000002,4.495,0,0
0.004148452,-0.004947012,-0.006054914000000001,0.004010548000000001,-0.0013478920000000003,4.496,0,0
0.004106114,-0.0013455499999999998,-0.00443216,0.005156534000000001,-0.0009284440000000001,4.497,0,0
0.003813642,0.0017795540000000002,-0.0017115460000000002,0.0048939280000000005,-0.0005192896,4.498,0,0
0.00403298,0.003994338,0.00025615000000000013,0.005243090000000001,-0.0006719242,4.499,0,0
0.003586894,0.0038957410000000007,0.001946592,0.004939796000000001,-0.00051141838,4.5,0,0
0.0025482992,0.0028389274,0.0029700380000000004,0.002981888,-0.00011589298,4.501,0,0
0.0022347572,0.0024189714,0.003413042,0.0016890324,-8.013717999999998e-05,4.502,0,0
0.0024747572000000002,0.0020947874,0.003824136,0.0009297464,-9.337117999999998e-05,4.503,0,0
0.0019920892,0.0018141114000000003,0.0036157000000000003,-0.0010048776000000001,-6.621197999999998e-05,4.504,0,0
0.0013752077999999999,0.0017403126000000001,0.0031257320000000004,-0.0027049436,-0.00047514979999999996,4.505,0,0
0.0010445346000000002,0.0012614362,0.0024985956000000004,-0.0027510036,-0.0009595071999999999,4.506,0,0
-0.0007364133999999999,-0.0002875058,0.0014289956000000002,-0.003073712,-0.001305101,4.507,0,0
-0.0031937913999999998,-0.0018578778000000002,-0.0008012163999999999,-0.003247534,-0.0019063774000000003,4.508,0,0
-0.0043559154,-0.0022555372000000002,-0.0028679244,-0.0014274280000000001,-0.002601888,4.509,0,0
-0.004718472,-0.0023684865999999997,-0.0034928044,0.0004216879999999999,-0.002896422,4.51,0,0
-0.004472017799999999,-0.0021836594000000003,-0.0030988279999999997,0.0009950746,-0.0024691741000000002,4.511,0,0
-0.0030997058,-0.0008530314,-0.00215349,0.0020615466000000002,-0.0018687840999999999,4.512,0,0
-0.0016300138,0.0003583926,-0.0001633600000000002,0.0029312326,-0.0008504001,4.513,0,0
-0.0008941377999999999,0.0003463532,0.002291416,0.0013618885999999999,0.0006981899000000001,4.514,0,0
-0.00031367536,0.00045093299999999993,0.0032675940000000004,-0.0005554474000000001,0.0019173539,4.515,0,0
-7.951755999999996e-05,0.0010592778000000002,0.003574242,-0.0011640060000000002,0.0026954720000000004,4.516,0,0
-0.0006761735599999999,0.0005110816000000001,0.0032597750000000003,-0.002859654,0.0035897820000000006,4.517,0,0
-0.0012912795600000001,-0.0005048964,0.0025096622000000007,-0.004998878000000001,0.00400471,4.518,0,0
-0.00168759956,-0.0010050016000000001,0.0020612442000000003,-0.005243266,0.003812350000000001,4.519,0,0
-0.0029449740000000004,-0.0021125682,0.0015917881999999999,-0.005876304000000001,0.004082726,4.52,0,0
-0.0048444000000000004,-0.0039686102,0.0008947428,-0.007964564,0.004051468000000001,4.521,0,0
-0.005200786000000001,-0.004850422,0.000600331,-0.008589256,0.003261728,4.522,0,0
-0.003584842000000001,-0.0035176820000000003,0.0006496777999999998,-0.007575138,0.0027077379999999995,4.523,0,0
-0.0020935880000000004,-0.002158424,-0.0007298662000000001,-0.007360318000000001,0.002529102,4.524,0,0
-0.00010711000000000032,-0.00071747,-0.0031487622000000003,-0.006034424000000001,0.0016475414000000003,4.525,0,0
0.003122818,0.002063182,-0.004393818800000001,-0.0021678920000000003,0.00010194540000000001,4.526,0,0
0.0048723180000000005,0.003365632,-0.0041896368,0.000957598,-0.0010602006,4.527,0,0
0.005393424000000001,0.003288366,-0.0045858388,0.003168408,-0.0019495986,4.528,0,0
0.007140228,0.004588784,-0.0043948888,0.0061202340000000004,-0.0034702506000000004,4.529,0,0
0.008308954,0.005422028000000001,-0.002148425,0.008069058000000002,-0.00533111,4.53,0,0
0.007579342000000001,0.0045414800000000005,-0.00012800500000000005,0.007431144000000001,-0.00606671,4.531,0,0
0.00717114,0.004947792000000001,0.0012086378,0.006058024,-0.006392154,4.532,0,0
0.006267104,0.005120072000000001,0.0031013258000000005,0.003634942000000001,-0.006985248,4.533,0,0
0.0032201920000000006,0.0028833540000000003,0.0048714378000000004,-0.0003924579999999996,-0.006378582000000001,4.534,0,0
0.0006771760000000003,0.000632814,0.0052650200000000005,-0.00320032,-0.0045052467999999995,4.535,0,0
0.00043403600000000017,-0.0009650080000000001,0.00458651,-0.0037650178,-0.0021357768,4.536,0,0
0.0004218980000000002,-0.0033637,0.0032390640000000003,-0.0025513198,0.0011011112,4.537,0,0
-0.0008418919999999998,-0.006107008000000001,0.000339102,0.0007941462000000004,0.0041044592000000005,4.538,0,0
-0.00242384,-0.007049818,-0.003457732,0.005957566200000001,0.0059233611999999995,4.539,0,0
-0.004922198,-0.007020362000000001,-0.005697824000000001,0.010349798200000001,0.007345362,4.54,0,0
-0.009677344000000001,-0.007100296000000001,-0.006332302,0.013085958000000002,0.007464140000000001,4.541,0,0
-0.014428524000000002,-0.005747278,-0.0059101760000000005,0.01533664,0.006039784,4.542,0,0
-0.01706318,-0.0033973360000000004,-0.003406318,0.01669858,0.005423026000000001,4.543,0,0
-0.01814002,-0.0020881312,0.0003590039999999998,0.0166978,0.0062220420000000005,4.544,0,0
-0.017488780000000002,-0.0014676772000000002,0.002951314,0.01653596,0.007053740000000001,4.545,0,0
-0.014650504,-0.00012511420000000002,0.0038085839999999994,0.015267224,0.008243678,4.546,0,0
-0.010002246000000001,0.0016356738,0.0032522927999999993,0.010902598000000001,0.009617354,4.547,0,0
-0.004587503999999999,0.0026557798,0.0026660988,0.004615757999999999,0.009553498,4.548,0,0
9.498999999999987e-05,0.0031144450000000004,0.0024087328000000005,-0.0023015220000000003,0.007917014000000002,4.549,0,0
0.0034587479999999998,0.004548793000000001,0.0004672127999999999,-0.010072322000000002,0.005945132,4.55,0,0
0.005476802,0.005483040000000001,-0.0012384572000000002,-0.017433626,0.003147568,4.551,0,0
0.005801918,0.004664308,-0.00015436400000000015,-0.02195496,-0.001170352,4.552,0,0
0.004696046000000001,0.0036208080000000005,0.0014002479999999998,-0.024783780000000005,-0.00593721,4.553,0,0
0.0040487760000000005,0.0022701720000000004,0.001468816,-0.02766386,-0.011115506,4.554,0,0
0.0049755220000000005,0.0005074159999999999,0.0025847316,-0.02930954,-0.015652144,4.555,0,0
0.005894202000000001,-0.001311544,0.0047069036,-0.02865562,-0.01794106,4.556,0,0
0.005691044,-0.0031317940000000002,0.0039450976,-0.02668106,-0.01791586,4.557,0,0
0.005821566,-0.004290596,0.0014420556,-0.02265781,-0.015998878,4.558,0,0
0.0071459620000000005,-0.0035974018000000003,0.0006791921999999998,-0.015097392,-0.012734078000000001,4.559,0,0
0.008506158,-0.0019381277999999998,0.00037099259999999977,-0.0070067720000000005,-0.00950223,4.56,0,0
0.010805128,1.1840200000000009e-05,-0.0018832374000000002,-0.0006074939999999994,-0.008346194,4.561,0,0
0.014606192,0.0025340422000000003,-0.0041066854,0.005323626,-0.008646293999999999,4.562,0,0
0.01727626,0.0040582262,-0.0048581014,0.009861896,-0.008155909999999999,4.563,0,0
0.01809008,0.004124078,-0.0051613760000000005,0.011629718,-0.0067922108,4.564,0,0
0.01743356,0.0032296416000000003,-0.004909282200000001,0.012985058,-0.0055799884,4.565,0,0
0.014780916000000002,0.0020876420000000002,-0.0031872882,0.01703032,-0.0025387224,4.566,0,0
0.010069706000000001,0.0008083782000000001,-0.0009966982000000001,0.02314774,0.003754757600000001,4.567,0,0
0.00456812,-0.00016782979999999998,-0.00016359420000000005,0.029858759999999998,0.010017671600000002,4.568,0,0
-0.0005254199999999995,-0.0006974137999999999,0.00029865539999999997,0.036169160000000006,0.014442852400000001,4.569,0,0
-0.005446879999999999,-0.0019489094,0.0007907996,0.03883264,0.017823422000000002,4.57,0,0
-0.010302216000000001,-0.0038860338,0.0010195596,0.0355915,0.019366440000000002,4.571,0,0
-0.014397406000000001,-0.0055970840000000004,0.0017381716000000001,0.027253410000000002,0.017573826,4.572,0,0
-0.0175833,-0.00677029,0.0029337735999999995,0.016856212,0.014422987999999998,4.573,0,0
-0.021661120000000002,-0.007721774000000001,0.0035506979999999997,0.007113732000000001,0.012551468000000001,4.574,0,0
-0.025918160000000003,-0.007418634,0.004402828,0.000540996,0.012349728,4.575,0,0
-0.02851062,-0.0063736980000000006,0.005509104000000001,-0.002556712,0.014049148000000001,4.576,0,0
-0.02891644,-0.005883266,0.004055356,-0.005291262,0.017015962000000003,4.577,0,0
-0.02644928,-0.003217564,0.001851078,-0.008999924,0.019584,4.578,0,0
-0.020295612400000003,0.0022862439999999998,0.000678048,-0.013804924,0.01957914,4.579,0,0
-0.010560092399999998,0.006047500000000001,-0.0007184153999999999,-0.020163708000000002,0.01653506,4.58,0,0
-2.0212399999999624e-05,0.007768774,-0.0017432354000000002,-0.027014540000000004,0.00967374,4.581,0,0
0.010179407599999999,0.009793360000000001,-0.0008643994000000001,-0.03131368,-0.0010189000000000005,4.582,0,0
0.020747987599999997,0.009637937999999999,-8.06674e-05,-0.032785680000000005,-0.013665600000000002,4.583,0,0
0.02876124,0.006651836,-0.0025657974000000004,-0.03245608,-0.02795326,4.584,0,0
0.031177740000000002,0.0048915239999999995,-0.0060082220000000006,-0.029282700000000002,-0.04136988,4.585,0,0
0.0314783,0.005237676,-0.008295126,-0.024504920000000003,-0.04958282,4.586,0,0
0.03060082,0.005241242,-0.009496876000000001,-0.02081664,-0.05217912000000001,4.587,0,0
0.026320780000000002,0.005212904,-0.0087210418,-0.017591299999999997,-0.049999339999999996,4.588,0,0
0.0211627,0.005453026,-0.0049702638,-0.013871745999999999,-0.041833180000000005,4.589,0,0
0.01746035,0.004377447800000001,-0.0007284998000000003,-0.010638580000000002,-0.030342728000000003,4.59,0,0
0.013953224000000002,0.0025470218000000003,0.00048066020000000006,-0.006602952,-0.019925192400000003,4.591,0,0
0.009859618000000002,0.0022561998000000007,-0.00012386579999999975,0.0003299080000000003,-0.011315360400000002,4.592,0,0
0.006255684000000001,0.0031148078,-0.0008984999999999999,0.008292268000000002,-0.0042725124,4.593,0,0
0.0026733940000000004,0.0025704658,-0.0015496271999999999,0.015640694,0.0014995475999999997,4.594,0,0
-0.000701806,0.0008567500000000001,-0.0011491972,0.022681068000000002,0.0062492956,4.595,0,0
-0.0042606400000000004,-0.0006814140000000002,0.0010957028000000003,0.02820234,0.011019580000000001,4.596,0,0
-0.009285514,-0.0028896580000000002,0.0041132688,0.032217220000000005,0.017171688,4.597,0,0
-0.015355940000000002,-0.005997964000000001,0.006537626800000001,0.034775600000000004,0.023957900000000004,4.598,0,0
-0.021277490000000003,-0.007464438,0.009342576,0.03658882000000001,0.030200960000000006,4.599,0,0
-0.02631646,-0.006097122,0.011920602000000002,0.03569828,0.0354575,4.6,0,0
-0.03038574,-0.0044936640000000005,0.013587176000000001,0.028492588000000003,0.03894728000000001,4.601,0,0
-0.03185144,-0.0033124520000000005,0.015465900000000001,0.017956148,0.039819240000000006,4.602,0,0
-0.030158560000000004,-0.002493416,0.01456456,0.006597548000000001,0.03845966,4.603,0,0
-0.026688240000000002,-0.0043439,0.00915492,-0.006439571999999999,0.035968480000000004,4.604,0,0
-0.021520532,-0.00726363,0.0011057999999999997,-0.016598332,0.0324316,4.605,0,0
-0.014987059399999999,-0.008435338,-0.008735040000000001,-0.019091780000000003,0.027421920000000002,4.606,0,0
-0.0097552674,-0.009199035999999999,-0.01768488,-0.018087128000000004,0.020940188000000002,4.607,0,0
-0.0058168514000000015,-0.009575391999999999,-0.02131388,-0.0148314312,0.013471836000000003,4.608,0,0
-8.405140000000005e-05,-0.006309970000000001,-0.019310473999999998,-0.007819361200000001,0.004100376,4.609,0,0
0.0064407406,-0.0005135500000000002,-0.014059468,-0.001140051200000001,-0.007120484000000002,4.61,0,0
0.012684728000000001,0.0039432600000000005,-0.0063234699999999994,0.0026869268,-0.018592644,4.611,0,0
0.020078436000000005,0.0076016420000000005,0.0009615920000000003,0.0051020008,-0.029828292000000006,4.612,0,0
0.026627480000000002,0.010725722,0.005862432000000001,0.005545425999999999,-0.039254000000000004,4.613,0,0
0.029818040000000004,0.01138362,0.008070756000000002,0.0019826239999999997,-0.044319220000000006,4.614,0,0
0.028973820000000004,0.008556330000000001,0.007799702000000001,-0.004002246,-0.043669120000000006,4.615,0,0
0.02496908,0.0037093300000000003,0.007028126000000001,-0.010337223999999999,-0.037310779999999995,4.616,0,0
0.02076592,-0.0009903700000000004,0.005255060000000001,-0.016045450000000003,-0.025448196000000003,4.617,0,0
0.0166394,-0.004716964000000001,0.00230545,-0.019733092,-0.011042735999999997,4.618,0,0
0.010787703000000001,-0.006681596000000001,0.0004358944,-0.02099646,0.0025268439999999994,4.619,0,0
0.004271923,-0.0064689472,-0.0002707140000000001,-0.018971902,0.013856344,4.62,0,0
-0.0019944369999999995,-0.0043466284,-0.0015619420000000002,-0.0133785206,0.020836444000000003,4.621,0,0
-0.009279777,-0.0020866902000000005,-0.001996242,-0.007232414600000001,0.023578379999999996,4.622,0,0
-0.017676957,-0.0012457682,-0.001740354,-0.0015504146000000006,0.024410380000000002,4.623,0,0
-0.02592126,-0.0014437222000000002,-0.0030959364000000002,0.0030199234,0.02420936,4.624,0,0
-0.03154046,0.0003578329999999999,-0.004191048,0.0061000674,0.023873000000000005,4.625,0,0
-0.0332929,0.0046228742,-0.0035674178,0.011575286,0.02486554,4.626,0,0
-0.03203752,0.008595156,-0.0024121077999999995,0.019492500000000003,0.02596712,4.627,0,0
-0.02777396,0.012403988000000001,-0.0011544177999999994,0.0241598,0.025717180000000003,4.628,0,0
-0.021028223999999998,0.015718294,0.0010687702000000002,0.025001922,0.023856580000000002,4.629,0,0
-0.013231569200000003,0.015772772,0.0037392082,0.023623644000000003,0.019399884,4.63,0,0
-0.0053209291999999995,0.012918866000000001,0.005163116000000001,0.01634977,0.011948156000000001,4.631,0,0
0.0013291707999999996,0.008923824680000001,0.004675022,0.005741076,0.0006257360000000017,4.632,0,0
0.006696910800000001,-0.0006957753199999996,0.0025159899999999996,-0.0016249160000000001,-0.014026244,4.633,0,0
0.0127955948,-0.014817115320000001,-0.0006352300000000001,-0.005493326000000001,-0.026954764,4.634,0,0
0.018546180000000002,-0.024004447320000004,-0.003664482,-0.007085722000000001,-0.037249448000000004,4.635,0,0
0.02166954,-0.027523061320000004,-0.00500211564,-0.0074268879999999995,-0.046349879999999996,4.636,0,0
0.0234087,-0.027862578000000002,-0.00374383764,-0.009971714,-0.049693860000000006,4.637,0,0
0.025214920000000002,-0.020180344,0.0014825863600000004,-0.015230162,-0.046518140000000006,4.638,0,0
0.027017860000000005,-0.005693144,0.00847384636,-0.020964551999999997,-0.0420359,4.639,0,0
0.028828720000000002,0.005514696,0.01076621036,-0.0276479,-0.03755778,4.64,0,0
0.0299974,0.010916736,0.007252571999999999,-0.034035880000000004,-0.03288818,4.641,0,0
0.029710920000000005,0.014183594,0.0007675219999999979,-0.03710136000000001,-0.029526620000000003,4.642,0,0
0.027804520000000006,0.014698944000000002,-0.006703758000000001,-0.033604100000000005,-0.02528914,4.643,0,0
0.0237526,0.011611574,-0.011909992000000001,-0.020921360000000003,-0.01775467,4.644,0,0
0.017269806,0.008689496,-0.011733938000000001,-0.0006237400000000028,-0.007559230000000001,4.645,0,0
0.010753030000000002,0.006934554000000001,-0.006078038000000001,0.02247194,0.005062930000000001,4.646,0,0
0.00417909,0.0036095200000000006,0.0025382420000000004,0.04352072,0.01884977,4.647,0,0
-0.006044470000000001,9.90499999999994e-05,0.009499682,0.05839254,0.03010685,4.648,0,0
-0.01667159,-0.0017107800000000005,0.011271058,0.06409896,0.036515740000000005,4.649,0,0
-0.025096215999999998,-0.00425775,0.009262000000000001,0.0611709,0.039441040000000004,4.65,0,0
-0.034908720000000004,-0.007095956,0.005271404,0.05263516,0.04066704,4.651,0,0
-0.04306724,-0.008044058,8.762600000000037e-05,0.04176142,0.040360400000000005,4.652,0,0
-0.0447976,-0.007634144000000001,-0.004039640000000001,0.028861277600000006,0.03864426,4.653,0,0
-0.04461586,-0.006994650000000001,-0.006182526000000001,0.012993037600000002,0.036763399999999995,4.654,0,0
-0.04336226,-0.0070886740000000005,-0.006167896000000001,-0.0025646224,0.035420400000000005,4.655,0,0
-0.03611594,-0.007013372,-0.004188794400000001,-0.016893082400000002,0.03375048,4.656,0,0
-0.02794614,-0.006840972000000001,-0.0021279104,-0.032251822400000005,0.02996226,4.657,0,0
-0.02006203,-0.0076957,-0.0014985118,-0.04483032,0.023286550000000003,4.658,0,0
-0.0063977700000000005,-0.0078085540000000005,-0.0014604758,-0.050063920000000005,0.01449517,4.659,0,0
0.00892825,-0.007805011999999999,-0.0023816978,-0.051908840000000005,0.002377749999999999,4.66,0,0
0.020964210000000004,-0.00764343,-0.0049112234,-0.051886600000000005,-0.014301170000000002,4.661,0,0
0.03362243000000001,-0.001833734,-0.0060270314,-0.045451120000000005,-0.030642210000000003,4.662,0,0
0.045772560000000004,0.010083426,-0.004634312,-0.03515752,-0.04099912,4.663,0,0
0.048788660000000005,0.022553986,-0.001928918,-0.025512456,-0.04430554,4.664,0,0
0.0438494,0.035454196,0.0013754640000000003,-0.014873116,-0.040357064000000005,4.665,0,0
0.034782564,0.049155660000000004,0.0030648520000000003,-0.002014836,-0.029096002,4.666,0,0
0.020938504,0.05655646,0.0027417180000000006,0.008712604,-0.014134201999999998,4.667,0,0
0.006996083999999998,0.05010914,0.0033672400000000005,0.015710243999999998,-0.002322722,4.668,0,0
-0.0029139660000000013,0.024045540000000004,0.005017854,0.0210983,0.0029474520000000006,4.669,0,0
-0.012181146,-0.0096236,0.006670926000000001,0.02336638,0.0025754919999999995,4.67,0,0
-0.020398990000000002,-0.033289320000000004,0.008716238000000001,0.02182028,-0.0013336700000000003,4.671,0,0
-0.023224050000000003,-0.048670660000000004,0.008710810000000001,0.017704842000000002,-0.00822009,4.672,0,0
-0.023251450000000003,-0.053595762,0.004910222000000001,0.009774522,-0.01626017,4.673,0,0
-0.022301418000000003,-0.039287548,-0.0009777179999999998,-0.0015674580000000016,-0.021535944,4.674,0,0
-0.018599034000000004,-0.016791577600000003,-0.005806302,-0.011305198000000002,-0.021999440000000002,4.675,0,0
-0.011892584000000003,-0.004548407599999999,-0.007391772,-0.017263238,-0.018268518,4.676,0,0
-0.005198504,-0.0011235706000000002,-0.0066706368,-0.018956992000000002,-0.011617098,4.677,0,0
-0.002057622,-0.0006847906000000002,-0.0051587548,-0.014046138000000003,-0.001239678000000001,4.678,0,0
-0.0005547760000000001,-0.0011440626,-0.0044514628,-0.003303998,0.010397842000000001,4.679,0,0
0.00219638,-0.0018161330000000002,-0.0062476388,0.008846442000000001,0.018917422,4.68,0,0
0.00587847,-0.0016230610000000003,-0.0084304888,0.018878542,0.022989560000000003,4.681,0,0
0.013023570000000002,0.0034779419999999995,-0.00899019,0.026053213999999998,0.023804640000000002,4.682,0,0
0.022990248,0.011360784,-0.008148076,0.029254880000000004,0.022003500000000002,4.683,0,0
0.03037008,0.018617482,-0.002748328000000001,0.027012000000000005,0.01731539,4.684,0,0
0.03452024,0.024781902,0.006826472,0.021475616,0.010961564600000001,4.685,0,0
0.03534384000000001,0.028018519999999998,0.012674692,0.0130877,0.0041086646,4.686,0,0
0.028374834,0.02596958,0.012774322000000001,0.0012547799999999996,-0.0027892154000000004,4.687,0,0
0.015420894000000004,0.0193927256,0.010595676,-0.010886780000000002,-0.0084381154,4.688,0,0
0.001902954,0.006185705600000001,0.005666054,-0.02118642,-0.0104585654,4.689,0,0
-0.013740786000000001,-0.010635814400000002,-0.0010894620000000005,-0.027580396000000004,-0.008887332,4.69,0,0
-0.022305146,-0.021814754400000004,-0.005171382,-0.027885894,-0.00598337,4.691,0,0
-0.018461520000000002,-0.027679894400000005,-0.0046613102,-0.021768329999999995,-0.002488638,4.692,0,0
-0.0157809548,-0.030877380000000003,-0.0016256182000000004,-0.011089129999999999,0.0011866983999999996,4.693,0,0
-0.0184728548,-0.028221080000000006,0.0017731638,0.0007582900000000017,0.0028866524,4.694,0,0
-0.017688754800000005,-0.022447340000000003,0.0047709998,0.010346770000000002,0.0028348864,4.695,0,0
-0.019539354800000006,-0.02108146,0.0071509178,0.017550584,0.0034056004,4.696,0,0
-0.03195331480000001,-0.022681740000000002,0.008675814,0.022495160000000004,0.0060308884,4.697,0,0
-0.03893664000000001,-0.022611460000000003,0.0075030032,0.02307048,0.009250472000000001,4.698,0,0
-0.032543284000000006,-0.018788290000000003,0.0038026952,0.02143286,0.011440278,4.699,0,0
-0.019440144000000003,-0.011683534,0.0006130432000000005,0.01900842,0.013976636,4.7,0,0
-0.002180363999999999,-0.003230994000000001,-0.0013540668,0.014708952,0.01655234,4.701,0,0
0.019178696000000002,0.0062785060000000005,-0.0031134228,0.008941844000000001,0.015889896,4.702,0,0
0.038604156,0.015734866,-0.0033993196000000002,0.0026692240000000004,0.012307954,4.703,0,0
0.04921864000000001,0.022296196,-0.0014466956,-0.004309136,0.006718193999999999,4.704,0,0
0.048380480000000003,0.02558964,-0.000510915,-0.012523976000000001,-0.004477826000000002,4.705,0,0
0.0354474,0.02694902,-0.0019478850000000001,-0.019389328,-0.015370786,4.706,0,0
0.017230879999999997,0.02640248,-0.003954017000000001,-0.02393216,-0.018512188000000002,4.707,0,0
-0.0010909599999999993,0.02447732,-0.006110897400000001,-0.022235072,-0.016550238000000002,4.708,0,0
-0.017784100000000004,0.022264100000000002,-0.008178307400000001,-0.009992812000000002,-0.008592018,4.709,0,0
-0.031712180000000006,0.018959082000000002,-0.007824516000000002,0.006520827999999999,0.006982982,4.71,0,0
-0.041538820000000004,0.012683993999999999,-0.004083734,0.021281828000000003,0.022975442000000002,4.711,0,0
-0.04689374,0.005861514,0.0002465620000000001,0.034536188,0.033427808,4.712,0,0
-0.0501895,0.0008649879999999998,0.0033923,0.042124480000000006,0.03918696000000001,4.713,0,0
-0.05245608,-0.00396328,0.004755874,0.03869472,0.04006296,4.714,0,0
-0.05247302000000001,-0.008351362,0.0038220999999999993,0.029412834000000002,0.035257800000000006,4.715,0,0
-0.04822072000000001,-0.010338654000000001,0.002300424,0.020976266,0.02672155,4.716,0,0
-0.039598574,-0.012588794,0.00170636,0.012484414400000001,0.01541957,4.717,0,0
-0.024876994000000003,-0.016296768,0.0012950500000000003,0.0015137744,-0.00018238999999999755,4.718,0,0
-0.0020433540000000007,-0.0172921,0.0008436860000000002,-0.0094561256,-0.01783541,4.719,0,0
0.027623306,-0.014868290000000001,0.000570582,-0.0211191996,-0.033820949999999995,4.72,0,0
0.056344106000000005,-0.012233462,-0.0006698100000000002,-0.03495889160000001,-0.0474474,4.721,0,0
0.07695604,-0.008769722,-0.0025638740000000003,-0.04544202000000001,-0.056940000000000004,4.722,0,0
0.08941022000000001,-0.0006151419999999991,-0.004033724000000001,-0.05134586000000001,-0.060336219999999996,4.723,0,0
0.09074570000000001,0.009716458,-0.004421312,-0.054489880000000004,-0.05965418,4.724,0,0
0.08205304000000001,0.018053928000000004,-0.0034329752,-0.05082722,-0.0562389,4.725,0,0
0.06945606000000001,0.024427420000000002,-0.0008858391999999997,-0.040661960000000004,-0.04997836,4.726,0,0
0.055848560000000005,0.02775248,0.0036959728000000008,-0.030708272000000005,-0.04160436,4.727,0,0
0.04021594000000001,0.0239675362,0.009429974800000001,-0.019406236,-0.03159630200000001,4.728,0,0
0.026234648,0.0141702422,0.014088946800000002,-0.006676455999999999,-0.022140648000000002,4.729,0,0
0.017088436000000005,0.004279392200000001,0.014305766000000001,0.002247064,-0.012615982000000001,4.73,0,0
0.008204748,-0.0037588478000000003,0.009419418,0.005918824,-0.0028611820000000003,4.731,0,0
0.0018708180000000002,-0.008917327800000001,0.001927458,0.006842734,0.0048965580000000005,4.732,0,0
-0.003072122,-0.010212158,-0.005872662000000001,0.007953617999999999,0.010837500000000002,4.733,0,0
-0.013015350000000002,-0.009498296,-0.011752442000000002,0.009244478,0.016227826,4.734,0,0
-0.030926258,-0.009970886000000002,-0.011436290000000002,0.012864078000000001,0.022191340000000004,4.735,0,0
-0.05341619,-0.010750006000000001,-0.005331509999999999,0.016937298,0.027558200000000005,4.736,0,0
-0.0766771,-0.011902806000000002,-0.0008507120000000002,0.016860764,0.031170220000000002,4.737,0,0
-0.09780192,-0.015517752000000003,0.0006277660000000001,0.013668518,0.033887679999999996,4.738,0,0
-0.10965738,-0.01797392,0.00043186600000000037,0.010959982,0.03504314,4.739,0,0
-0.11032224,-0.016910164000000002,-0.002616944,0.007221150000000001,0.03249852,4.74,0,0
-0.09925282,-0.014253924000000001,-0.005769426,0.0024052770000000004,0.02738226,4.741,0,0
-0.076720582,-0.010409263200000003,-0.004633364000000001,0.0025400730000000003,0.021703400000000005,4.742,0,0
-0.04372600199999999,-0.004620283200000001,-0.0001249619999999993,0.005739199,0.015686438,4.743,0,0
-0.0059660019999999946,0.00021808479999999996,0.004897378000000001,0.007067535000000001,0.011383200000000001,4.744,0,0
0.030086378000000004,0.0027814648000000003,0.009368338,0.009878307,0.0096072,4.745,0,0
0.06089865800000001,0.0049607828,0.011140104000000001,0.019223999999999998,0.0085374,4.746,0,0
0.08044504000000001,0.005939728,0.00933567,0.030521319999999998,0.007731066000000001,4.747,0,0
0.08771346000000001,0.0057143160000000005,0.005416796,0.03914276,0.00629738,4.748,0,0
0.08537294000000001,0.005698044000000001,0.001633658,0.04773834,0.0028194179999999993,4.749,0,0
0.07596876000000001,0.006040070000000001,-0.002099402,0.0534941,-0.003255561999999999,4.75,0,0
0.06258748,0.005829964000000001,-0.006083346,0.047522560000000005,-0.010771022,4.751,0,0
0.04905312000000001,0.0057904440000000005,-0.007298228,0.026928759999999996,-0.016705948,4.752,0,0
0.03661786,0.005440696000000001,-0.005151136,-0.0016493200000000027,-0.017543756,4.753,0,0
0.0227904872,0.0035068880000000005,-0.0030570080000000004,-0.031446,-0.011147236,4.754,0,0
0.0081755872,0.0016162100000000003,-0.00133036188,-0.05761434,0.0011478440000000003,4.755,0,0
-0.0051408528,0.0010223660000000002,0.0004899341200000002,-0.0716561,0.016503224,4.756,0,0
-0.0208885928,0.0014352980000000002,-0.0004520658799999997,-0.06797402,0.030711364000000005,4.757,0,0
-0.0394481328,0.002202194,-0.00322933188,-0.05162103,0.03875194,4.758,0,0
-0.05065736,0.0042634660000000005,-0.00521146388,-0.03143735600000001,0.03720744000000001,4.759,0,0
-0.04946546,0.006812422,-0.0055307360000000005,-0.014379666,0.025988780000000003,4.76,0,0
-0.04294745,0.007126256,-0.003495136,-0.0038110481999999997,0.00780162,4.761,0,0
-0.032925060000000006,0.004155512,-0.00031884999999999986,0.0027966758,-0.010657419999999997,4.762,0,0
-0.0184823768,0.0008434560000000002,0.002032674,0.007663025800000001,-0.022448839999999998,4.763,0,0
-0.007360665800000001,-0.0013031380000000003,0.0024470940000000004,0.0102564718,-0.026933044,4.764,0,0
-0.0026097798000000003,-0.0032964220000000002,0.00010150000000000003,0.011743581800000001,-0.024423043999999998,4.765,0,0
0.0023324701999999998,-0.0022979800000000007,-0.004117076,0.013549656,-0.015545854,4.766,0,0
0.0089202002,0.002281106,-0.008081426,0.014294652000000001,-0.006067975999999999,4.767,0,0
0.014701657000000002,0.006166978,-0.01043172,0.012846212000000003,-0.00235445,4.768,0,0
0.021207086,0.0070033199999999995,-0.008775756000000001,0.011661192,-0.005358706,4.769,0,0
0.024648700000000003,0.005503878,-0.004281458,0.012815112000000002,-0.014146566,4.77,0,0
0.02132804,0.0013045339999999991,-0.0007733339999999993,0.015054620000000001,-0.026006096,4.771,0,0
0.015499241999999998,-0.004136886,0.0025218760000000006,0.017077460000000003,-0.032798094,4.772,0,0
0.010463948,-0.007955818,0.0049219860000000015,0.01936074,-0.029761080000000002,4.773,0,0
0.004612284,-0.009500274,0.003938202000000001,0.01933724,-0.01999534,4.774,0,0
0.000443474,-0.009239908,0.0019515016000000002,0.015366388399999998,-0.005926100000000002,4.775,0,0
-0.0006046739999999999,-0.007477593999999999,0.0019943076,0.0101603544,0.00843038,4.776,0,0
-0.0035775760000000003,-0.005768442,0.0029158036,0.0028082143999999987,0.014319464,4.777,0,0
-0.006500062000000001,-0.004115622,0.0048226316,-0.0071591456000000015,0.009849484,4.778,0,0
-0.006336392000000001,-0.00043523400000000005,0.0091880336,-0.014104045600000002,0.0022894639999999997,4.779,0,0
-0.006411618000000001,0.004615006,0.012542116,-0.016197114000000002,-0.0036966560000000004,4.78,0,0
-0.008100230000000002,0.009613612,0.013240329999999998,-0.017145820000000003,-0.008764746,4.781,0,0
-0.009427930000000001,0.01499604,0.012820324,-0.015477562000000002,-0.01305703,4.782,0,0
-0.01255405,0.01891344,0.00954027,-0.011765132000000001,-0.01571631,4.783,0,0
-0.018216196000000004,0.017571212,0.0010718099999999994,-0.010219052000000003,-0.017619790000000003,4.784,0,0
-0.02142192,0.012504518000000001,-0.01044801,-0.008061052,-0.019696650000000003,4.785,0,0
-0.02125588,0.002825257999999998,-0.021353874000000002,-0.0032887920000000013,-0.01799167,4.786,0,0
-0.019794720000000002,-0.008364082,-0.030848734000000003,0.0009727299999999993,-0.01023873,4.787,0,0
-0.0173967,-0.013230648000000001,-0.0366257,0.004957,0.000592510000000001,4.788,0,0
-0.01266276,-0.014565886,-0.03447124,0.00955002,0.01244791,4.789,0,0
-0.006052819999999999,-0.015917611999999998,-0.02472873,0.012244560000000002,0.02401477,4.79,0,0
0.00019284000000000098,-0.011558576000000001,-0.011949089999999999,0.01262784,0.03302302,4.791,0,0
0.007347920000000001,-0.006944875999999999,0.004175030000000001,0.01208908,0.0375059,4.792,0,0
0.01470802,-0.01332461,0.021050370000000002,0.010619088,0.0385007,4.793,0,0
0.01808584,-0.018560804,0.029951070000000003,0.006417908000000002,0.037677920000000004,4.794,0,0
0.017161632,-0.013042704,0.032322580000000004,-0.001355131999999999,0.03403434,4.795,0,0
0.014214412,-0.0020805200000000006,0.03268912,-0.010551992,0.026351056,4.796,0,0
0.011758542,0.00396792,0.027268680000000003,-0.019035352,0.015625816,4.797,0,0
0.012309222000000002,0.004146839999999999,0.017210448000000003,-0.02581844,0.0025421160000000005,4.798,0,0
0.016638662,0.006066619999999998,0.010031658,-0.028267340000000002,-0.011144623999999999,4.799,0,0
0.02275413,0.0040107120000000005,0.004990921999999999,-0.024940184,-0.021253784,4.8,0,0
0.02813107,-0.004554594,-0.0012716179999999995,-0.018033446,-0.02579236,4.801,0,0
0.029645820000000003,-0.006166014,-0.006577898,-0.0097148,-0.024391732000000003,4.802,0,0
0.025560632000000003,0.003673166000000001,-0.009657166,-0.0013280200000000005,-0.017334994000000003,4.803,0,0
0.017034604000000002,0.008989538,-0.011849476,0.004669974,-0.010250787600000002,4.804,0,0
0.004810824,0.006315998000000001,-0.011689168,0.007890572000000002,-0.0078392676,4.805,0,0
-0.011617836000000001,0.0016879839999999996,-0.007157007999999999,0.009773494,-0.0065185676000000005,4.806,0,0
-0.032604356,-0.0033947960000000003,0.0008302520000000001,0.009028966,-0.0047234224,4.807,0,0
-0.052840248000000006,-0.007064522000000001,0.009598972,0.008132898000000001,-0.0038567304,4.808,0,0
-0.06697576000000001,-0.00894517,0.015148712000000002,0.008088936000000001,-0.0005357367999999992,4.809,0,0
-0.07296364000000001,-0.007825768,0.015132630000000003,0.002334602,0.0066529032,4.81,0,0
-0.06705156000000001,-0.006362044,0.010542010000000003,-0.007685458,0.0134769032,4.811,0,0
-0.047686186000000005,-0.005945604,0.0037353300000000002,-0.014880156000000002,0.01693799,4.812,0,0
-0.021590066,-0.006187288,-0.00310478,-0.019598348,0.016849486,4.813,0,0
0.0026596740000000016,-0.0061392918,-0.0065003,-0.020471512000000004,0.013782025399999998,4.814,0,0
0.021995054,-0.004138815799999999,-0.0053917819799999996,-0.012988032000000002,0.008268457399999998,4.815,0,0
0.035237614,0.0028065802,-0.0024867919800000003,0.00028066799999999954,0.0010003374000000006,4.816,0,0
0.04225576,0.017343640200000003,-0.0010171839799999998,0.012847908000000002,-0.0079829826,4.817,0,0
0.04297824,0.033572190200000004,-0.00227455398,0.022072228000000003,-0.017811168600000003,4.818,0,0
0.04178822,0.04617809,-0.00457111398,0.02866488,-0.025341027999999998,4.819,0,0
0.04142734,0.05457964,-0.0062467040000000005,0.03208134,-0.028409240000000002,4.82,0,0
0.04227406,0.05408334000000001,-0.007444020000000001,0.031162760000000005,-0.026870678000000002,4.821,0,0
0.0468867,0.03815542,-0.007938584,0.028100720000000003,-0.019760378000000002,4.822,0,0
0.05027162,0.009981980000000001,-0.006314222,0.024717660000000002,-0.008167398,4.823,0,0
0.04537958,-0.016150440000000002,-0.004955104,0.019451924000000002,0.003521222,4.824,0,0
0.03280466,-0.031200180000000004,-0.0060276819999999995,0.013940682000000001,0.013189422000000003,4.825,0,0
0.01624838,-0.036459290000000005,-0.008263716,0.009597252,0.020818600000000003,4.826,0,0
-0.004349420000000002,-0.032248074,-0.01188036,0.0051338040000000005,0.026966440000000005,4.827,0,0
-0.022852300000000002,-0.019664076000000003,-0.014383082,0.00021798399999999963,0.03133474,4.828,0,0
-0.03275418,-0.012550596,-0.01022002,-0.00396782,0.033220519999999996,4.829,0,0
-0.03559472,-0.021234376,-0.0011497799999999996,-0.0064584460000000005,0.03137638,4.83,0,0
-0.03378546,-0.035426666,0.006262540000000001,-0.007291206,0.025114688,4.831,0,0
-0.030737220000000003,-0.04029030200000001,0.011081884000000002,-0.006681574,0.016299154,4.832,0,0
-0.02792994,-0.03218084000000001,0.011644444000000002,-0.0057956560000000015,0.006297193999999999,4.833,0,0
-0.024110520000000003,-0.015429440000000003,0.0046434840000000015,-0.005008794,-0.0036514060000000007,4.834,0,0
-0.018944362,0.007239619999999999,-0.004833936,-0.007600886,-0.011049646,4.835,0,0
-0.016043742,0.02819346,-0.009822282,-0.015085056000000001,-0.014497814000000001,4.836,0,0
-0.013793782000000001,0.03533514,-0.008774781999999998,-0.02261038,-0.015374012000000003,4.837,0,0
-0.009643002000000001,0.02473846,-0.002085021999999999,-0.028062338000000003,-0.015859072000000002,4.838,0,0
-0.007358972,0.008492560000000001,0.007884758000000002,-0.032635700000000004,-0.015863271999999998,4.839,0,0
-0.006683414,-0.006102680000000001,0.016450518,-0.03338224,-0.013641758000000002,4.84,0,0
-0.0036253779999999994,-0.020314360000000004,0.021271344,-0.029071100000000002,-0.011365038000000001,4.841,0,0
0.002200982,-0.02309127344,0.023086900000000004,-0.023553940000000002,-0.011239490000000001,4.842,0,0
0.008382902000000001,-0.011549313440000002,0.023205680000000006,-0.017217816,-0.009485272,4.843,0,0
0.015026432,0.0061164665600000005,0.019619160000000004,-0.009673616000000003,-0.006529063999999999,4.844,0,0
0.021112856000000003,0.019987606560000003,0.0085386,-0.002148076,-0.007272098,4.845,0,0
0.02431428,0.021368226560000002,-0.008447020000000001,0.004204664,-0.010796378,4.846,0,0
0.02402046,0.009941579999999998,-0.025594200000000004,0.008512664,-0.014632634000000002,4.847,0,0
0.02149446,-0.0056025400000000005,-0.041018540000000006,0.010925714,-0.018787612000000002,4.848,0,0
0.017082254,-0.017543081999999998,-0.050680640000000006,0.012749474000000002,-0.02226592,4.849,0,0
0.010726383999999999,-0.017022642,-0.045574516,0.014977054000000002,-0.02395662,4.85,0,0
