bandpass 1,bandpass 2,bandpass 3,bandpass 4,bandpass 5,time,onset,mark
-0.002739504,-0.001402792,-0.00010751380000000001,-0.0006462760000000001,-0.002126922,3.749,1,1
-0.0026515139999999998,-0.001544809,-0.00013593280000000001,-0.00040785,-0.002445554,3.75,0,0
-0.0021298679999999996,-0.0017458209999999998,0.0005020452,-0.00013712000000000007,-0.0019650379999999997,3.751,0,0
0.0011635640000000002,-0.00045588699999999987,0.0014209944,0.0012258900000000003,-0.00032810999999999984,3.752,0,0
0.0053564780000000005,0.0015306470000000002,0.0024818448000000002,0.002845882,0.0013627140000000001,3.753,0,0
0.0073112279999999995,0.0028683170000000004,0.0035566670000000003,0.0035213320000000003,0.002491208,3.754,0,0
0.007838614,0.0038013520000000005,0.004145714,0.0039903180000000005,0.002592854,3.755,0,0
0.007776335999999999,0.004379336,0.0039236620000000005,0.004196392,0.0016830659999999996,3.756,0,0
0.0055040664,0.0034055006000000003,0.0017326219999999999,0.0029917240000000003,0.000538254,3.757,0,0
0.0018723483999999997,0.0015486626000000001,-0.0018745920000000002,0.00104257,-0.000606492,3.758,0,0
-0.0009335196,-0.0002365294,-0.00534818,-0.0003808879999999999,-0.0015463140000000002,3.759,0,0
-0.0028204836,-0.0015627014000000002,-0.009368188,-0.001994778,-0.001804912,3.76,0,0
-0.004565211600000001,-0.0021306116,-0.012159454,-0.003387264,-0.00170502,3.761,0,0
-0.005524734,-0.0023441202,-0.009893082000000001,-0.0033159860000000004,-0.0016514878,3.762,0,0
-0.004979734,-0.0021809921999999997,-0.003676642,-0.0027949342000000003,-0.0014005352000000001,3.763,0,0
-0.004047618,-0.0018561802000000003,0.001999438,-0.002459338,-0.0011136940000000001,3.764,0,0
-0.0026722098,-0.0015685522000000003,0.006182020000000001,-0.001269256,-0.000860712,3.765,0,0
-0.00018938780000000012,-0.000731644,0.0086537356,0.000549732,-0.0003888006,3.766,0,0
0.0016096422,0.000424426,0.0078302156,0.001464568,0.0003489472,3.767,0,0
0.0023045222,0.001553848,0.0044407324,0.0020073002,0.0007545726000000001,3.768,0,0
0.0034934022,0.0032823980000000006,0.0018214204000000004,0.0029634880000000002,0.0011336794000000002,3.769,0,0
0.00394322,0.004609686,0.0023287264,0.0033348600000000003,0.0016307574000000004,3.77,0,0
0.0025359099999999997,0.005030358,0.0036389128,0.0023456892,0.0014503044000000003,3.771,0,0
0.0011673319999999997,0.005016046000000001,0.0046806408,0.0016468188,0.0010170536000000002,3.772,0,0
0.000101092,0.0043320154,0.005099706000000001,0.0016609408000000001,0.0006415776000000002,3.773,0,0
-0.001874958,0.0030369528,0.003047976,0.0005860788,-0.00031244840000000003,3.774,0,0
-0.0037968919999999996,0.0012770488,-2.8666000000000542e-05,-0.0005990372,-0.0015799324000000002,3.775,0,0
-0.0044518299999999995,-0.0006830932000000001,-0.0026273600000000005,-0.0007055882,-0.0025049248000000002,3.776,0,0
-0.005117068,-0.0033171992,-0.004992066,-0.0015275778,-0.0034049980000000002,3.777,0,0
-0.005616896,-0.0058100586,-0.006147142,-0.0033141318,-0.003940342,3.778,0,0
-0.004325201999999999,-0.006489068000000001,-0.005587324,-0.0038765458000000006,-0.00401836,3.779,0,0
-0.0026034640000000006,-0.006018512,-0.005385386,-0.0038624318000000006,-0.003510612,3.78,0,0
-0.0018359344000000001,-0.005270933000000001,-0.005552992,-0.0038210776,-0.0020307499999999996,3.781,0,0
-0.00028040240000000004,-0.002934099,-0.0044781868,-0.0020831796,-4.7227999999999637e-05,3.782,0,0
0.0017121916,0.00031214899999999985,-0.0030010267999999994,0.0007955884,0.001804118,3.783,0,0
0.0024581716,0.0019075989999999998,-0.0014225247999999997,0.0029271084000000005,0.0031362340000000003,3.784,0,0
0.0032702015999999997,0.0026950529999999998,0.0010729892000000004,0.004556320400000001,0.004174108,3.785,0,0
0.004461928,0.003105734,0.0025876246000000004,0.005983274,0.004198222,3.786,0,0
0.004860308000000001,0.0021112680000000003,0.0013317794,0.005529476,0.0032284720000000005,3.787,0,0
0.00444565,0.00018565999999999982,-0.0006653186000000002,0.0038044600000000004,0.0020716874,3.788,0,0
0.003980224,-0.0017093640000000003,-0.0017372606,0.0024900546000000004,0.0010958754000000002,3.789,0,0
0.0028217682399999996,-0.003217774,-0.0027310856,0.0008208746,0.0005146162000000003,3.79,0,0
0.00081064024,-0.004609966,-0.0029901788000000003,-0.0015822134,6.3504000000000705e-06,3.791,0,0
-0.00089014576,-0.004885014,-0.0014397728,-0.0029302274000000002,-0.0004303038,3.792,0,0
-0.00214226776,-0.004001158,0.0001885012,-0.0034251714,-0.0005682137800000001,3.793,0,0
-0.00364472576,-0.003612174,0.0008340392,-0.004642080000000001,-0.00047487778,3.794,0,0
-0.00466448,-0.0030334240000000003,0.0012770262000000002,-0.005078924,-0.00068020058,3.795,0,0
-0.0039717,-0.0015504200000000003,0.00155706,-0.003935982500000001,-0.00100864078,3.796,0,0
-0.0030960394,-0.0005416360000000003,0.000943584,-0.0031470591000000007,-0.0014464485800000002,3.797,0,0
-0.0023753324,0.00029508199999999984,0.00017038199999999998,-0.0023206653,-0.0020692500000000003,3.798,0,0
-0.0006525124000000001,0.0020230120000000002,-1.6140599999999992e-05,2.032069999999991e-05,-0.0023067160000000003,3.799,0,0
0.0013255776,0.003310798,-0.00018618600000000008,0.0020798007000000004,-0.0022100866,3.8,0,0
0.0025713476,0.003697624,-0.00013113600000000004,0.0028887612,-0.0018723682000000002,3.801,0,0
0.0037683790000000005,0.004425258,0.000591322,0.0040555898,-0.0012040738000000002,3.802,0,0
0.00468525,0.004924722,0.0013233060000000002,0.00491907,-0.0004327554000000001,3.803,0,0
0.0041207834,0.0044174060000000005,0.0015095346,0.0038157226000000003,0.00016824159999999998,3.804,0,0
0.0029220834000000004,0.0034976842600000003,0.00168471,0.0024285726,0.00020849839999999997,3.805,0,0
0.0018968714000000004,0.00275331226,0.001875544,0.0019249226000000001,0.0002310328,3.806,0,0
0.00048477540000000003,0.0016593336599999998,0.001413144,0.0008503406000000001,0.0005693984,3.807,0,0
-0.0010809046,9.729565999999992e-05,0.0006097819999999999,-0.0005511954,0.000702728,3.808,0,0
-0.0016905520000000001,-0.00098449634,0.00022489039999999994,-0.000848632,0.0009245510000000001,3.809,0,0
-0.002207056,-0.0015460866,-5.4662e-05,-0.001184186,0.0013230068,3.81,0,0
-0.00341945,-0.0019893106,-0.000488324,-0.0023230860000000002,0.0014272308,3.811,0,0
-0.004096102,-0.0024660420000000003,-0.000768684,-0.002491032,0.0010034368000000002,3.812,0,0
-0.0038420760000000003,-0.0022758240000000005,-0.000881272,-0.0016755060000000002,0.0009114626,3.813,0,0
-0.0038197360000000002,-0.001752678,-0.0010106864,-0.0011794986000000002,0.0006409238000000001,3.814,0,0
-0.003364532,-0.0012530974,-0.000817924,-0.00016494460000000014,-0.00030550620000000005,3.815,0,0
-0.0014241120000000004,1.599659999999988e-05,-0.000457376,0.0019715094,-0.000831385,3.816,0,0
0.00032930199999999996,0.0010556886000000001,-0.0003633160000000001,0.0033975033999999998,-0.0010238810000000001,3.817,0,0
0.001542758,0.0010348146,-4.910999999999994e-06,0.0037060514000000003,-0.0011924666,3.818,0,0
0.0034304360000000002,0.001144956,0.000690355,0.00416917,-0.00115609836,3.819,0,0
0.005151842,0.0013425842000000002,0.0009385730000000001,0.0038078980000000005,-0.00075619036,3.82,0,0
0.005211122,0.00040342059999999997,0.0009206050000000001,0.0017379119999999999,-0.00055987636,3.821,0,0
0.004897886000000001,-4.727480000000001e-05,0.0017301170000000002,5.459200000000012e-05,-0.00043616956,3.822,0,0
0.004330171,0.0003295252,0.0023691920000000004,-0.000849568,0.00019481024000000003,3.823,0,0
0.0020965910000000005,-0.00041070220000000005,0.0018767398000000004,-0.002234764,0.0010659648,3.824,0,0
-0.00030357099999999966,-0.001226375,0.001366086,-0.00324607,0.0015289448,3.825,0,0
-0.002011975,-0.0013049692000000003,0.0013086880000000001,-0.0034206560000000002,0.0013497388000000003,3.826,0,0
-0.003952095,-0.0021183918,0.0007182232,-0.004265656,0.0006403540000000001,3.827,0,0
-0.005215942,-0.0026498478,-0.0004902548000000001,-0.005571110000000001,-0.0005189140000000002,3.828,0,0
-0.004687468,-0.0016987038,-0.0010706606000000002,-0.005685522,-0.001235513,3.829,0,0
-0.0034691919999999994,-0.0009046811999999999,-0.0014529048000000004,-0.005123674,-0.0009369210000000002,3.83,0,0
-0.0013832779999999995,-0.0002275093999999998,-0.0021661288,-0.004765928,0.00017044299999999994,3.831,0,0
0.0019908340000000004,0.0013221466000000002,-0.0022032828000000003,-0.0037264840000000004,0.001963235,3.832,0,0
0.004850326,0.0024400306000000004,-0.0016150900000000002,-0.00162677,0.0034927570000000004,3.833,0,0
0.006469764,0.0024502106,-0.0008622922,-0.00012894800000000004,0.003907258,3.834,0,0
0.0072259180000000004,0.0025272360000000004,9.76518000000002e-05,0.000774076,0.004123128,3.835,0,0
0.006663288000000001,0.002627898,0.0008350258000000001,0.0022325400000000003,0.004405574000000001,3.836,0,0
0.0047066188,0.00183678826,0.0014542186000000002,0.0031474560000000003,0.003986204,3.837,0,0
0.0029881094000000006,0.00067379426,0.0018748698000000002,0.0025745984,0.0030718254000000004,3.838,0,0
0.0023380414,0.00079516026,0.0017835436000000003,0.0019231124000000004,0.0025366990000000003,3.839,0,0
0.0013368034,0.00088123026,0.0014997096000000003,0.0016192210000000005,0.0017545206000000003,3.84,0,0
-0.00032589260000000003,-0.00028996174000000006,0.001063153,0.00036601700000000017,-3.9817399999999854e-05,3.841,0,0
-0.0013969374000000001,-0.0006486460000000001,0.0004569016,-0.001011135,-0.0012764434,3.842,0,0
-0.002625016,-0.0005170820000000001,0.0002228676,-0.0015418274,-0.0015606452000000001,3.843,0,0
-0.004994972,-0.0016075720000000003,-1.0633200000000005e-05,-0.0024326654,-0.0022832788,3.844,0,0
-0.0066231120000000004,-0.0024246700000000003,-0.0007609312,-0.003604216,-0.0030489864,3.845,0,0
-0.0066265180000000005,-0.0017923636,-0.0008032218000000001,-0.0033756722,-0.0029576564,3.846,0,0
-0.006422586,-0.0012295396,-0.0005581960000000001,-0.0025126572,-0.0029911924000000003,3.847,0,0
-0.005894046,-0.0005150796,-0.0007688286,-0.00204151,-0.003308496,3.848,0,0
-0.0037364920000000005,0.0009565264,-0.00038835120000000006,-0.0005417500000000001,-0.0028241024000000003,3.849,0,0
-0.001210244,0.0024267843999999997,0.0004021768,0.001261116,-0.0018827344,3.85,0,0
0.00033267400000000003,0.0030020859999999997,0.000990858,0.0021058942,-0.0011992586000000001,3.851,0,0
0.002028938,0.0034630060000000002,0.0016531476000000002,0.0034470832,-0.0005522154,3.852,0,0
0.0040033180000000005,0.0042425299999999996,0.0024393642000000004,0.005268932,4.8258e-05,3.853,0,0
0.00473772,0.00363581,0.003008848,0.005821722,0.00021870239999999998,3.854,0,0
0.004520978,0.002115578,0.003810832,0.0058355,-7.277440000000002e-05,3.855,0,0
0.0049842540000000005,0.0014025168,0.0035129046,0.00645091,-0.00018948880000000003,3.856,0,0
0.004779036,0.0008829124000000002,0.0010737906,0.005934948,7.471799999999996e-05,3.857,0,0
0.0035387078,-0.0010283956,-0.0009175074000000003,0.004604782,4.33258e-05,3.858,0,0
0.0026134878000000005,-0.0026552276000000002,-0.0018595100000000002,0.003900572,0.00018536619999999997,3.859,0,0
0.0016834038,-0.0032029576000000004,-0.0027878126000000004,0.002867014,0.0004210908,3.86,0,0
-0.0001897102,-0.0044619384,-0.0029645300000000004,0.0007472800000000001,-0.00011428459999999997,3.861,0,0
-0.0024370542,-0.005542112,-0.0022514939999999997,-0.001264206,-0.0009348566,3.862,0,0
-0.004375756,-0.005145842,-0.0024022640000000003,-0.002497774,-0.0015707937999999999,3.863,0,0
-0.0071544040000000005,-0.004214352,-0.0038384294,-0.003787834,-0.0023280942000000002,3.864,0,0
-0.009081754000000001,-0.0036000240000000003,-0.004859774800000001,-0.004177782,-0.0024815056000000004,3.865,0,0
-0.00942269,-0.0031922680000000003,-0.004416618000000001,-0.0032932526,-0.0012676276,3.866,0,0
-0.008527392,-0.002590994,-0.0032330840000000002,-0.00221711054,-0.00022510760000000015,3.867,0,0
-0.0057383799999999995,-0.001454636,-0.002184696,-0.00139329854,0.0004977234000000001,3.868,0,0
-0.001698364,-0.00027111400000000003,-0.000726845,-7.877054000000004e-05,0.0015743554000000003,3.869,0,0
0.0018386359999999998,0.00094904,0.00010641260000000007,0.00127660546,0.001999681,3.87,0,0
0.003918764,0.0025784199999999997,-0.0006363174,0.00165000406,0.0015773352,3.871,0,0
0.005588684000000001,0.003664602,-0.0007851142,0.0022051939999999997,0.0011643364,3.872,0,0
0.005816452000000001,0.0038482160000000007,0.0009994678000000002,0.002773892,0.0012125234,3.873,0,0
0.0047129680000000005,0.003751416,0.0029923968000000003,0.0022029707999999997,0.0010968134000000002,3.874,0,0
0.00366438,0.0037883180000000006,0.0046135092,0.0014338979999999996,0.0007093346,3.875,0,0
0.0030416382000000002,0.004277862,0.006759553200000001,0.000875415,0.00022272840000000008,3.876,0,0
0.0020009226000000002,0.0042666679999999995,0.006866864,-0.0003230990000000001,-0.00036496680000000004,3.877,0,0
0.0006554018000000001,0.003425678,0.004035076,-0.002171775,-0.0016385328000000001,3.878,0,0
0.00010252940000000005,0.002741335,0.0010643840000000003,-0.0035450298,-0.0032876888000000003,3.879,0,0
-0.0005492726,0.0013206350000000001,-0.0014102779999999996,-0.004811919,-0.0040568340000000005,3.88,0,0
-0.0011918548,-0.001010777,-0.00379659,-0.006230268000000001,-0.004151262,3.881,0,0
-0.0009961318000000002,-0.002698139,-0.004867799999999999,-0.006303066,-0.0033223640000000004,3.882,0,0
-0.000518185,-0.003773087,-0.004114958,-0.0049755108,-0.0009689920000000001,3.883,0,0
-0.0006387106000000001,-0.00485503,-0.0035807200000000003,-0.0022139668000000006,0.002413402,3.884,0,0
-0.0007757906000000001,-0.005361208,-0.003378278,0.00015526519999999955,0.004695224,3.885,0,0
-0.0006934246,-0.004678794,-0.0028722158000000003,0.0031721732,0.006092200000000001,3.886,0,0
-0.0007432908,-0.0036706106000000006,-0.003712411800000001,0.004406073200000001,0.0056480156,3.887,0,0
-0.0012975648,-0.0020128226000000007,-0.0057984778,0.0004775560000000005,0.0019556635999999996,3.888,0,0
-0.0011402358,-0.00011373660000000001,-0.0065651598,-0.003099202,-0.0016382944,3.889,0,0
-0.0010562798,0.0005013054,-0.005854780800000001,-0.00441671,-0.0038722664,3.89,0,0
-0.0015106398,0.0011641204,-0.004463931000000001,-0.004711486,-0.0051673464,3.891,0,0
4.731099999999997e-05,0.002904777,0.0002433470000000001,-0.00166035,-0.0041193060000000005,3.892,0,0
0.003023359,0.004527267,0.007253167,0.00617495,-0.0004834279999999997,3.893,0,0
0.006379056000000001,0.006319527,0.012061816999999999,0.01284803,0.002742876,3.894,0,0
0.010453150000000001,0.009217765,0.014009838,0.016624530000000002,0.005197906,3.895,0,0
0.013872812,0.010401048000000001,0.013860080000000002,0.01753854,0.006779964000000001,3.896,0,0
0.013210802,0.0086592282,0.011488914000000001,0.014333432,0.006657984000000001,3.897,0,0
0.009723864,0.0056240522,0.007398035000000001,0.009367244,0.006320824000000001,3.898,0,0
0.004407464000000001,0.0016605002000000008,0.0033729750000000003,0.002657923999999999,0.005332736,3.899,0,0
-0.002531116,-0.0029420798,0.00027384299999999996,-0.004725096000000001,0.0030722340000000005,3.9,0,0
-0.008533576000000001,-0.0069404058000000005,-0.0023009930000000003,-0.011610876000000001,0.0001435239999999997,3.901,0,0
-0.013920278000000001,-0.009772868,-0.004776435000000001,-0.017052408,-0.002924060000000001,3.902,0,0
-0.0186556,-0.012498912000000001,-0.006936666,-0.02074716,-0.006252018000000001,3.903,0,0
-0.021529680000000002,-0.014173960000000001,-0.008194986,-0.021988100000000003,-0.009302735999999999,3.904,0,0
-0.021577480000000003,-0.013406686000000001,-0.00872792,-0.019858178,-0.010734228000000002,3.905,0,0
-0.019567024000000002,-0.011105926,-0.008372316000000001,-0.015387688000000002,-0.009980366000000001,3.906,0,0
-0.014395768,-0.007749794,-0.00693118,-0.009437208,-0.007649345400000001,3.907,0,0
-0.005743088,-0.0029214839999999994,-0.004515128,-0.0019309479999999996,-0.004433581400000001,3.908,0,0
0.0035800920000000004,0.002468036,-0.0009641400000000005,0.0058969320000000006,-0.0005416373999999997,3.909,0,0
0.011759872000000001,0.006885862000000001,0.0029622400000000005,0.011951390000000001,0.0033443026,3.91,0,0
0.017913996,0.009924582000000001,0.005758918,0.01666112,0.0063371886,3.911,0,0
0.02171924,0.01180781,0.00765139,0.019879140000000003,0.008482968,3.912,0,0
0.021537940000000002,0.012004976,0.00824804,0.01948896,0.009338442,3.913,0,0
0.018315324,0.010346936000000001,0.0064101132,0.015966202,0.008683658,3.914,0,0
0.014100232000000002,0.007737372,0.0040658859999999995,0.0115333942,0.0072196280000000005,3.915,0,0
0.008362306000000002,0.00418473,0.0022896026000000006,0.0056578982,0.004864114000000001,3.916,0,0
0.0012395459999999994,-1.3366000000000116e-05,1.5492599999999968e-05,-0.0013133017999999996,0.00142393,3.917,0,0
-0.0055385140000000005,-0.0036726219999999995,-0.0021197034,-0.0070027618,-0.002484828,3.918,0,0
-0.011303758,-0.006843981999999999,-0.0031545606,-0.0115753238,-0.005775628,3.919,0,0
-0.016254266,-0.009292578,-0.004318191400000001,-0.015335536,-0.008253678,3.92,0,0
-0.018497,-0.009469281999999999,-0.0057168240000000006,-0.016357120000000003,-0.00964043,3.921,0,0
-0.017635396,-0.008231058,-0.005846312000000001,-0.01440637,-0.009428182,3.922,0,0
-0.014359876,-0.006459818000000001,-0.004947866,-0.01111851,-0.0077421980000000005,3.923,0,0
-0.008815604000000001,-0.003232516000000001,-0.0035341360000000002,-0.006349212,-0.005520073,3.924,0,0
-0.002057604,0.00025782600000000006,-0.001229974,0.00017202800000000072,-0.0029961650000000003,3.925,0,0
0.004927536,0.0031100480000000002,0.001180178,0.006136628000000001,0.00024526500000000015,3.926,0,0
0.010756772000000001,0.006077180000000001,0.002760506,0.010562638000000001,0.0035856010000000003,3.927,0,0
0.015192772,0.008613260000000001,0.004125242,0.014254098000000002,0.006131893000000001,3.928,0,0
0.01781626,0.009391654000000001,0.005544488,0.0163463,0.007799986000000001,3.929,0,0
0.017265931999999998,0.008609356,0.006602584,0.015545964000000002,0.008618696,3.93,0,0
0.014179526,0.0067324046,0.00706084,0.012552672000000003,0.008225258000000001,3.931,0,0
0.009544210000000001,0.0042350046,0.007174552000000001,0.008552234000000002,0.006631428,3.932,0,0
0.0031216499999999993,0.0014122086,0.0061158518,0.002995958000000001,0.0041955659999999995,3.933,0,0
-0.0041299100000000005,-0.0014855334000000002,0.002437751800000001,-0.003427302,0.001622418,3.934,0,0
-0.010032902,-0.0036237414000000003,-0.0022444082,-0.008764746,-0.0012738459999999997,3.935,0,0
-0.014389656,-0.005608546000000001,-0.0055855202,-0.012638114000000002,-0.004276878,3.936,0,0
-0.01653256,-0.007421004000000001,-0.008180708200000001,-0.015466536,-0.006395011999999999,3.937,0,0
-0.015113158000000002,-0.007996542,-0.009883418000000001,-0.01615772,-0.007315574,3.938,0,0
-0.011694110000000002,-0.007501060000000001,-0.009389406,-0.014137392000000002,-0.0072912,3.939,0,0
-0.007134918000000001,-0.006751304000000001,-0.00806826,-0.010695874400000001,-0.00617419,3.94,0,0
-0.0011368179999999995,-0.00502291,-0.006751794,-0.006062604399999999,-0.0038323900000000006,3.941,0,0
0.004842002,-0.00194403,-0.0050914376,-0.0005531443999999995,-0.0008795540000000001,3.942,0,0
0.009273820000000002,0.0013634440000000003,-0.0030865056000000004,0.0045220556,0.002096282,3.943,0,0
0.012678612,0.0045274880000000005,-9.449960000000005e-05,0.0084344476,0.0045960720000000005,3.944,0,0
0.015004040000000001,0.007074138,0.0032724744,0.010996210000000001,0.006779656,3.945,0,0
0.014506756,0.008052674000000001,0.005175620400000001,0.011836240000000001,0.007894088,3.946,0,0
0.011776594000000001,0.007037488,0.00503127,0.010615406,0.007424896,3.947,0,0
0.0084147646,0.0049554046,0.004198572,0.008519070000000002,0.006224042000000001,3.948,0,0
0.004176976600000001,0.0020709006,0.0035816260000000005,0.005916167000000001,0.004483282000000001,3.949,0,0
-0.0013368633999999997,-0.0010129094000000001,0.002390756,0.0016526750000000004,0.0017692540000000005,3.95,0,0
-0.006338539400000001,-0.0027358474000000006,0.0010256330000000002,-0.0026761450000000004,-0.0016676100000000001,3.951,0,0
-0.0098910174,-0.0040102214,0.0008876830000000002,-0.005942771,-0.004711306,3.952,0,0
-0.013392808,-0.005357858000000001,0.0002792090000000001,-0.009140974999999999,-0.006996706,3.953,0,0
-0.01588644,-0.0053649380000000005,-0.0023894529999999997,-0.011266032,-0.00875066,3.954,0,0
-0.01554736,-0.0041291258,-0.004124015,-0.010632568,-0.009395628,3.955,0,0
-0.013566752,-0.0031192232000000005,-0.0033513199999999996,-0.0085647142,-0.008285498,3.956,0,0
-0.011179652,-0.0023494712,-0.00047179000000000014,-0.0060269382,-0.006182767800000001,3.957,0,0
-0.0067687599999999995,-0.0006763952000000001,0.004612502,-0.0015855842,-0.0031939878,3.958,0,0
-0.0005995599999999994,0.0013697708,0.008307842,0.0038637758,0.0008588502000000003,3.959,0,0
0.00476222,0.0027567425999999997,0.008288674000000001,0.008150563800000002,0.0043179742000000005,3.96,0,0
0.008925552,0.003946362,0.007757617000000001,0.011075510000000002,0.006644820200000001,3.961,0,0
0.012300432,0.0054231,0.0060626890000000004,0.013194494000000001,0.008101444000000001,3.962,0,0
0.013340040000000001,0.005742864,0.0019601728,0.012822902000000002,0.008014986,3.963,0,0
0.011821560000000002,0.004493920000000001,0.0009044588000000001,0.009707268600000001,0.006960264000000001,3.964,0,0
0.010030376,0.003703242,0.0035007228000000002,0.006394174,0.005848934,3.965,0,0
0.007619806000000001,0.002885198,0.0046891698,0.0028765600000000002,0.0041667218,3.966,0,0
0.004233242,0.0012092200000000002,0.0046352958,-0.001310974,0.0021126198,3.967,0,0
0.001116604,-4.703999999999993e-05,0.004384188,-0.004476432000000001,0.00024726579999999993,3.968,0,0
-0.002000616,-0.001064996,-0.0001350079999999994,-0.006535986600000001,-0.0018775422,3.969,0,0
-0.005936132,-0.003136098,-0.008405072000000001,-0.008712812,-0.0038121802,3.97,0,0
-0.008797742,-0.0051912780000000006,-0.014844126000000003,-0.009863252000000001,-0.004930606000000001,3.971,0,0
-0.009127932,-0.006053552,-0.017819244,-0.009167728,-0.005235136,3.972,0,0
-0.008416072,-0.0063466700000000004,-0.0173126278,-0.007782464,-0.004810756,3.973,0,0
-0.006124662,-0.0053855202,-0.011215727800000002,-0.005571918,-0.0037790236000000005,3.974,0,0
-0.002049736,-0.0029642802,-0.0016640077999999997,-0.0017647499999999998,-0.0020915996,3.975,0,0
0.002080488,-6.883620000000014e-05,0.004339648200000001,0.002139416,-0.00020516559999999998,3.976,0,0
0.005095222,0.0025086938,0.0058456042,0.004999748,0.0014029704,3.977,0,0
0.007753080000000001,0.0044625658,0.005122310000000001,0.007375564,0.0027335684,3.978,0,0
0.01002469,0.005715238,0.0029222460000000003,0.008472463999999999,0.003609834,3.979,0,0
0.010129033999999999,0.005686222,0.000866982,0.007325792,0.003503862,3.98,0,0
0.008635707999999999,0.0046381594,0.0011872800000000002,0.005463007400000001,0.0029205584,3.981,0,0
0.006190798,0.0034628381999999994,0.00380028,0.0037522152,0.0021262282,3.982,0,0
0.0024032720000000006,0.0018276281999999998,0.006479182,0.0009960251999999998,0.0006686002,3.983,0,0
-0.0021977480000000002,-0.0007763398000000001,0.007186158,-0.0020896068,-0.0008288138000000001,3.984,0,0
-0.005865977999999999,-0.0031602898000000004,0.005122454,-0.0041704148,-0.0024004938000000003,3.985,0,0
-0.008664356000000002,-0.0047079132,0.002042229999999999,-0.0058410222000000005,-0.0038926842,3.986,0,0
-0.010860126000000001,-0.005852152,-0.001373156,-0.007240066,-0.00497374,3.987,0,0
-0.011004044000000001,-0.005842164,-0.004439908,-0.007271462,-0.005625416,3.988,0,0
-0.009425296,-0.0040890100000000006,-0.00563383,-0.0056719466,-0.0048943549999999995,3.989,0,0
-0.006675454,-0.0017183299999999997,-0.004958998,-0.0033612346000000005,-0.002837503,3.99,0,0
-0.0029098579999999995,0.000447688,-0.003166501,-0.0006430026000000004,-0.0004622230000000001,3.991,0,0
0.0011786540000000001,0.0024884800000000004,-0.001215979,0.0023019554,0.0017463910000000001,3.992,0,0
0.0044297,0.0036733040000000005,6.165899999999999e-05,0.0044930054,0.003597073,3.993,0,0
0.006361454000000001,0.003875064,0.0005169406,0.005828412,0.0044728120000000005,3.994,0,0
0.007063496000000001,0.0042198800000000005,0.0007925866000000001,0.006754782,0.004608964,3.995,0,0
0.006508058000000001,0.004423400000000001,0.00085978918,0.00678678,0.004250212,3.996,0,0
0.005191894400000001,0.003646152,0.00070243518,0.0054563,0.0035749740000000003,3.997,0,0
0.0038083348000000003,0.0028968664,0.00042263658,0.00417915036,0.0030485158,3.998,0,0
0.0021299548,0.0019697484,-0.00015221902000000007,0.00282840616,0.002070308,3.999,0,0
-0.0001832152000000001,3.710839999999992e-05,-0.0007261810200000001,-6.378983999999997e-05,0.0008415259999999999,4.0,0,0
-0.0020156692000000004,-0.0016402276000000002,-0.0013680386000000002,-0.00291625184,-0.0005335420000000001,4.001,0,0
-0.0033452556000000003,-0.0024330876000000006,-0.0016265566000000001,-0.00483127784,-0.0016698020000000002,4.002,0,0
-0.004979212,-0.00292876,-0.0011931900000000002,-0.0071089562000000005,-0.0023669178,4.003,0,0
-0.006037748,-0.003078772,5.321999999999998e-05,-0.008672768,-0.003141224,4.004,0,0
-0.0054803740000000005,-0.0023960964,0.00216918,-0.007494552000000001,-0.0034270840000000004,4.005,0,0
-0.00483824,-0.0016238700000000001,0.0037276260000000004,-0.005529124,-0.003345484,4.006,0,0
-0.004169646,-0.001063874,0.0036057614000000004,-0.0038327425000000003,-0.003267072,4.007,0,0
-0.0019873580000000003,-0.00019401599999999998,0.0029347630000000004,-0.0009396945000000001,-0.0025400646,4.008,0,0
0.00035961199999999993,0.0006843299999999999,0.0014632230000000003,0.0017529595,-0.0011776746,4.009,0,0
0.001827562,0.0013284104,-0.0033031650000000003,0.0024462775000000003,6.407400000000077e-06,4.01,0,0
0.0035534060000000003,0.0021955460000000005,-0.008815923,0.0027940075,0.0011824634,4.011,0,0
0.005480226,0.0030956879999999997,-0.012524038400000001,0.0037037840000000003,0.001665503,4.012,0,0
0.00570716,0.003054772,-0.013974036,0.003392504,0.0008667636000000001,4.013,0,0
0.005112588,0.001973588,-0.010482222000000001,0.0025108699999999997,-0.00020473440000000017,4.014,0,0
0.004922716000000001,0.0005099700000000003,-0.002248082000000001,0.0026829840000000002,-0.0013455224000000002,4.015,0,0
0.00393084,-0.0009684880000000001,0.005968038000000001,0.002350028,-0.0024600284,4.016,0,0
0.002078946,-0.002652216,0.010920355999999999,0.0006361800000000002,-0.0032930040000000004,4.017,0,0
0.0010615054,-0.0037035220000000008,0.012389015000000001,-0.0003956220000000001,-0.003374316,4.018,0,0
0.00027194139999999996,-0.0033992659999999997,0.009469704600000002,-0.0009440360000000001,-0.002491506,4.019,0,0
-0.0015999706000000002,-0.0028093240000000006,0.0047904086000000005,-0.0024372540000000002,-0.000949208,4.02,0,0
-0.0025806206000000003,-0.0029048320000000004,0.0018890845999999998,-0.0029324496,0.000982102,4.021,0,0
-0.0022258234,-0.002680844,0.0012039926,-0.0016116036000000003,0.0027744560000000002,4.022,0,0
-0.0022224976000000006,-0.0019767762000000005,0.0015055405999999999,-0.0009078896,0.003873786,4.023,0,0
-0.0020776844,-0.0016115872000000001,0.002677009,-0.0006232119999999999,0.00397792,4.024,0,0
-0.0007934523999999999,-0.0009482972000000001,0.0052653050000000005,0.00074842,0.003140759,4.025,0,0
0.0002743936,0.00026632679999999995,0.006806709000000001,0.0016847796,0.0018188348000000001,4.026,0,0
0.0007227584,0.0017107208,0.005687757,0.0017027856000000003,0.0010859468,4.027,0,0
0.0016597192,0.002946593,0.0037358980000000005,0.0023357475999999998,0.0010015448000000003,4.028,0,0
0.0024507960000000003,0.0038323740000000004,0.001412914,0.0031719540000000003,0.0012964588,4.029,0,0
0.002132692,0.004114122,-0.0026176920000000005,0.002954644,0.0017828537999999999,4.03,0,0
0.0016452266,0.003899,-0.002746092,0.0022606882,0.002083914,4.031,0,0
0.0013276320000000002,0.0029646856,0.002093234,0.0017119282000000002,0.002583334,4.032,0,0
-0.000231972,0.0008085156000000001,0.0036631660000000003,0.00035389220000000003,0.002537794,4.033,0,0
-0.002302048,-0.0013782264000000001,0.002590232,-0.0014096738,0.001352316,4.034,0,0
-0.003132644,-0.0024459384,0.0009039380000000004,-0.0025251618,0.0004350280000000001,4.035,0,0
-0.0034941126,-0.0032657164000000002,-0.008330002,-0.0035593280000000005,5.373199999999964e-06,4.036,0,0
-0.004393536,-0.00388245,-0.022124842,-0.004696248,-0.0010825268000000002,4.037,0,0
-0.004319972,-0.0030669266,-0.02880336,-0.0049333499999999995,-0.0020317788,4.038,0,0
-0.003068401,-0.0018713984,-0.02898084,-0.004108586,-0.0020363088,4.039,0,0
-0.002564325,-0.0012626552000000002,-0.024938848000000003,-0.0033643158000000004,-0.0022782408000000002,4.04,0,0
-0.0020154538000000007,-0.0005169772,-0.013829408000000001,-0.0022637296,-0.002865774,4.041,0,0
-0.00019440979999999983,0.0005281428,0.0019135919999999996,-0.00019432559999999995,-0.002613418,4.042,0,0
0.0010684582000000003,0.0009838754,0.017546812000000002,0.0013438344,-0.0019919352000000003,4.043,0,0
0.0014313916000000004,0.0013360092,0.028797652000000003,0.0020085284,-0.00144778116,4.044,0,0
0.0025019836000000004,0.001995542,0.03302398,0.0033469722,-0.0007393351600000002,4.045,0,0
0.0029346324000000005,0.002224144,0.03149682,0.00428932,-0.00020613876,4.046,0,0
0.0019065508000000002,0.002377414,0.025682665999999996,0.0035422518000000004,0.00025518524,4.047,0,0
0.0017663868,0.0026973820000000003,0.014693345999999998,0.0031545046,0.0007062804400000001,4.048,0,0
0.0023316924,0.0024099086,0.001398065999999999,0.0029775666000000003,0.0010116904000000001,4.049,0,0
0.0017779298,0.0019834406,-0.007428914000000001,0.0012415005999999998,0.0012856544000000001,4.05,0,0
0.0012583972,0.0021023746,-0.011918434000000002,-0.0005809534000000001,0.0012747714000000002,4.051,0,0
0.0010574388,0.0018753766000000002,-0.014696160000000002,-0.0013762052000000002,0.0004979694000000003,4.052,0,0
-0.0001624351999999999,0.0012459392,-0.014183562000000002,-0.002505912,-0.00041736059999999996,4.053,0,0
-0.0019039532000000002,0.0003729626000000001,-0.0111219,-0.00379714,-0.0010818166,4.054,0,0
-0.0026810986,-0.0008052714,-0.008916756000000001,-0.0037944460000000004,-0.0015295076,4.055,0,0
-0.00265017114,-0.0020315714000000004,-0.006171306,-0.0030272512000000004,-0.000993773,4.056,0,0
-0.0026416011400000002,-0.0029894434000000006,-0.0009755860000000001,-0.0022246716000000003,0.00023333099999999992,4.057,0,0
-0.00180119674,-0.0032547620000000005,0.005380896000000001,-0.0008759356,0.001378747,4.058,0,0
-0.0004335167400000001,-0.00269248,0.012824054000000001,0.0007537484000000001,0.002011605,4.059,0,0
0.00014664466,-0.0024712780000000004,0.015176298000000001,0.0017205804000000003,0.001960018,4.06,0,0
0.00044776980000000004,-0.002428202,0.007842168000000002,0.0023116976000000003,0.0014973898,4.061,0,0
0.0014707398,-0.0015252339999999999,-0.003057852,0.0032579160000000005,0.0009214336000000001,4.062,0,0
0.0015522458,-0.00097626,-0.012557631999999999,0.003524274,0.0005075126000000001,4.063,0,0
0.0008519738,-0.00070956,-0.019255062,0.0031587180000000005,9.556760000000003e-05,4.064,0,0
0.0012664863999999997,0.00028147800000000005,-0.01804531,0.0034414240000000002,-5.951699999999998e-05,4.065,0,0
0.0008802917999999999,0.000605108,-0.00660211,0.0035400500000000003,1.0834860000000043e-05,4.066,0,0
-0.0006490002000000001,-0.000541344,0.006590790000000001,0.0024411216,-0.00013082493999999996,4.067,0,0
-0.0014450726000000001,-0.001606516,0.013791630000000001,0.0017403200000000003,-0.00033175394000000005,4.068,0,0
-0.0014127666000000002,-0.00233504,0.015152572,0.001876094,-0.00037714854,4.069,0,0
-0.0014548846,-0.0026164028,0.013084102000000002,0.0007628540000000001,-0.00051498394,4.07,0,0
-0.001062094,-0.0018862008000000005,0.008303830199999999,-0.0005821040000000002,-0.0007307156,4.071,0,0
-0.0003034142,-0.0008092362000000004,0.0034634595999999997,-0.0007711678000000002,-0.0007005172000000001,4.072,0,0
-0.00012924020000000004,0.00039606579999999997,0.0007453815999999998,-0.0012892782,-0.0008301626000000002,4.073,0,0
-0.00012151619999999997,0.0016994098,-0.0007127644000000001,-0.0021907002000000004,-0.0007682150000000002,4.074,0,0
-0.000403529,0.0020747505999999995,-0.0006709384,-0.001779008,-0.00040118019999999996,4.075,0,0
-0.0008693356000000001,0.0017971506,-0.0006932550000000002,-0.0009899714,-0.0002501666,4.076,0,0
-0.0010299606,0.0017397514,-0.0010847424,-0.0010028492,-0.0003401276,4.077,0,0
-0.00037219399999999995,0.0016907994,-0.0010943524,-0.00037625239999999996,-0.00036777360000000005,4.078,0,0
0.00070034,0.0017021914000000002,-0.0030971784,0.0004223936,-0.0005390156000000001,4.079,0,0
0.0014141968,0.0016189473999999998,-0.0074884744,0.00028104439999999996,-0.0009603504000000001,4.08,0,0
0.0023375194000000003,0.0017374693999999999,-0.011033566,0.00021547479999999998,-0.0010819764,4.081,0,0
0.0030385126000000004,0.00230258,-0.012096898,0.0007908428,-0.0012220818000000001,4.082,0,0
0.002586942,0.002486874,-0.010419246000000002,0.0008413568,-0.0015866284000000002,4.083,0,0
0.0015364060000000001,0.0019088020000000002,-0.005575126,0.00019876879999999994,-0.0020235304,4.084,0,0
0.0006222164,0.0017375300000000002,0.00013047600000000003,-2.5952200000000107e-05,-0.0018173082000000002,4.085,0,0
-0.0002461540000000001,0.0017431840000000003,0.004273464,-9.82790000000001e-05,-0.0007727018,4.086,0,0
-0.0010057174,0.0011149272,0.005735788800000001,-0.0003202394,0.0007443882,4.087,0,0
-0.0011054014000000001,0.0007972932000000001,0.005083654800000001,0.0002908958000000001,0.0025579102,4.088,0,0
-0.00014623739999999994,0.0011042472000000001,0.0039717568,0.0015651998,0.0045401982000000006,4.089,0,0
0.0013389682,0.0009254022,0.0027779268000000003,0.00184846158,0.005620908000000001,4.09,0,0
0.0024505066,-9.34178000000001e-05,0.0019024428,0.0015488873800000003,0.0048456566000000005,4.091,0,0
0.0030810280000000004,-0.0011974810000000002,0.001015712,0.0012038749800000002,0.0034335156,4.092,0,0
0.0033008122000000003,-0.0024433930000000003,-0.0006913220000000001,-0.00011648702,0.0019727536000000005,4.093,0,0
0.0027057803999999998,-0.003299357,-0.002257234,-0.0015201190200000003,0.0005963273999999998,4.094,0,0
0.0018581584,-0.00305666,-0.0026846696,-0.0017960148000000001,-9.61766e-05,4.095,0,0
0.0013069604,-0.0019291179999999998,-0.0023803656,-0.0018158027999999999,-8.61434e-05,4.096,0,0
0.000722079,-0.0008391837000000002,-0.001763981,-0.0020494180000000003,-0.00014726139999999999,4.097,0,0
0.0005292368,0.00027372569999999997,-0.0008769070000000001,-0.0016532908000000002,1.8944000000000475e-06,4.098,0,0
0.0003034264,0.0011212397,-5.197000000000025e-06,-0.0012086854,0.0003971146000000001,4.099,0,0
-0.0004434036000000001,0.0006868675,0.00037756659999999996,-0.0013178274,0.0004374746000000001,4.1,0,0
-0.0011713476,-5.903449999999997e-05,0.0011870506,-0.0013711254000000003,0.0004713924000000001,4.101,0,0
-0.0016657422,-0.0003682248,0.0030756939999999995,-0.0012878754,0.0004895536,4.102,0,0
-0.0024220882000000003,-0.0007093522,0.0053127439999999995,-0.0018156726000000002,0.00015788979999999998,4.103,0,0
-0.003438526,-0.0013639382000000002,0.007792044000000001,-0.002676036,-0.0007855642000000001,4.104,0,0
-0.0039990040000000004,-0.0015934080000000002,0.009176386,-0.0028870560000000003,-0.0018579722,4.105,0,0
-0.004353508000000001,-0.0011742942000000003,0.007207682,-0.0031324560000000005,-0.0027532098000000002,4.106,0,0
-0.004712826,-0.0011016502000000003,0.00233959,-0.0034879540000000006,-0.003083704,4.107,0,0
-0.003941942,-0.0012667382000000002,-0.00326923,-0.0029306988000000005,-0.0028135472,4.108,0,0
-0.0018896019999999996,-0.0007321338000000001,-0.00875625,-0.0019711886000000002,-0.0024733532000000003,4.109,0,0
-0.00016379799999999994,-0.00030425960000000007,-0.012206383999999999,-0.0016983366000000001,-0.0021726252,4.11,0,0
0.001019518,-0.00032768240000000007,-0.011418814,-0.0013464966000000002,-0.0018861512,4.111,0,0
0.002049068,-7.158019999999996e-05,-0.007836288,-0.0003213546000000001,-0.0014438778000000004,4.112,0,0
0.002145192,0.0002050412,-0.004260268000000001,3.637519999999988e-05,-0.0011704112000000002,4.113,0,0
0.0010475859999999999,0.000217438,-0.00192955,6.9508399999999e-06,-0.0010927052000000003,4.114,0,0
0.00011093299999999999,0.0006089118000000001,-0.000593526,0.00097322884,-0.0007487308,4.115,0,0
-0.00036228540000000003,0.0009698908,-0.0006382080000000001,0.0018414048400000002,-9.179819999999999e-05,4.116,0,0
-0.0007840214000000001,0.0008326136000000002,-0.0012753002000000001,0.00186026084,0.0003157284,4.117,0,0
-0.000706101,0.0011299588000000002,-0.0004753982,0.00239845184,0.000594617,4.118,0,0
-0.00042159020000000013,0.0014304976,0.0011720678000000002,0.003385504,0.001459387,4.119,0,0
-0.0006518012000000001,0.001061225,0.0026409818000000004,0.0033903300000000004,0.0021181846,4.12,0,0
-0.0010121888,0.00046396800000000004,0.0043532378000000005,0.00304404,0.0019891556,4.121,0,0
-0.0004543142,0.0005270539999999999,0.005529126000000001,0.0031863060000000003,0.0015714163999999999,4.122,0,0
-0.00043957360000000006,0.0002987575999999999,0.005438768,0.0026961700000000003,0.0009627714000000002,4.123,0,0
-0.0013441744000000002,-0.00035797920000000004,0.005874336,0.0017558036,-6.949259999999992e-05,4.124,0,0
-0.0010908108,-0.00013709859999999998,0.006938110000000001,0.0014123096000000003,-0.0009481906,4.125,0,0
-0.0003679128000000001,0.00011865700000000003,0.006849636,0.0012214915999999999,-0.0011086704,4.126,0,0
-0.000668521,-4.179079999999994e-05,0.0063404279999999995,0.0004628236000000001,-0.0013310072000000002,4.127,0,0
-0.000686051,0.00016823800000000008,0.0056133566,-2.0108399999999965e-05,-0.0014836342,4.128,0,0
0.00044620300000000005,0.0006724288000000001,0.0023395246,-6.616907999999995e-05,-0.0012367390000000002,4.129,0,0
0.0008590754000000001,0.0003642946600000001,-0.0024091754000000005,-0.00065699308,-0.001091811,4.13,0,0
0.0010324814000000002,3.605006000000007e-05,-0.0057631134,-0.00086461488,-0.0010101420000000001,4.131,0,0
0.002409009,0.0005187108600000001,-0.007280051400000001,-0.0001873028800000001,-0.0004658779999999999,4.132,0,0
0.0035671740000000006,0.0005078786600000001,-0.007232094200000001,-7.986008000000004e-05,0.00012097400000000004,4.133,0,0
0.003746534,-3.063534000000002e-05,-0.0064069062000000005,-0.0004716210000000001,0.00020004940000000002,4.134,0,0
0.003808768,0.0001380552,-0.0038163376600000008,0.00010963700000000002,0.0007392174,4.135,0,0
0.0037511540000000005,0.0010012232,0.0003598823399999999,0.00016990240000000002,0.0013100526000000001,4.136,0,0
0.00271664,0.0015192932000000002,0.0022013503400000003,-0.0010106256,0.0008675966000000002,4.137,0,0
0.0019214500000000001,0.0018913024000000002,0.00157281054,-0.0013335444,0.000533151,4.138,0,0
0.0017966100000000001,0.0029864724,0.00174439054,-0.0012074004,0.0008212944,4.139,0,0
0.0009773100000000001,0.003713806,0.0013813000000000002,-0.0020385204,0.0003163812,4.14,0,0
-0.000227768,0.0029010764,-0.0007909906,-0.0027726900000000004,-0.0006818128,4.141,0,0
-0.0008822379999999998,0.0016216524,-0.0021935766000000002,-0.0024529060000000004,-0.0009948608,4.142,0,0
-0.001310536,0.00012701440000000008,-0.0024857326000000003,-0.0023261,-0.0014589052000000002,4.143,0,0
-0.002162554,-0.0023654556,-0.0023570766000000003,-0.0026264120000000003,-0.0020872052,4.144,0,0
-0.002246844,-0.004412141600000001,-0.0015709906000000002,-0.0022955494,-0.002130718,4.145,0,0
-0.001666118,-0.004866142,7.495199999999987e-05,-0.0011943614,-0.00166631124,4.146,0,0
-0.0018161660000000001,-0.004787572,0.002552266,-1.3385400000000118e-05,-0.0005855532400000001,4.147,0,0
-0.001943398,-0.0038046158,0.004893858,0.0015247286000000001,0.0011035027600000001,4.148,0,0
-0.0012777724,-0.002009754,0.0057528480000000005,0.0036086726,0.00285384276,4.149,0,0
-0.00080297348,-0.0012803980000000003,0.00468475,0.005082062,0.00404275076,4.15,0,0
-0.00049064148,-0.00118462,0.002846136,0.006070114000000001,0.004497842,4.151,0,0
0.00089782652,-0.0006835540000000001,0.0015282040000000002,0.006692642,0.004244446,4.152,0,0
0.00222870852,-0.0004150222000000001,0.0007667400000000001,0.00605811,0.0032360813999999997,4.153,0,0
0.0021970839200000005,-0.00034588200000000005,0.0009695520000000003,0.0046757824,0.0018358998,4.154,0,0
0.002396517,0.0007891679999999999,0.0023420380000000003,0.0036537444,0.0007596498000000001,4.155,0,0
0.003094467,0.002150008,0.0031955200000000003,0.002455742,-3.630819999999999e-05,4.156,0,0
0.0024559318,0.0020843594,0.00291036,0.0006057479999999999,-0.0006515842,4.157,0,0
0.0009902298,0.0008838654,0.0021963898000000003,-0.0005677760000000001,-0.0008977972,4.158,0,0
1.252800000000145e-06,-4.478060000000011e-05,6.988380000000024e-05,-0.0009725824000000002,-0.0009037138000000001,4.159,0,0
-0.0011759751999999997,-0.0004763566,-0.0044979082,-0.0018117504000000001,-0.0009477897999999999,4.16,0,0
-0.0028416872,-0.0013477560000000003,-0.0093554082,-0.002754248,-0.0009302997999999999,4.161,0,0
-0.004009174,-0.0017361514000000002,-0.0117486082,-0.0030799660000000004,-0.0007442309999999999,4.162,0,0
-0.004798036,-0.0011044974,-0.011394762,-0.0032292720000000005,-0.0010196393999999998,4.163,0,0
-0.004161216000000001,-0.0002696904,-0.009094738,-0.003573534,-0.0015472872000000001,4.164,0,0
-0.0020973100000000002,0.00019552760000000012,-0.004732664,-0.0030627544,-0.0018019972000000001,4.165,0,0
-0.0007418980000000002,0.0005098430000000001,0.0008064000000000001,-0.0019631104000000003,-0.0015336441999999999,4.166,0,0
0.0006206759999999997,0.0009351118,0.004295242,-0.0012371966,-0.0011923849999999998,4.167,0,0
0.002461078,0.0014358180000000002,0.004617064000000001,-0.00043306379999999997,-0.0009838463999999997,4.168,0,0
0.003235352,0.0012314774,0.004203608000000001,0.00036444099999999996,-0.0004494784,4.169,0,0
0.00213325,-0.00017323460000000013,0.0038994960000000006,0.0001822094,-0.0001739096,4.17,0,0
0.0008255100000000001,-0.0009919506000000001,0.0027983112,-0.0005598426,-0.0003432966,4.171,0,0
-1.366000000000095e-06,-0.0010019696000000001,0.0022334152,-0.0003399726000000001,-0.00018984059999999992,4.172,0,0
-0.0012723600000000002,-0.001241226,0.0022986192,-0.0001459174000000001,0.0006831748000000001,4.173,0,0
-0.002441196,-0.0014746564,0.001914144,-0.0005801662000000001,0.0008994056000000001,4.174,0,0
-0.0023766924000000003,-0.0007698438000000001,0.0013768520000000002,-0.0005417962000000001,0.0006103408000000001,4.175,0,0
-0.0012916324000000002,0.00018220820000000002,0.0006199327999999999,-0.0004565862,0.0003916848,4.176,0,0
-0.0009436064,0.0002458412000000001,-0.00023537319999999994,-0.001305134,-0.0007330212,4.177,0,0
-0.0009090304,0.0003915074,-0.00010890119999999997,-0.002128584,-0.0020156332000000002,4.178,0,0
-0.0005898284000000001,0.0009209914,0.0011411339999999998,-0.001971114,-0.002414534,4.179,0,0
-0.001105366,0.0011989728,0.002008116,-0.0019377886,-0.00171531,4.18,0,0
-0.001902618,0.0009556008000000001,0.002260606,-0.0018374886,-0.0006712259999999998,4.181,0,0
-0.0015992046,0.0010435400000000001,0.00202745,-0.0008052965999999999,0.00081358,4.182,0,0
-0.0010593226,0.0018209379999999998,0.001076939,0.00014591940000000002,0.002413638,4.183,0,0
-0.0011012446,0.002375084,5.400039999999996e-05,0.0005044294,0.00307512,4.184,0,0
-0.0003718506,0.0026175000000000005,-0.00013216560000000005,0.001206994,0.0030962560000000004,4.185,0,0
0.0005115954,0.0031314840000000004,-7.574359999999998e-05,0.001975138,0.0029196560000000005,4.186,0,0
0.00033026599999999996,0.0038199640000000003,-0.0007317916000000001,0.0017896082000000001,0.0024832940000000005,4.187,0,0
0.0006310566,0.0037858240000000006,-0.0009524326000000001,0.0013687348000000002,0.0012749908,4.188,0,0
0.0016898626,0.0030050286,-0.0007846420000000001,0.0013876588000000002,0.00021204280000000023,4.189,0,0
0.0020754686000000002,0.0018678726,-0.0013003658,0.0007752764,-0.0007567291999999999,4.19,0,0
0.0018937006000000003,0.0004466626000000001,-0.0015736538,-0.00030625359999999997,-0.0017982532000000002,4.191,0,0
0.0017691406000000002,-0.0009576514,-0.0010570398000000001,-0.0005003186,-0.0022999952000000005,4.192,0,0
0.0010339939999999999,-0.0022445934,-0.0009199756000000001,-0.0008368852,-0.00247731,4.193,0,0
-0.00041611199999999995,-0.003118984,-0.0012547988799999998,-0.0023134232000000003,-0.002113278,4.194,0,0
-0.0010910380000000001,-0.0029783220000000003,-0.0009566678799999999,-0.0030757868,-0.0013818778000000002,4.195,0,0
-0.0011555060000000002,-0.002499162,-0.0004014026800000001,-0.0030806568,-0.0004310018,4.196,0,0
-0.0009241542,-0.002827204,-0.00050046068,-0.0037935300000000003,-1.0087799999999988e-05,4.197,0,0
0.00021029179999999998,-0.003010388,-0.00082490888,-0.0034572156,0.0002917646,4.198,0,0
0.0017241997999999999,-0.0021925484,-0.0015583976000000002,-0.0017061315999999998,0.0009806986,4.199,0,0
0.0025938418,-0.0019581121999999998,-0.0029086168000000004,-0.0003736036000000003,0.0010841862,4.2,0,0
0.0032234758,-0.0018972713999999998,-0.003249338,0.0009960464,0.0008119766,4.201,0,0
0.00405753,-0.0008607014000000001,-0.00232992,0.0028878304000000002,0.0007562546,4.202,0,0
0.004113066,-0.00042962740000000005,-0.0006467600000000001,0.003910561999999999,0.0007432608,4.203,0,0
0.0034649954000000004,-0.0007517310000000001,0.002730432,0.003781476,0.00029715220000000003,4.204,0,0
0.0028173974000000003,-0.0008312012,0.007057918000000001,0.00388415,0.00024327700000000002,4.205,0,0
0.0021025764000000002,-0.0008048724,0.009193858,0.003916523999999999,0.0005020206,4.206,0,0
0.0006551244,-0.0011887312,0.007877906,0.0028520852,0.0005103346,4.207,0,0
-0.0006240816,-0.001110211,0.00486777,0.0015733712000000001,0.0007863,4.208,0,0
-0.001238063,-0.000395921,0.0004995860000000002,0.0007884952,0.0013417006000000001,4.209,0,0
-0.002411211,-0.00022203000000000001,-0.005066734000000001,-0.0003726588000000002,0.001536626,4.21,0,0
-0.003793218,-0.000163231,-0.008575502,-0.0017236468,0.0008234580000000001,4.211,0,0
-0.004374742,0.00035757780000000004,-0.008018324,-0.002498818,0.00012621200000000006,4.212,0,0
-0.00468952,0.0007368956000000001,-0.005458836,-0.00295794,-0.00068125,4.213,0,0
-0.004516058,0.0005304114,-0.0025402179999999995,-0.0031102720000000003,-0.002211612,4.214,0,0
-0.002577,0.0008008794,0.00011870600000000008,-0.0024270608000000003,-0.0036124320000000005,4.215,0,0
-0.000397144,0.0011956908,0.0008572220000000001,-0.0014033788,-0.004368222,4.216,0,0
0.000988834,0.0011483608,-0.0003199960000000001,-0.0007345549999999998,-0.004570538,4.217,0,0
0.00261546,0.0013757628,-0.002491078,0.00035941900000000004,-0.0037161480000000003,4.218,0,0
0.003610644,0.001725233,-0.004177788,0.001895041,-0.0015790900000000004,4.219,0,0
0.002819489,0.0020618900000000003,-0.0031620619999999998,0.0027064698000000002,0.0009221940000000001,4.22,0,0
0.002065905,0.0022188340000000003,0.00016122200000000036,0.0029521298000000002,0.003030092,4.221,0,0
0.0023661510000000004,0.0026928539999999997,0.0036649839999999996,0.0037873920000000005,0.004145894,4.222,0,0
0.0019340510000000002,0.003212658,0.005975246,0.0038112880000000003,0.00447934,4.223,0,0
0.001002171,0.0032444960000000004,0.0062894657999999996,0.0025943456000000007,0.003798614,4.224,0,0
0.0006155259999999999,0.0033447240000000003,0.0044396438,0.0018260176,0.0022035500000000003,4.225,0,0
-0.0003954020000000001,0.0029725872,0.0016352198000000003,0.0007971676,0.0011815648,4.226,0,0
-0.002140352,0.0013303792,-0.0005614687999999999,-0.0007380664,0.0005960249999999999,4.227,0,0
-0.0036353180000000002,-0.0009839607999999997,-0.0012941408,-0.0015762864000000002,-0.000220223,4.228,0,0
-0.004702408000000001,-0.0031460548,-0.0005852186000000001,-0.001680332,-0.00063634518,4.229,0,0
-0.005449352000000001,-0.0053358768,7.042640000000009e-05,-0.0022004240000000003,-0.00048675018,4.23,0,0
-0.005587512,-0.006668746000000001,-4.897959999999998e-05,-0.002404598,-0.00053437758,4.231,0,0
-0.003959244,-0.006186714,-0.00027363899999999995,-0.0013772900000000002,-0.00026331217999999996,4.232,0,0
-0.0011820219999999998,-0.004621804,-0.0007062150000000001,-0.0006225000000000002,5.993082000000001e-05,4.233,0,0
0.0010807480000000003,-0.0025529240000000007,-0.0015141950000000003,-0.0004418088000000001,-0.000165223,4.234,0,0
0.0029662240000000004,-0.00022674999999999985,-0.0017032236,0.00039436720000000003,-0.000213343,4.235,0,0
0.0046910780000000004,0.0015620400000000002,-0.0010935244,0.0013310972,-0.000290676,4.236,0,0
0.004781438000000001,0.0020769484000000005,-0.0007623374000000001,0.0013096692000000001,-0.000481684,4.237,0,0
0.003834086,0.0021620704000000004,-0.0004656414000000001,0.0015955912,-0.0004286026,4.238,0,0
0.003343256,0.0020223764000000003,0.00037355859999999995,0.002518952,0.0002513694,4.239,0,0
0.002617894,0.00127752804,0.0010359622,0.002309452,0.0006711864,4.24,0,0
0.002147262,0.00095838004,0.0008671482,0.00135972,0.00036625599999999997,4.241,0,0
0.001473881,0.0007859146400000001,0.0007912456,0.0007248739999999999,0.00021490039999999994,4.242,0,0
-0.00034296300000000017,0.00013584664,0.0007041624,-0.00031047200000000006,1.4856199999999975e-05,4.243,0,0
-0.0024496530000000004,-0.00028806756000000007,-0.00014048360000000005,-0.001905846,-0.0005252392000000001,4.244,0,0
-0.0039252210000000004,-0.00043640680000000013,-0.0005878033999999999,-0.002661998,-0.0007013792000000001,4.245,0,0
-0.0051321430000000005,-0.0007960654000000001,-0.00011985259999999998,-0.0021017367999999997,-0.0002887412000000001,4.246,0,0
-0.006063992000000001,-0.0009847664000000001,0.00015715980000000003,-0.001792095,-0.00024160820000000005,4.247,0,0
-0.005516394,-0.0011023524,0.0002828276000000001,-0.0012480324,-0.0002625764,4.248,0,0
-0.0031597600000000006,-0.0011311502,0.0010550616,0.00023989560000000005,-0.00024618520000000007,4.249,0,0
0.0005740239999999998,-8.066459999999992e-05,0.0011127494,0.0011626816,-0.0005785434000000001,4.25,0,0
0.003880184,0.0008551700000000001,0.0008316421999999999,0.0014858243999999999,-0.000664497,4.251,0,0
0.006219718000000001,0.0007857420000000002,0.0009035621999999999,0.0023686486,-0.0005686688,4.252,0,0
0.007736732,0.0008880540000000001,-0.0009445024000000003,0.002821682,-0.0005124084,4.253,0,0
0.007244198,0.0008448104,-0.0036769964000000002,0.0019750838,-0.0006501096,4.254,0,0
0.005123908,-7.299959999999997e-05,-0.0042016424,0.0013990515999999999,-0.0007927254000000001,4.255,0,0
0.0028592356,-0.0005489256,-0.0036958832,0.0010266688000000002,-0.0007862814000000001,4.256,0,0
0.0010780876,-0.00020769040000000004,-0.0024847179999999995,-0.0002792812,-0.0010871686,4.257,0,0
-0.0005355504,0.0002907838,0.0012298880000000004,-0.0015620792,-0.0011333098000000002,4.258,0,0
-0.0020244804,0.0011070514,0.004111730000000001,-0.001759137,-0.0009849098,4.259,0,0
-0.0039756564,0.00100575,0.003379816,-0.0024644908,-0.0013701377999999998,4.26,0,0
-0.00585188,0.000194526,0.0011412940000000002,-0.00356957,-0.0017594882,4.261,0,0
-0.00624966,0.0001992796,-0.001376988,-0.003426764,-0.0020090602,4.262,0,0
-0.0059312359999999995,-0.00018252660000000006,-0.003988252,-0.0034162240000000003,-0.0025951534000000004,4.263,0,0
-0.004970528,-0.0008388072000000002,-0.005049036000000001,-0.00393599,-0.002952102,4.264,0,0
-0.0028646319999999998,-0.00044570380000000015,-0.004013763,-0.0033687960000000003,-0.002596076,4.265,0,0
-0.0007358060000000003,-0.0003616598,-0.002640857,-0.0021911194,-0.001807458,4.266,0,0
0.00022978080000000001,-0.0008128346000000001,-0.0014477516000000004,-0.0013644794000000002,-0.00010426199999999993,4.267,0,0
0.0010516928,-0.0005076556000000001,0.0002560383999999999,0.0006640666000000001,0.001961638,4.268,0,0
0.0021265567999999998,-0.000207513,0.0024221924000000002,0.0028494986,0.00346677,4.269,0,0
0.0026447088000000002,-0.000225985,0.0045420634,0.0036004246000000007,0.004804102,4.27,0,0
0.0033731928,0.0003893256000000001,0.0063332594,0.004054234,0.0056290640000000005,4.271,0,0
0.004448416,0.0009974914000000002,0.0077362920000000005,0.0040429820000000005,0.0053781,4.272,0,0
0.004871093999999999,0.0011569944,0.007217752000000001,0.0029651400000000002,0.0047832940000000004,4.273,0,0
0.004027987,0.0012225684,0.0036592780000000006,0.0013620160000000002,0.004281666,4.274,0,0
0.002580931,0.0013724204000000002,-0.00043950200000000004,0.0006541560000000001,0.0033684414000000004,4.275,0,0
0.001116315,0.0018321418,-0.0028819760000000005,0.00010481639999999995,0.0022885774,4.276,0,0
-0.000783089,0.001907632,-0.0044300294,-0.0009913976,0.0012552534000000001,4.277,0,0
-0.0023005810000000003,0.0015837466,-0.0046042973999999995,-0.0018179616,-7.810059999999988e-05,4.278,0,0
-0.0023896282000000005,0.0014259724,-0.0023686674000000007,-0.0021455696,-0.0011453326,4.279,0,0
-0.0022710342000000004,0.0009350204,-2.4969399999999877e-05,-0.0027837256,-0.0017191060000000002,4.28,0,0
-0.0023986982,-0.0001524136,0.0007172882000000001,-0.003811384,-0.002605446,4.281,0,0
-0.0017800830000000002,-0.0009119716,0.0006467722000000001,-0.0035162880000000002,-0.003342828,4.282,0,0
-0.0010796738,-0.0014695002,0.0005203768,-0.0026962206,-0.00328504,4.283,0,0
-0.0008859711999999999,-0.0023757860000000004,0.0005831828000000001,-0.0025424566,-0.0033367320000000002,4.284,0,0
-0.0004532754,-0.0024645614000000002,0.0010954028,-0.0018977526000000002,-0.0037939640000000004,4.285,0,0
1.0479220000000016e-05,-0.0018244834000000001,0.0023876412000000003,-0.0002482926,-0.0028225650000000004,4.286,0,0
-0.00011902397999999999,-0.0013496094,0.0030447466000000003,0.0006143294000000001,-0.000633251,4.287,0,0
5.9193020000000056e-05,-0.0006145886000000001,0.002281242,0.001159464,0.0008842350000000001,4.288,0,0
0.0006637666200000001,0.0004879034,0.0016029708000000003,0.00270227,0.002466577,4.289,0,0
0.0004303352200000001,0.0008525490000000001,0.0012487168000000002,0.00334218,0.004455361,4.29,0,0
0.00032327780000000007,0.00043618300000000004,0.00027740520000000017,0.0028447836,0.005407670000000001,4.291,0,0
0.0013996978000000001,0.000261973,-0.0005672247999999999,0.0025118056,0.004991396,4.292,0,0
0.0013527234,-9.530580000000001e-05,-0.0004997167999999999,0.0016782598,0.0041410760000000005,4.293,0,0
3.374339999999995e-05,-0.0007427938,-0.0004794962,0.00019649180000000003,0.0026927400000000003,4.294,0,0
-0.00025142900000000006,-0.0007917169999999999,-0.0007467154,-0.0004983462000000001,0.00098307,4.295,0,0
-0.0007413082,-0.00041632019999999993,-0.0009074974,-0.0009909618000000001,-0.0005495220000000002,4.296,0,0
-0.0024892342,-0.00047736819999999995,-0.0010724034000000001,-0.0018719458000000001,-0.0022018540000000005,4.297,0,0
-0.0028620760000000003,-0.0005545402,-0.0008744974000000001,-0.0018525740000000003,-0.00326371,4.298,0,0
-0.00174268,-0.00021324319999999996,-0.0005880108000000001,-0.0007537280000000001,-0.0030389132,4.299,0,0
-0.00132922198,-0.0002304982,-0.0005849602000000001,8.445199999999994e-05,-0.0022165552,4.3,0,0
-0.00089729298,-0.0003093298000000001,-0.0002617606000000001,0.0011428879999999999,-0.0021011072,4.301,0,0
0.00048603902,0.0006245962,0.0005177314,0.0030438160000000004,-0.0018649052,4.302,0,0
0.00143934702,0.0015815382,0.0009983286000000001,0.0040867839999999996,-0.0013855132000000002,4.303,0,0
0.00103279862,0.0014429768000000002,0.0007718636000000001,0.0041995339999999996,-0.0017341219999999998,4.304,0,0
0.0011595842,0.0010434468,0.0008189202000000002,0.004434350000000001,-0.002064526,4.305,0,0
0.0020688832,0.0008695168,0.0009596302,0.00454549,-0.0017870806000000001,4.306,0,0
0.0018133431999999999,0.0007731868,0.0005012710000000001,0.003727086,-0.0017318906,4.307,0,0
0.0015610212000000002,0.0012670628,-0.0004262462,0.002433838,-0.0016670106,4.308,0,0
0.0023226336000000004,0.0026586812,-0.0018625312000000002,0.001135996,-0.0015396386,4.309,0,0
0.0020507236,0.0035973972000000005,-0.0035415492000000002,-0.0006796640000000001,-0.0021694986,4.31,0,0
0.0007520396,0.0037870322000000006,-0.0048825252000000005,-0.002570232,-0.0025192079999999998,4.311,0,0
0.0003462236000000001,0.0032557086000000006,-0.0046948993,-0.00354465,-0.0019305917999999998,4.312,0,0
-0.0002663104,0.0010625146000000003,-0.0024940713,-0.0040027660000000005,-0.001509295,4.313,0,0
-0.0018858784,-0.0021685414,0.0008477447000000003,-0.004295936,-0.0013330630000000002,4.314,0,0
-0.0023247100000000002,-0.0046176054000000005,0.0029302627,-0.003292173,-0.0004710276,4.315,0,0
-0.0016285726000000002,-0.0056530676000000005,0.0021405447,-0.0020961908,0.0005458184,4.316,0,0
-0.0013164754000000002,-0.0059001738,-0.00026912400000000036,-0.0017258528,0.0009674022000000001,4.317,0,0
-0.0005737074000000003,-0.004561615800000001,-0.0023622540000000003,-0.0006971067999999999,0.0013186514,4.318,0,0
0.0008389786,-0.0020926418000000004,-0.0033452020000000007,0.0004902052,0.0019880114,4.319,0,0
0.0012953804000000002,-0.00013716560000000006,-0.0030462340000000014,0.0006249438,0.0023564280000000003,4.32,0,0
0.000582777,0.0009013732000000001,-0.0005655720000000003,0.0005885962,0.0018009790800000002,4.321,0,0
-0.0002674021999999999,0.0012891710000000002,0.002786906,0.0012187182000000002,0.0011076150800000003,4.322,0,0
-0.0017748842,0.0014179350000000002,0.004134914,0.0012481842000000001,0.0009434370800000001,4.323,0,0
-0.0035555362000000003,0.0009921192000000001,0.00374029,0.00043101420000000003,0.00087544908,4.324,0,0
-0.003920082,0.0003402970000000001,0.003357314,0.0005419726,0.00065313648,4.325,0,0
-0.002611462,-1.6445799999999916e-05,0.002783954,0.0006503934,0.0006974832000000001,4.326,0,0
-0.0010991440000000002,-0.0009427618000000001,0.0016094380000000001,-0.0006128146,0.0006447212000000002,4.327,0,0
0.00036201000000000007,-0.0020766498,0.0009875107999999999,-0.0015702046000000002,0.00013164120000000006,4.328,0,0
0.0028586720000000005,-0.001311094,0.00037378660000000007,-0.0016083406000000002,2.0633200000000004e-05,4.329,0,0
0.004004698,-0.000389968,-0.0005946774000000001,-0.0026285926,0.00010588179999999995,4.33,0,0
0.002853056,-0.000561742,-0.0019268734,-0.0035360319999999997,4.685799999999991e-05,4.331,0,0
0.0023118400000000008,0.0005037820000000001,-0.004591875400000001,-0.0024149800000000006,0.000568514,4.332,0,0
0.002157276,0.0018272380000000001,-0.0062685302000000005,-0.001269148,0.00123426,4.333,0,0
0.0008109866000000001,0.0013958360000000001,-0.005837104,-0.000546962,0.0009721332000000001,4.334,0,0
0.0004525646,0.001354794,-0.004397772,0.0010180999999999999,0.0008056538000000001,4.335,0,0
0.0017545246000000001,0.0023947800000000004,-0.0009221799999999999,0.0024123540000000002,0.0012329758000000001,4.336,0,0
0.0021310026,0.002034946,0.0033621700000000003,0.0022520470000000005,0.0011294274000000003,4.337,0,0
0.0021141226000000006,0.001210108,0.004496226000000001,0.001839306,0.0008485308000000001,4.338,0,0
0.002857506,0.001117918,0.0033661100000000007,0.0018801660000000002,0.0011401136,4.339,0,0
0.0029588860000000004,0.0006954160000000001,0.0016121240000000004,0.0012212256,0.0011971262000000002,4.34,0,0
0.0020045562,-0.00020300399999999998,-0.0014928780000000004,0.000645217,0.0006526048,4.341,0,0
0.0012949278,-0.00037539720000000004,-0.0030828522000000006,0.0006492498000000001,0.00040162140000000004,4.342,0,0
0.0003807497999999997,-0.0006282251999999999,-0.0021050942,0.00021591480000000005,1.9184000000000052e-05,4.343,0,0
-0.0017861742000000002,-0.0019727852,-0.0005739802,-0.0011012392,-0.0007119839999999999,4.344,0,0
-0.0035715102000000005,-0.0027837812,0.0009662158000000001,-0.0021657628,-0.0012371132,4.345,0,0
-0.0047481724,-0.0031553312,0.0022367378,-0.0028591662,-0.0016996118,4.346,0,0
-0.006163506,-0.003680146,0.002119148,-0.004007478,-0.002468122,4.347,0,0
-0.006039724,-0.0031280108000000004,0.0007989380000000001,-0.00439502,-0.00333301,4.348,0,0
-0.004193838,-0.0012527188000000002,-0.0006295680000000001,-0.0034040986800000003,-0.00391732,4.349,0,0
-0.0028043443,7.107520000000016e-05,-0.0020872140000000004,-0.00236212788,-0.004506558,4.35,0,0
-0.0016924816999999998,0.0009634532000000001,-0.0025045152000000006,-0.0013958158800000003,-0.0040583,4.351,0,0
7.813630000000002e-05,0.0021249972,-0.0005123652000000006,0.0013068541200000003,-0.0016447299999999996,4.352,0,0
0.0010373403,0.0025130260000000002,0.0023491088,0.00424433212,0.001077922,4.353,0,0
0.0010888763,0.002066994,0.0040429348,0.005184080800000001,0.0031239640000000008,4.354,0,0
0.0015645466000000002,0.0017365314,0.0058108868,0.005183458200000001,0.004871940000000001,4.355,0,0
0.002197408,0.0019468293999999999,0.006884724,0.004875721300000001,0.0056284540000000015,4.356,0,0
0.0021041656,0.0022519194,0.005158314000000001,0.0034889253,0.004788878,4.357,0,0
0.001447244,0.0024013614,0.002865804,0.0017223673000000001,0.003645254,4.358,0,0
0.0008971958,0.0024845634,0.001684776,0.0013044152999999998,0.00315232,4.359,0,0
-0.0003083741999999999,0.0024256994,0.0004219535999999999,0.0008834630999999998,0.0028824180000000003,4.36,0,0
-0.0018482422,0.0016660234,-0.00029894839999999997,3.87819999999999e-05,0.0024475002,4.361,0,0
-0.0024526098000000004,0.0005341974,0.00026043760000000007,-0.000384182,0.0015777068000000002,4.362,0,0
-0.0027238702,-0.0008715386,0.0006122234,-0.0013729700000000003,0.0008743970000000001,4.363,0,0
-0.0031086,-0.0026633286,0.0003134654,-0.0030062280000000005,-4.1034999999999976e-05,4.364,0,0
-0.0023566843999999997,-0.0035450760000000003,-0.00026702819999999995,-0.0031075300000000003,-0.0011210670000000001,4.365,0,0
-0.0007606084,-0.0031671596,-0.0014146862000000001,-0.0021775735999999997,-0.0014074418,4.366,0,0
6.60576e-05,-0.002700589,-0.0027158242,-0.0021782475999999997,-0.0014498544000000001,4.367,0,0
0.0008901116000000001,-0.001708104,-0.0034727380000000004,-0.0013154576000000001,-0.0017895445999999999,4.368,0,0
0.0022040796,0.000278974,-0.0037647640000000003,0.0001995484,-0.0021080626,4.369,0,0
0.0028192160000000003,0.001566292,-0.0031809198,0.0009867323999999998,-0.0021183786,4.37,0,0
0.0024450084000000004,0.0014701438000000002,-0.0019641218000000004,0.001358688,-0.002454308,4.371,0,0
0.0023198524,0.0013224586,-0.0010164742000000004,0.002107628,-0.0023592678,4.372,0,0
0.0024447324,0.0012047957999999999,-0.00010764620000000005,0.002618726,-0.0017040162,4.373,0,0
0.0015998943999999998,-0.0002090482,0.0007964574,0.001913702,-0.0015606742000000002,4.374,0,0
0.0006284864000000001,-0.0017143622000000002,0.0006360552,0.0013963604,-0.0015127921999999999,4.375,0,0
4.6579999999999896e-05,-0.0024376464,-0.00016105080000000004,0.001122889,-0.0011220791999999999,4.376,0,0
-0.001200594,-0.0034068178,-0.00010329640000000001,2.7796999999999978e-05,-0.0006894494,4.377,0,0
-0.002553676,-0.00419945,0.0002796296000000001,-0.001241071,-4.8106999999999924e-05,4.378,0,0
-0.002629209,-0.003979002000000001,0.0010793000000000003,-0.001321853,0.0010685690000000001,4.379,0,0
-0.00230392976,-0.0030956614000000006,0.0017750160000000004,-0.0014448434,0.0015872669999999998,4.38,0,0
-0.00210099876,-0.0014772254000000001,0.001161882,-0.0019998760000000003,0.0012949760000000002,4.381,0,0
-0.0006441567600000001,0.0013144486,0.00014216000000000012,-0.0014505282000000003,0.0008112388000000001,4.382,0,0
0.00102557324,0.0041034066,-0.0007564100000000001,-0.0008381688000000002,0.00025141179999999994,4.383,0,0
0.0017947442400000002,0.0061714626,-0.0019400460000000002,-0.0007069188,-0.0001350628,4.384,0,0
0.002932443,0.007729916000000001,-0.0035745120000000006,-6.313880000000007e-05,-7.526979999999995e-05,4.385,0,0
0.004422882,0.008104272000000001,-0.004882506,0.0011419272000000001,0.000210206,4.386,0,0
0.004811694000000001,0.00671093,-0.005900310000000001,0.0017137474000000002,0.00024110220000000002,4.387,0,0
0.0045788700000000005,0.00434223,-0.006348702000000001,0.001947278,-8.838819999999997e-05,4.388,0,0
0.004869902000000001,0.0022257480000000005,-0.005069456000000001,0.0026731600000000004,-0.00026193019999999997,4.389,0,0
0.0044258380000000005,-0.00014633799999999976,-0.0010851000000000003,0.0022517509999999998,-0.0002888958,4.39,0,0
0.0032612633999999996,-0.0027178799999999998,0.004404140000000001,0.000888035,-0.0003691714,4.391,0,0
0.00241340742,-0.003673838,0.007240504,-6.007100000000008e-05,1.8296000000000273e-06,4.392,0,0
0.0011827534200000002,-0.0032338208,0.006896504,-0.0010037810000000002,0.00047634500000000003,4.393,0,0
-0.0010942385800000003,-0.0027373767999999995,0.004684028,-0.002069731,0.0006673196000000001,4.394,0,0
-0.00326466258,-0.0020101528,0.0007417579999999999,-0.00251277,0.00064656206,4.395,0,0
-0.004666139980000001,-0.0009504688000000002,-0.002935466,-0.0025749920000000003,0.00030140185999999995,4.396,0,0
-0.006103696000000001,-0.0008060048,-0.004106995400000001,-0.0029771780000000005,-0.00037238013999999994,4.397,0,0
-0.006872306000000001,-0.0019250920000000002,-0.0030477494,-0.0025596738,-0.0009508981399999999,4.398,0,0
-0.006321468000000001,-0.002896508,-0.0009493014,-0.0013236298,-0.0013369615400000002,4.399,0,0
-0.0047297628000000005,-0.003083904,0.0010627466,-0.00030279579999999996,-0.0014928850000000002,4.4,0,0
-0.0024046628000000004,-0.0029921196000000008,0.0016059304,0.0007484341999999999,-0.0010535192,4.401,0,0
0.0003665951999999998,-0.0027657256000000003,0.0014736977999999998,0.0020410442,-0.00041154060000000005,4.402,0,0
0.0024060712,-0.001855932,0.0013742452,0.0027037860000000006,-7.852580000000003e-05,4.403,0,0
0.0030114744000000002,-0.001103616,0.0010731172,0.0021782616,0.0003214696,4.404,0,0
0.0028788832000000006,-0.001523482,0.0016435952000000002,0.0017317992,0.0009277452000000001,4.405,0,0
0.0024368951999999998,-0.0012819385999999998,0.0026796774000000002,0.0016522092000000003,0.0012428174,4.406,0,0
0.0020943572,0.00015159340000000013,0.0032465514000000004,0.0009817846000000003,0.0011241724000000002,4.407,0,0
0.0024222491999999997,0.0012357558000000001,0.0032779156,0.00016934460000000008,0.0008855753999999999,4.408,0,0
0.003254524,0.0021218358,0.0016537916000000004,-3.7652e-05,0.0007232862,4.409,0,0
0.0029755660000000002,0.0029495420000000003,-0.0013659284,-0.0009117256,0.00024149680000000004,4.41,0,0
0.0014799040000000002,0.0026419622,-0.0036454264000000004,-0.0024402016000000006,-0.00041339120000000005,4.411,0,0
-0.00017997800000000013,0.0013863419999999998,-0.004639580399999999,-0.002654425,-0.0008513808000000002,4.412,0,0
-0.001781652,0.00010911800000000012,-0.004789726,-0.0024565436,-0.0010122886000000003,4.413,0,0
-0.0029500000000000004,-0.0008191440000000001,-0.003289818,-0.0029223686,-0.0015035674,4.414,0,0
-0.0028530634000000004,-0.000672807,-0.0007470259999999999,-0.0020216810000000004,-0.0018901180000000003,4.415,0,0
-0.0019444628,5.175700000000004e-05,0.001167602,-0.00010406499999999997,-0.0013150882,4.416,0,0
-0.0013902468000000002,0.00035906719999999993,0.00245858,0.0006944250000000001,-0.000841886,4.417,0,0
-0.0006881678000000001,0.00057071,0.003276518,0.0014514676000000001,-0.0007783500000000001,4.418,0,0
0.00010020020000000001,0.0008556487999999999,0.0035232360000000003,0.0026812556,-0.00046056099999999996,4.419,0,0
0.00016890080000000004,0.0011378135999999999,0.002102556,0.0030067799999999997,0.00022448100000000006,4.42,0,0
-0.00038395380000000003,0.0011363036,-0.0007565959999999996,0.002764192,0.0010207312,4.421,0,0
-0.0005148458,0.0012445876,-0.0026730199999999995,0.003128234,0.002000421,4.422,0,0
-0.0006488528000000002,0.0016176868,-0.0034227519999999994,0.003192062,0.0030681870000000004,4.423,0,0
-0.0013098128,0.0013007320000000002,-0.004246972,0.0022962359999999997,0.0035783940000000004,4.424,0,0
-0.0014294840000000002,0.00045874600000000006,-0.003992744,0.0016594000000000001,0.0031141096000000005,4.425,0,0
-0.001293352,-0.0007244020000000001,-0.001453812,0.0009666808000000002,0.0021558712000000002,4.426,0,0
-0.00135413,-0.001978552,0.0007064799999999999,-0.0008488432000000001,0.0009880618,4.427,0,0
-0.00128018324,-0.002549338,0.0011218460000000001,-0.0025940232,-0.0005103382,4.428,0,0
-0.00054487124,-0.002678428,0.0013847030000000001,-0.0028694732,-0.0014085042000000002,4.429,0,0
-0.0001196810399999999,-0.0030761940000000004,0.0016833070000000002,-0.0032172932000000005,-0.0013966074,4.43,0,0
-0.00031869904,-0.00277056,0.0013583462000000001,-0.003980618,-0.0017979990000000002,4.431,0,0
-7.616944000000004e-05,-0.0016242960000000001,0.0011508982,-0.0032441860000000005,-0.0023114016000000005,4.432,0,0
1.0464400000000028e-05,-0.00101418,0.0014483222,-0.0018681240000000005,-0.0023134456,4.433,0,0
-0.0003021006,-0.00021850999999999994,0.0012785712000000001,-0.0011002340000000003,-0.0025001136,4.434,0,0
0.0004455532000000001,0.0012473240000000002,0.0007933791999999999,3.088600000000004e-05,-0.002617236,4.435,0,0
0.0022323492000000003,0.002671254,0.000809512,0.001430284,-0.002655188,4.436,0,0
0.0029796696,0.0034399460000000006,0.0010932740000000002,0.001627746,-0.0024974660000000003,4.437,0,0
0.0032943390000000003,0.00381698,0.0009702720000000001,0.0011862348,-0.0017404466,4.438,0,0
0.0036210020000000003,0.004068556,0.00024419799999999994,0.001082727,-0.00031936659999999995,4.439,0,0
0.00267655,0.003934364000000001,-0.00178141,0.0007234664,0.0014395834,4.44,0,0
0.0010463300000000003,0.0033395560000000005,-0.004933334000000001,0.00042842460000000005,0.0031144574000000003,4.441,0,0
-1.207800000000011e-05,0.0024661596000000005,-0.006699306000000001,0.0006442726,0.0041605934,4.442,0,0
-0.0009097780000000001,0.0017393316000000002,-0.004700486,0.0004348958000000001,0.0037935259999999998,4.443,0,0
-0.0024262,0.0005666696,0.0005156000000000002,-0.0005650544000000001,0.0020705639999999996,4.444,0,0
-0.0035224260000000004,-0.0005979104,0.00629736,-0.0014390238,2.5206000000000165e-05,4.445,0,0
-0.003738554,-0.0009817072000000001,0.010538698,-0.0016975854,-0.0013007072000000002,4.446,0,0
-0.004144696,-0.0017286988000000004,0.01169321,-0.0021196794,-0.0019837518,4.447,0,0
-0.004103238,-0.0026794288000000005,0.009048380000000002,-0.0019637730000000003,-0.0020351158,4.448,0,0
-0.0023223440000000005,-0.0020927666,0.004252056,-0.0001761629999999999,-0.0014760938,4.449,0,0
-0.00021218799999999987,-0.0013610012000000002,0.000551934,0.0012919330000000003,-0.000792011,4.45,0,0
0.0014338660000000002,-0.0021519924000000003,-0.0009009802000000001,0.0016814244,-0.00011344579999999994,4.451,0,0
0.003260982,-0.0021525504,-0.0011097090000000002,0.0025677244,0.0008609888000000002,4.452,0,0
0.0048469,-0.0015396224000000002,-0.000907379,0.0033630500000000002,0.0020953288000000003,4.453,0,0
0.005180528,-0.0018499126000000002,-0.0007383050000000001,0.0026053660000000005,0.0029062268,4.454,0,0
0.004802306,-0.0021498612000000004,-0.00017444559999999998,0.0019409172000000004,0.0028587552000000002,4.455,0,0
0.00402323,-0.0017856432000000002,0.00025620060000000004,0.0018746252000000003,0.0022152535999999997,4.456,0,0
0.0025882500000000003,-0.0011575508,-0.0016595346,0.0006872932,0.0013102316000000002,4.457,0,0
0.0012754465999999997,-0.0004486848,-0.0047363145999999995,-0.0010302307999999999,0.00039230560000000006,4.458,0,0
3.0458600000000122e-05,0.0007949691999999998,-0.0056533026,-0.0020486868,-8.948659999999999e-05,4.459,0,0
-0.0014139754000000002,0.0021026504,-0.005379264000000001,-0.002921724,-0.00027372219999999997,4.46,0,0
-0.0027557834,0.0029555364,-0.005010496,-0.004014882,-0.0007769026000000001,4.461,0,0
-0.0033261314,0.003157372,-0.0026433780000000005,-0.004225982,-0.0015779966000000001,4.462,0,0
-0.004116922,0.003039332,0.0007908540000000001,-0.0036728639999999996,-0.0020702006,4.463,0,0
-0.004998036,0.0020257698,0.0018410996000000005,-0.00359842,-0.0022454344,4.464,0,0
-0.004481308000000001,0.00047619780000000015,0.0010058956000000001,-0.003081646,-0.0020877702,4.465,0,0
-0.003115884,-0.0007315742000000001,0.0003654576,-0.0018159060000000004,-0.0011445301999999998,4.466,0,0
-0.0020009720000000006,-0.0022789562000000005,-0.00021680259999999998,-0.0009508104000000001,0.00010636979999999999,4.467,0,0
-0.0010156642000000002,-0.0035956502000000006,-0.0005211584,0.00032558559999999997,0.0009565398,4.468,0,0
0.0007045758000000001,-0.0038385340000000007,-0.00020161400000000002,0.0022670036,0.0014475858,4.469,0,0
0.0020473338,-0.003232277,0.000528144,0.0035770296,0.0014839556000000001,4.47,0,0
0.0026819298000000003,-0.0024453368,0.000332092,0.0039639776,0.0009753846,4.471,0,0
0.004139753800000001,-0.0007076888,-0.0012309918000000001,0.004513054,0.0006289198000000001,4.472,0,0
0.005717166,0.0012580852,-0.003412328,0.004477508000000001,0.0004849876000000001,4.473,0,0
0.005344502,0.0017898112000000002,-0.00574152,0.003053702,0.0001621474,4.474,0,0
0.003849002,0.0014262538,-0.00658154,0.001794418,9.803399999999988e-06,4.475,0,0
0.002564314,0.001240396,-0.0047120600000000006,0.0008908488000000001,-4.994399999999998e-05,4.476,0,0
0.0005669240000000001,0.0008842570000000001,-0.0011018719999999998,-0.0007175492,-0.0005977832,4.477,0,0
-0.00194823,-9.859680000000003e-05,0.0021810120000000004,-0.0023689612000000002,-0.0013503350000000003,4.478,0,0
-0.00335182,-0.00040811900000000003,0.004809072,-0.0028203192,-0.0015538468,4.479,0,0
-0.003484264,-0.00022236060000000002,0.006199804,-0.0032054872,-0.0015794958000000003,4.48,0,0
-0.0038400580000000004,-0.0002760692,0.005545085999999999,-0.003782132,-0.0015073048000000004,4.481,0,0
-0.004003986,-0.00017853819999999996,0.004511336,-0.0030829359999999997,-0.0010255628,4.482,0,0
-0.0032518226000000003,0.00021180960000000002,0.004227382,-0.0017813719999999998,-0.0003129602000000001,4.483,0,0
-0.0025409126,0.0006027418,0.003249034,-0.0009570052,0.0001890146,4.484,0,0
-0.0015234086,0.0009686038000000001,0.0009410599999999999,7.918800000000152e-06,0.000493986,4.485,0,0
6.495139999999997e-05,0.00163304,-0.000718216,0.0013228408000000003,0.0008581554,4.486,0,0
0.0008608194,0.002034036,-0.0013751920000000001,0.0017310244000000002,0.0005624073999999999,4.487,0,0
0.000855884,0.0014814740000000002,-0.0014416040000000002,0.0011617964,-0.00022708520000000004,4.488,0,0
0.0016579740000000002,0.001067237,-0.00044300800000000005,0.0011237728,-8.715800000000005e-05,4.489,0,0
0.00234629,0.001484127,0.000459082,0.0010343968000000002,0.0007943220000000001,4.49,0,0
0.002019322,0.0013111190000000001,0.00036665000000000016,0.00048038800000000005,0.0013328520000000003,4.491,0,0
0.002059654,0.0007504508600000002,-0.00022105199999999985,0.0004303274,0.002313012,4.492,0,0
0.0022811364,0.0009091458600000001,-0.0011561582,0.00035887540000000006,0.0031823940000000007,4.493,0,0
0.0009950203999999998,0.00025272285999999996,-0.0019565062000000003,-0.0006219558,0.0023700680000000003,4.494,0,0
-0.0010250876,-0.00136474714,-0.0015383582000000002,-0.0016490118,0.000649876,4.495,0,0
-0.0017594616000000001,-0.00223079514,-0.0005857622000000002,-0.0018716800000000001,-0.0009085760000000001,4.496,0,0
-0.0025841696,-0.002980755,-0.0001333826000000001,-0.0022544270000000003,-0.002189672,4.497,0,0
-0.00342012,-0.003712598,-0.00045059440000000004,-0.0021031864,-0.0025603042000000003,4.498,0,0
-0.0025141812000000004,-0.0031419498,-0.0020971704000000003,-0.0007679024,-0.0016534902,4.499,0,0
-0.0014702272,-0.0021104742000000003,-0.0036973284000000003,0.00023487160000000004,-0.0006742481999999999,4.5,0,0
-0.0012414070600000001,-0.0015848068,-0.003936,0.0006640146000000001,4.764580000000013e-05,4.501,0,0
-0.00012011505999999993,-0.0005559868000000001,-0.0033554076000000006,0.0019563186,0.0008600518000000002,4.502,0,0
0.00165693694,0.0009372632000000001,-0.0020251536000000007,0.0035946320000000004,0.0013111280000000002,4.503,0,0
0.0021114921400000003,0.001689731,0.0003863384,0.004319880000000001,0.0010138986,4.504,0,0
0.0022470881400000003,0.0020284594,0.0025409304000000004,0.005183278000000001,0.0005834664000000002,4.505,0,0
0.003123082,0.00245901,0.003203534,0.005780474000000001,0.00038694840000000016,4.506,0,0
0.00287762,0.0019270180000000004,0.0029582540000000004,0.0049516840000000005,-0.00010163959999999995,4.507,0,0
0.001787362,0.000869472,0.0022171570000000004,0.003664346,-0.0007064316,4.508,0,0
0.0015013978,0.00040137020000000003,0.0020719130000000003,0.0026685606,-0.0010414562,4.509,0,0
0.0007650318000000001,-0.0002683612,0.0022466810000000004,0.0012445486000000003,-0.001066002,4.51,0,0
-0.0010603782,-0.0014528392,0.001455457,-0.00034292540000000003,-0.0009710766,4.511,0,0
-0.0024320302,-0.0019334032000000003,0.000502813,-0.0013367814000000001,-0.0010340646,4.512,0,0
-0.0032339622,-0.0016818472,-0.00012422399999999998,-0.0022660494,-0.0010658206,4.513,0,0
-0.0039057340000000005,-0.0019444598000000002,-0.0012574040000000002,-0.00306186,-0.0010078606,4.514,0,0
-0.0034589660000000004,-0.0019237842000000003,-0.002474454,-0.003064356,-0.0009845186000000002,4.515,0,0
-0.0020696399999999998,-0.0009714947999999999,-0.0025121238000000005,-0.0022564354,-0.0009028339999999999,4.516,0,0
-0.000702236,5.4612000000000215e-06,-0.0020132022000000005,-0.0012162914,-0.000662722,4.517,0,0
0.0006201380000000001,0.0003257724,-0.0013774376000000002,-4.0477399999999946e-05,-0.0003888714000000001,4.518,0,0
0.0022521980000000004,0.0007528128,-0.0002642456000000001,0.0013063186,-6.46268e-05,4.519,0,0
0.0035838200000000006,0.0015568526,0.0009326904,0.0018057805999999999,0.0002962552,4.52,0,0
0.004211334,0.0020254372,0.0018021662,0.001186978,0.0003111338,4.521,0,0
0.005046736,0.0024430772,0.0025519086,0.0007225309999999999,0.00038565467999999997,4.522,0,0
0.0055408,0.002871118,0.0034101239999999996,0.00012727599999999998,0.00057669488,4.523,0,0
0.004462244000000001,0.0026829514,0.0034405940000000004,-0.001503576,0.00051423728,4.524,0,0
0.0026638600000000005,0.0017823414000000001,0.002553114,-0.002479152,0.00050258328,4.525,0,0
0.0009710360000000004,0.00096284,0.0013142660000000001,-0.0020085408000000003,0.00084850068,4.526,0,0
-0.001703516,-0.000289378,-0.00040684399999999985,-0.0021899898,0.0011199378,4.527,0,0
-0.0043796880000000005,-0.001805552,-0.00206673,-0.0027978668000000003,0.0010784106,4.528,0,0
-0.005386298000000001,-0.0024743054,-0.0027167840000000003,-0.0021856108000000004,0.001159977,4.529,0,0
-0.00538963,-0.0024403142,-0.0028964760000000007,-0.0019232028,0.0010544758,4.53,0,0
-0.00476455814,-0.0021226612,-0.0033900020000000005,-0.0027527680000000005,0.0007977683999999999,4.531,0,0
-0.0027664861400000006,-0.0012637152,-0.00334605,-0.0027466060000000004,0.0006658056,4.532,0,0
-0.0006867481400000001,0.0003173408000000001,-0.0027620238,-0.0017510020000000002,0.0003403000000000001,4.533,0,0
0.00022650346000000003,0.0016702528000000002,-0.0022992800000000003,-0.00117607,-0.0001873494,4.534,0,0
0.00106014746,0.0022109316,-0.001476826,-0.00032427,-0.0005330702,4.535,0,0
0.0014702375999999999,0.0023843060000000005,-2.723999999999999e-05,0.0012740240000000003,-0.0010557928000000001,4.536,0,0
0.0014881436000000001,0.0024716480000000003,0.001433788,0.0019795380000000003,-0.0016888340000000002,4.537,0,0
0.0018813136000000001,0.0020098140000000004,0.0022286998,0.0017586886000000002,-0.0018058120000000002,4.538,0,0
0.0023729780000000004,0.0014398438,0.0027243600000000003,0.0021803406000000004,-0.0014450172000000001,4.539,0,0
0.0020222680000000002,0.00109735044,0.0030516400000000004,0.0025460366,-0.0005550092,4.54,0,0
0.000963054,0.0005418884400000001,0.0027691376,0.0019356268,0.0006831868000000001,4.541,0,0
-0.00011167800000000015,-2.1506359999999965e-05,0.0019164975999999996,0.0017716712000000001,0.0018317408000000002,4.542,0,0
-0.0010417620000000001,-0.0005731143600000001,0.0008671356,0.0014743626,0.0025519248000000004,4.543,0,0
-0.0017208360000000003,-0.00143096216,-0.00024584240000000016,-7.111339999999996e-05,0.0024969368000000002,4.544,0,0
-0.002035484,-0.0016817068000000003,-0.0012974324000000002,-0.0014129294,0.0017283514000000003,4.545,0,0
-0.0013603200000000001,-0.0011039768,-0.0016136920000000001,-0.0017786076,0.0008368122000000001,4.546,0,0
-0.001128904,-0.0011991100000000004,-0.001583336,-0.002293616,-0.00020118580000000005,4.547,0,0
-0.0013757720000000001,-0.001203676,-0.0012945254,-0.002495876,-0.0008243098,4.548,0,0
-0.0007775940000000002,-0.000230768,-0.0007206183999999999,-0.0015230438,-0.0008035166,4.549,0,0
-0.00029886900000000006,-9.780000000000035e-06,-0.00012581240000000002,-0.0006404698000000001,-0.00070487758,4.55,0,0
-0.00014980520000000007,-0.0009643060000000002,0.00037797760000000003,-0.00018834180000000002,-0.00056564658,4.551,0,0
0.0008342408000000001,-0.0013677860000000002,0.0007234952000000001,0.0006312202,-0.00034092318,4.552,0,0
0.0022205368000000002,-0.001304302,0.0010897446000000001,0.0014338562000000001,-0.00010983317999999999,4.553,0,0
0.0024756808000000003,-0.0017636946,0.0010413212,0.0014669976,-0.00010991317999999997,4.554,0,0
0.0026683798000000005,-0.0012466326,0.0007619688000000001,0.0014776876,-0.00016378079999999998,4.555,0,0
0.003107466,0.0006468434000000003,0.0005540838000000001,0.0018250676,-0.00040183259999999996,4.556,0,0
0.002644112,0.0023768194000000006,0.0009673482000000001,0.0017790596000000001,-0.000733522,4.557,0,0
0.0015659526,0.0035050754,0.0015096202000000002,0.0011539736,-0.00115843,4.558,0,0
0.0005300186000000001,0.0037393412,0.0024144246000000003,0.0007671447999999999,-0.001532574,4.559,0,0
-0.0006698894000000003,0.0026573332,0.0038496349999999997,3.256079999999995e-05,-0.0018468760000000001,4.56,0,0
-0.0021876594,0.0007128612,0.0037549080000000004,-0.0014488012,-0.00165335,4.561,0,0
-0.0024157664000000003,-0.0014944148000000002,0.0018176700000000002,-0.0019289706,-0.0006235960000000001,4.562,0,0
-0.0018424070000000003,-0.0035547648,-0.0003930540000000001,-0.0014395086000000001,0.0004989339999999999,4.563,0,0
-0.001727393,-0.004491396,-0.002679434,-0.0011123864,0.001649908,4.564,0,0
-0.0010806704,-0.004297743999999999,-0.005113354,-5.424839999999993e-05,0.00255494,4.565,0,0
-0.0002259588,-0.003360832,-0.005025656400000001,0.0017303036,0.002906554,4.566,0,0
-0.0007980478,-0.001887836,-0.0027686504,0.002067485,0.002721276,4.567,0,0
-0.0017773698,-0.00047113800000000007,-0.0008050303999999997,0.002068555,0.0022982199999999997,4.568,0,0
-0.0009955337999999999,0.001074716,0.000353115,0.00251249,0.001903642,4.569,0,0
-0.00015032039999999993,0.002066804,0.000318385,0.002271626,0.0017912940000000001,4.57,0,0
1.3635800000000016e-05,0.0019055014000000003,-0.0010376986,0.001686172,0.001680276,4.571,0,0
0.0015625638,0.0020038834000000003,-0.0033072226000000005,0.0015535536,0.0015451040000000003,4.572,0,0
0.0032652878,0.0025344854,-0.004562380600000001,0.0016302976,0.0013556680000000002,4.573,0,0
0.0028707976,0.0022875314,-0.0029839880000000004,0.0005428016000000001,0.00045905399999999997,4.574,0,0
0.0021125874,0.0020922834,0.0006511520000000003,-0.0006087664,-0.000502542,4.575,0,0
0.0022624896,0.0022753499999999998,0.004373918,-0.0013474284,-0.0012865420000000001,4.576,0,0
0.0013678470000000002,0.0013045359999999998,0.006604478,-0.002607838,-0.0024810279999999997,4.577,0,0
-0.00028465299999999995,-0.0004660780000000001,0.005744572000000001,-0.004032342,-0.0035777100000000004,4.578,0,0
-0.0008260728,-0.0016814960000000002,0.002194020000000001,-0.004557348000000001,-0.003906852000000001,4.579,0,0
-0.0010648526,-0.002482666,-0.0014192760000000001,-0.004539726,-0.004152884,4.58,0,0
-0.0022762306,-0.0030302120000000004,-0.0031599320000000007,-0.004756582,-0.004078566,4.581,0,0
-0.00295736,-0.0025340368,-0.0029807880000000007,-0.0038104026000000003,-0.0025242600000000004,4.582,0,0
-0.0027453880000000005,-0.0015419206000000002,-0.0013340734000000002,-0.002214444600000001,-0.00018642399999999992,4.583,0,0
-0.0027586780000000005,-0.0009839726,0.0011107945999999998,-0.0009680606,0.001545598,4.584,0,0
-0.0023639138000000003,-0.0007541836,0.0029917826000000003,0.0005223014000000001,0.0028521280000000006,4.585,0,0
-0.0015359866000000002,-0.0009971796000000002,0.0032175445999999995,0.0023514894,0.003926814000000001,4.586,0,0
-0.0007552192000000001,-0.0009130985,0.0022952414,0.0032949640000000005,0.00356289,4.587,0,0
0.0006958467999999999,9.522929999999995e-05,0.0018384168,0.00314533,0.0022197166000000003,4.588,0,0
0.0022212708000000003,0.0007672232999999999,0.0018470608000000003,0.00361749,0.0013112506000000001,4.589,0,0
0.0023669722,0.0007262048999999999,0.0014098308000000002,0.003762418,0.0007422071999999999,4.59,0,0
0.0023673388000000004,0.0010843119,0.0005500862,0.002398154,-0.00021912680000000004,4.591,0,0
0.0021011911999999997,0.0009691827999999999,0.000542534,0.001143736,-0.0014428528,4.592,0,0
0.0007580308000000001,-0.0004345371999999999,0.001358786,0.00081914,-0.0021360494000000002,4.593,0,0
-0.0008662472,-0.0016212752,0.001731038,-0.0003654400000000001,-0.0030015274,4.594,0,0
-0.0019810228,-0.0018635438,0.0015017728,-0.0019801740000000003,-0.0041547780000000005,4.595,0,0
-0.0022848726,-0.0012345368000000001,-7.01345999999999e-05,-0.0019541658,-0.004073656,4.596,0,0
-0.0029262044,-0.0003923859999999999,-0.0023495492000000003,-0.0017577378000000002,-0.0033640760000000006,4.597,0,0
-0.00314787,0.0003614020000000001,-0.003949595199999999,-0.0018941582000000002,-0.0031806340000000008,4.598,0,0
-0.0019255260000000005,0.001468134,-0.0049024912,-0.0008687642000000001,-0.0020229420000000002,4.599,0,0
-0.000952418,0.0018850912000000003,-0.004334576,0.00024208579999999996,-0.00013947000000000005,4.6,0,0
-0.0008274,0.0010819912,-0.00248707,0.000524773,0.0007897900000000001,4.601,0,0
2.1806399999999934e-05,0.0007792092000000001,-0.0017172280000000001,0.001477795,0.0015754,4.602,0,0
0.0008585884,0.0010825452,-0.001813074,0.0025417614,0.002612934,4.603,0,0
0.0005361824000000001,0.0008084924,-0.0008201020000000001,0.0022517694,0.0030980380000000004,4.604,0,0
0.0006971424000000001,0.0011465792,8.392599999999979e-05,0.0020651838000000002,0.0028073100000000004,4.605,0,0
0.0017514664000000003,0.0022911872,0.001176754,0.0024253384,0.002481076,4.606,0,0
0.001867078,0.0020965752000000003,0.0034869400000000004,0.0013816444,0.0025094460000000002,4.607,0,0
0.0009415100000000001,0.0009584092000000001,0.0045932148,-0.00040598960000000003,0.00222851,4.608,0,0
0.000775642,0.0002978379999999999,0.0031484928,-0.0012119556,0.0017093059999999998,4.609,0,0
0.0008106779999999999,-0.00046425800000000005,-2.8749199999999857e-05,-0.0020795220000000003,0.001499424,4.61,0,0
9.242159999999991e-05,-0.0014233582,-0.0034442392,-0.0034443620000000003,0.0011265374,4.611,0,0
-0.00011634315600000009,-0.0016318898,-0.0059402552,-0.004095196000000001,0.000417603,4.612,0,0
0.00019920704399999998,-0.001089176,-0.006793072000000001,-0.003959146,-0.000137203,4.613,0,0
0.000203688244,-0.0005764146,-0.006424190000000001,-0.0038754920000000008,-0.001042103,4.614,0,0
0.0003361002440000001,0.0001013554,-0.005204701999999999,-0.0033226524000000003,-0.001970737,4.615,0,0
0.00046681224400000004,0.0010185196,-0.002768638,-0.0017805864000000004,-0.0023068404000000002,4.616,0,0
0.000720065,0.0015150291999999998,0.0004993200000000001,-0.0001289704000000001,-0.0027195680000000003,4.617,0,0
0.0014640148000000003,0.001690312,0.003051766,0.0012400316,-0.0030702840000000004,4.618,0,0
0.0024627756,0.0023615806,0.004371732000000001,0.0026776636,-0.0031935160000000004,4.619,0,0
0.0033284276000000003,0.0029447286,0.005183346,0.003495082,-0.0031401640000000004,4.62,0,0
0.0036806160000000003,0.0025779706,0.0049028916,0.00262429,-0.0032521120000000006,4.621,0,0
0.0038531300000000006,0.0020567709400000004,0.0042121316,0.0018301195999999998,-0.002887558,4.622,0,0
0.0034924114,0.0017302757400000002,0.0037094676000000004,0.0019820516,-0.0010353000000000003,4.623,0,0
0.0019352634000000001,0.0009162153400000001,0.0036033336000000004,0.0019973136,0.001248584,4.624,0,0
-9.425859999999961e-05,-0.0003024646599999999,0.0038611456,0.0024063536,0.003214714,4.625,0,0
-0.0012240465999999999,-0.00126500266,0.00252274,0.0031264815999999997,0.004421546,4.626,0,0
-0.0026046206,-0.002654945,-0.0004328699999999999,0.00260532,0.004353444000000001,4.627,0,0
-0.004350196000000001,-0.0039148304,-0.0032685680000000003,0.00047845999999999956,0.0029087320000000002,4.628,0,0
-0.004182562,-0.003971134,-0.005436890000000001,-0.0014624220000000001,0.0013407864,4.629,0,0
-0.0031293680000000004,-0.0031357240000000003,-0.006599974000000001,-0.0031232620000000003,0.00013008759999999996,4.63,0,0
-0.002820588,-0.0018182659999999998,-0.005297977200000001,-0.004469646000000001,-0.0009092784000000002,4.631,0,0
-0.0018294906000000002,-0.0002660828,-0.0017982472000000007,-0.00382635,-0.0008846203999999999,4.632,0,0
-0.00011716500000000002,0.000978582,0.0027747068,-0.001839426,-0.0004275114000000001,4.633,0,0
0.0002859892,0.0006944719999999999,0.0059987188,-0.000466154,-6.609580000000001e-05,4.634,0,0
0.0005780092,-0.0002039220000000001,0.0049534788,0.00043511200000000003,2.9350600000000024e-05,4.635,0,0
0.0016438772000000003,-0.0007141440000000001,0.0018886999999999992,0.00176686,0.00041672059999999997,4.636,0,0
0.0021942938,-0.000885899144,-0.0019598500000000004,0.002148184,0.0008510886,4.637,0,0
0.0020736698,-0.000449385944,-0.00667259,0.0013838589999999999,0.0004895342,4.638,0,0
0.001900164,0.000836336056,-0.008555289,0.0010510452,0.000359225,4.639,0,0
0.0015649040000000002,0.001629656056,-0.005299513,0.0007884986,0.0007260394,4.64,0,0
0.0011319659999999999,0.001117676056,-0.0004769009999999992,-0.00012608140000000003,0.0010619974,4.641,0,0
0.0011478960000000002,0.0008119860000000001,0.0026112070000000004,-0.0007686534,0.0011073533999999999,4.642,0,0
0.00112369402,-0.00055119,0.0043882468,-0.0012106624,0.0012327403999999999,4.643,0,0
0.00032348961999999995,-0.002901562,0.0039141098,-0.0023968666000000003,0.0006759855999999998,4.644,0,0
-0.00129568638,-0.0039747440000000005,0.0015962118000000004,-0.003267302,-0.0008167544,4.645,0,0
-0.0029531063800000003,-0.003996916,-0.00043120080000000013,-0.00336813,-0.0019818684,4.646,0,0
-0.00452866638,-0.003822636000000001,-0.0010823406000000002,-0.003745966,-0.0028422224000000003,4.647,0,0
-0.005384842000000001,-0.0030268680000000003,-0.0005395704000000002,-0.0037130060000000005,-0.00323573,4.648,0,0
-0.0046734808,-0.0012590364,0.0003782575999999999,-0.0022049240000000005,-0.0026362632000000003,4.649,0,0
-0.0031305094000000006,-0.0001566044000000001,0.0013374296,-0.0006803380000000002,-0.0014988038,4.65,0,0
-0.0017360088000000003,0.00018633200000000002,0.0019675722,0.00020096799999999994,-0.0004914877999999998,4.651,0,0
-5.481680000000023e-05,0.001132512,0.002224742,0.00176295,0.0006840722,4.652,0,0
0.0015711812000000001,0.002096164,0.002177058,0.003524154,0.0017267542000000001,4.653,0,0
0.0020178920000000003,0.0025604044,0.0017478288000000002,0.0042062,0.0022041094000000002,4.654,0,0
0.0024581106,0.0034122404000000005,0.0008638127999999999,0.004589876,0.002716392,4.655,0,0
0.0029702200000000004,0.004082456,5.562880000000006e-05,0.00525898,0.00308028,4.656,0,0
0.0022199702,0.003575768,-0.0006717032,0.004699414000000001,0.00296111,4.657,0,0
0.0011502402000000001,0.0030061650000000003,-0.0022883392000000004,0.0034118942000000005,0.002166502,4.658,0,0
0.0003723182,0.0023881654,-0.003616218,0.0025834902,0.0009115439999999996,4.659,0,0
-0.0013280978,0.001009297,-0.0037646100000000003,0.0011797642,-0.00010913600000000024,4.66,0,0
-0.0032624198,-0.000187403,-0.0033865346,-0.0007303158,-0.001098102,4.661,0,0
-0.004260026,-0.0009103430000000001,-0.0006254005999999993,-0.0019118738000000002,-0.0020282160000000002,4.662,0,0
-0.004666642,-0.00155589,0.0035896094,-0.002636836,-0.002020104,4.663,0,0
-0.004799426,-0.0021727044000000003,0.0051384274,-0.0036561479999999997,-0.0015702532000000003,4.664,0,0
-0.004048654,-0.002255292,0.0045121914,-0.004056782,-0.0013328360000000002,4.665,0,0
-0.002071332,-0.0014204820000000003,0.003595468,-0.0033032602,-0.0007489052,4.666,0,0
-0.0001791239999999998,-0.0006105780000000001,0.0006756999999999999,-0.0021085901999999997,1.3126800000000025e-05,4.667,0,0
0.0009088320000000003,-0.00020335840000000008,-0.002726664,-0.0011236702,0.0002895618,4.668,0,0
0.0022072560000000003,3.32636e-05,-0.0024516699999999995,0.00019963780000000007,0.0003392564,4.669,0,0
0.0038961580000000003,0.0006024156000000001,-0.000734792,0.0018144958,0.0006519211999999999,4.67,0,0
0.004924624000000001,0.0016338856,-0.00045179,0.0024682560000000003,0.0006539396000000001,4.671,0,0
0.005731824000000001,0.0023481136,-0.00073778,0.00264796,0.0006338796,4.672,0,0
0.0066909380000000004,0.002872588,-0.00043953619999999993,0.0029639600000000003,0.0012260766000000002,4.673,0,0
0.006483870000000001,0.003308886,0.00037738180000000004,0.00266321,0.0014771236000000003,4.674,0,0
0.005000870400000001,0.002866198,0.0026729898,0.0017159509999999998,0.0009270675999999999,4.675,0,0
0.0031269524000000003,0.0013403812,0.0069529378,0.000741025,0.0004567184,4.676,0,0
0.0005985324000000001,-0.0004109668000000001,0.0113676758,-0.0006221450000000001,-0.00043311360000000004,4.677,0,0
-0.0024018776,-0.0021280648,0.014260816,-0.0020805010000000002,-0.0022130796,4.678,0,0
-0.004638079599999999,-0.0034549588000000004,0.011396838000000001,-0.0030005870000000003,-0.003459722,4.679,0,0
-0.006039216,-0.004249762800000001,0.001905958000000001,-0.0038368660000000004,-0.003969746,4.68,0,0
-0.007071902000000001,-0.005141106000000001,-0.008262242,-0.004234616,-0.00441302,4.681,0,0
-0.006455642000000001,-0.004993318,-0.015334302000000001,-0.003387846,-0.0046625040000000005,4.682,0,0
-0.003966442000000001,-0.0033558500000000005,-0.01994342,-0.0017887579999999999,-0.004172072000000001,4.683,0,0
-0.0014033200000000002,-0.001773306,-0.019606306,-0.0003979379999999999,-0.0027460279999999998,4.684,0,0
0.0011120079999999998,-0.0005538679999999999,-0.013109676000000002,0.0013407500000000001,-0.0009017119999999998,4.685,0,0
0.0038579000000000005,0.0011104180000000002,-0.006240006000000002,0.0035943240000000003,0.0011362160000000002,4.686,0,0
0.005349068,0.0027361060000000003,-0.001693134,0.004731646,0.003429842,4.687,0,0
0.0052027060000000005,0.0034009620000000004,0.002061476,0.004698426,0.005285752,4.688,0,0
0.004955464000000001,0.0037704400000000008,0.005743164,0.004537090000000001,0.006048416,4.689,0,0
0.004473836,0.0037253200000000003,0.008411614000000001,0.004033424000000001,0.00552489,4.69,0,0
0.0029441342,0.00252998,0.009115214,0.0025712358,0.0042614352,4.691,0,0
0.0011578641999999998,0.001066068,0.006522596,0.0009325598000000001,0.0028859692,4.692,0,0
-7.307980000000015e-05,-4.232280000000002e-05,0.0005631239999999999,-0.00027633819999999996,0.0014273752,4.693,0,0
-0.0015261038,-0.0012053528,-0.005778436000000001,-0.0022165242,1.3391999999999007e-06,4.694,0,0
-0.0034009438000000003,-0.0016064622,-0.011333656000000001,-0.0040561582,-0.0011044868,4.695,0,0
-0.00435905,-0.0007493722000000002,-0.013682306000000002,-0.004551114,-0.0018813360000000004,4.696,0,0
-0.0046257220000000005,-0.0008391222000000002,-0.008666980000000001,-0.004592008,-0.002465484,4.697,0,0
-0.00462127,-0.0017083374000000002,0.0004525799999999993,-0.00401345,-0.002663064,4.698,0,0
-0.003472554,-0.0015350874000000002,0.0073875,-0.001728932,-0.0022499302,4.699,0,0
-0.00137908,-0.0011818860000000003,0.011502162,0.000838606,-0.0010235722,4.7,0,0
0.001039356,-0.001165828,0.013988786,0.002107368,0.00023489380000000018,4.701,0,0
0.003618942,-0.00038564800000000005,0.014054846000000001,0.0033628860000000003,0.0011695958000000001,4.702,0,0
0.005150674,0.0006443262,0.013174586000000002,0.004534426,0.0019813058000000003,4.703,0,0
0.0047596068,7.498020000000006e-05,0.013618506000000002,0.004718592,0.002022786,4.704,0,0
0.0032792628000000005,-0.0010111638,0.014312838000000001,0.004536814,0.001049898,4.705,0,0
0.0012990468000000002,-0.0012629753999999999,0.013485406000000002,0.004514494,0.00011809,4.706,0,0
-0.0013100272000000001,-0.0016010416,0.008436826,0.004208735999999999,0.00010278400000000002,4.707,0,0
-0.0033768111999999996,-0.0015346524000000002,-0.0003910139999999994,0.0031036693999999996,0.0005927419999999999,4.708,0,0
-0.003919248,-0.0005533857999999999,-0.009220194,0.0018988696000000003,0.001136316,4.709,0,0
-0.00394859,-0.00018562979999999993,-0.015434048000000002,0.0008966736,0.0018382860000000002,4.71,0,0
-0.004429344,-0.00046842419999999996,-0.02034642,-0.0008335583999999998,0.0022801594,4.711,0,0
-0.004380898,-0.00020339800000000003,-0.0227713,-0.0028976084,0.0014321954,4.712,0,0
-0.0035775200000000003,-1.1515399999999947e-05,-0.018774734,-0.0042795678,-1.2496599999999958e-05,4.713,0,0
-0.0026153380000000005,0.0006814560000000001,-0.011539454000000003,-0.005361678000000001,-0.0013136526,4.714,0,0
-0.0005143160000000003,0.0032973440000000002,-0.0038588540000000014,-0.00591059,-0.0026927706,4.715,0,0
0.00277501,0.008078936,0.004211145999999999,-0.004861908,-0.004017556,4.716,0,0
0.006256178,0.013795176000000001,0.011065245999999999,-0.0028915820000000006,-0.005221622,4.717,0,0
0.008423536,0.016374196,0.013279538,-0.0013213360000000002,-0.006277938,4.718,0,0
0.008653906000000001,0.015782224,0.011048742,0.000312806,-0.006487934000000001,4.719,0,0
0.007555409399999999,0.014862106000000002,0.006481632000000001,0.000664264,-0.005318923400000001,4.72,0,0
0.0053813194,0.011631846000000001,-0.0005518679999999996,-0.0018548160000000005,-0.0032456694000000006,4.721,0,0
0.0031397594,0.00584562,-0.008916328000000001,-0.004988614000000001,0.00025581660000000006,4.722,0,0
0.0021485794000000004,0.00366376,-0.016584026,-0.006392480000000001,0.0046270446,4.723,0,0
0.0014662210000000002,0.0017172199999999998,-0.02078517,-0.007173590000000001,0.0078514186,4.724,0,0
0.00012239559999999996,-0.007633302,-0.021104322000000002,-0.007107484000000001,0.009408728000000002,4.725,0,0
-0.0013435724000000003,-0.017250582,-0.014013222,-0.004590044000000001,0.009334472,4.726,0,0
-0.0038529524,-0.022034256,0.0009646779999999983,-0.002335762,0.007181074,4.727,0,0
-0.006769530400000001,-0.026090296,0.014449038,-0.00161867,0.0035042120000000005,4.728,0,0
-0.007974786,-0.02672102,0.021694818,-0.0006071780000000002,5.170199999999961e-05,4.729,0,0
-0.007724030000000001,-0.019163038,0.024230420000000003,0.0005481659999999999,-0.002016804,4.73,0,0
-0.007571322,-0.011135618,0.020123368000000003,0.00156065,-0.0017880879999999997,4.731,0,0
-0.006294856000000001,-0.0071228820000000005,0.008983552,0.004062484,0.0007842260000000003,4.732,0,0
-0.0034483180000000006,-0.0036136544,-0.0004662280000000004,0.007234538,0.004385408,4.733,0,0
-0.0016168040000000001,-0.0015655384000000001,-0.003567656,0.008785306,0.007461718000000001,4.734,0,0
3.501000000000003e-05,-0.0005179184000000002,-0.002238636000000001,0.009142550000000001,0.008633262,4.735,0,0
0.0030486080000000004,0.0013082556000000001,0.0008427159999999999,0.008751738000000002,0.007189102000000001,4.736,0,0
0.005621692,0.0035409116,0.0030611880000000003,0.006527562,0.003150858000000001,4.737,0,0
0.0065555200000000004,0.005087182,0.004104578,0.002796446,-0.0026296819999999995,4.738,0,0
0.007904274,0.006879218,0.0033971220000000007,-0.001714614,-0.008589762,4.739,0,0
0.008545396,0.007718246000000001,0.0012818106,-0.006528524,-0.01345374,4.74,0,0
0.007179988,0.007246136,-0.00016129740000000027,-0.00889998,-0.016688184000000002,4.741,0,0
0.006195568,0.007644284000000001,0.0012382465999999995,-0.00642678,-0.01800328,4.742,0,0
0.0045599446,0.007482000000000001,0.0032867746,-0.0003476439999999994,-0.01694336,4.743,0,0
0.0006244326000000001,0.005656848000000001,0.0034918525999999995,0.006930536000000001,-0.013271372,4.744,0,0
-0.0037014673999999997,0.0035703360000000003,0.0019143979999999999,0.015127696,-0.008054928,4.745,0,0
-0.0058420374,0.002284611,-0.0019159140000000003,0.02146424,-0.0027406259999999995,4.746,0,0
-0.007256583400000001,0.000418439,-0.0070296740000000005,0.02251634,0.0018755560000000002,4.747,0,0
-0.008423678,-0.001376267,-0.010790172,0.01959076,0.005866482,4.748,0,0
-0.006886995999999999,-0.0012433513999999999,-0.011706144000000002,0.016259234,0.009367954000000001,4.749,0,0
-0.0041417294,-0.00047574659999999997,-0.010618406000000002,0.012161656000000002,0.01140147,4.75,0,0
-0.0030397253999999998,-0.0006151736,-0.007611298,0.00622529,0.012502788,4.751,0,0
-0.0030361014000000004,-0.0007664047999999999,-0.003990172000000001,0.0004964500000000003,0.014300106,4.752,0,0
-0.0023694294000000003,9.070319999999999e-05,-0.0012391662000000002,-0.00572279,0.015806280000000002,4.753,0,0
-0.0016958744000000001,0.0005757076,0.0006259678,-0.013026604,0.014779300000000002,4.754,0,0
-0.0009864690000000002,0.0006237833200000001,0.0020408258000000003,-0.022115726000000002,0.011390808,4.755,0,0
0.000671531,0.0015360753200000003,0.0034347958000000003,-0.03241076,0.006541008,4.756,0,0
0.002379883,0.0027920865200000006,0.0042112778000000005,-0.040286340000000004,0.0005235680000000007,4.757,0,0
0.0035844229999999998,0.003738352520000001,0.0042156282,-0.04239984,-0.004967712,4.758,0,0
0.00477786,0.004791954520000001,0.0035631122,-0.04033394,-0.008570694,4.759,0,0
0.00599214,0.005336232000000001,0.0023032382,-0.03629902,-0.010564542000000001,4.76,0,0
0.005619188,0.003823526000000001,-0.0003181737999999999,-0.027857180000000002,-0.011806562,4.761,0,0
0.0041597380000000005,0.0014211000000000004,-0.0026198018,-0.016833046000000004,-0.013266001999999999,4.762,0,0
0.004033342,-0.00031138600000000003,-0.002801054,-0.006458765999999999,-0.015730662,4.763,0,0
0.003848194,-0.0022533040000000002,-0.0025233879999999997,0.002935554,-0.01830462,4.764,0,0
0.002464672,-0.003492884000000001,-0.0009286659999999999,0.013239654000000002,-0.0187652,4.765,0,0
0.0018982640000000002,-0.0030890780000000003,0.004367368,0.023819854,-0.016468064,4.766,0,0
0.00148043,-0.0043050200000000005,0.010523868,0.030318680000000004,-0.011874311999999998,4.767,0,0
-0.0007142359999999999,-0.008029496,0.014433044,0.03143784,-0.005753954,4.768,0,0
-0.003709022,-0.01096192,0.017169058,0.03056052,0.0006450260000000001,4.769,0,0
-0.006338832000000001,-0.012406976,0.013955018,0.02889938,0.005944806,4.77,0,0
-0.008339982000000001,-0.013353418,0.0029733580000000015,0.02345819,0.00892797,4.771,0,0
-0.009286584,-0.012406862000000001,-0.008697942,0.017365590000000004,0.009727976000000001,4.772,0,0
-0.009896582000000001,-0.008022014000000001,-0.019042902,0.013266347999999997,0.008709636,4.773,0,0
-0.010552421999999999,-0.001940833999999999,-0.026998302000000002,0.009040226000000002,0.005516500000000001,4.774,0,0
-0.00990659,0.004973586,-0.026981958000000004,0.005095026,0.0005478000000000002,4.775,0,0
-0.007673346000000001,0.012310524,-0.015629018,0.0030542944,-0.0034659800000000004,4.776,0,0
-0.0041576320000000005,0.016451548,0.0017607419999999992,0.0011666284000000002,-0.003824612,4.777,0,0
0.001404528,0.016123206400000003,0.013604022000000004,-0.0027387896000000004,-0.0018100300000000007,4.778,0,0
0.007948608,0.0135137178,0.015159402000000002,-0.0057346676,0.000302938,4.779,0,0
0.012365056,0.007893077799999999,0.011901240000000004,-0.0071890716,0.002338688,4.78,0,0
0.013874514000000001,0.0002749558000000002,0.004795500000000002,-0.008938222000000001,0.00406358,4.781,0,0
0.013349534,-0.0025362024,-0.00505333,-0.011816476000000001,0.00444573,4.782,0,0
0.011051346,0.0001832912,-0.007096430000000001,-0.015765236000000002,0.00473025,4.783,0,0
0.00843345,0.0040643397999999996,0.0005775900000000002,-0.019590256,0.007771938000000001,4.784,0,0
0.0068916,0.0091976998,0.00860499,-0.022427852,0.013797788000000002,4.785,0,0
0.005342434,0.0147486618,0.011347954,-0.02173989,0.021063716,4.786,0,0
0.0025981719999999997,0.016103818,0.007960344000000001,-0.015600790000000003,0.02802752,4.787,0,0
-0.0012832,0.011725072,8.75040000000004e-05,-0.0030991100000000004,0.03417014,4.788,0,0
-0.005057183999999999,0.002815111999999999,-0.009685616000000001,0.013872670000000002,0.039263900000000004,4.789,0,0
-0.008429554,-0.010325908000000002,-0.021672316,0.030812930000000002,0.04148942,4.79,0,0
-0.011536474,-0.017870988,-0.035691200000000006,0.04263736,0.03920796,4.791,0,0
-0.01212796,-0.008194086,-0.04651820000000001,0.047731720000000005,0.032313400000000006,4.792,0,0
-0.010901252,0.0117523,-0.04706902,0.04725734,0.022655152,4.793,0,0
-0.010546972000000002,0.031736020000000004,-0.03176666000000001,0.037722026,0.011089812000000001,4.794,0,0
-0.009527482,0.05144378,-0.002964340000000003,0.021258826,-0.0020150479999999998,4.795,0,0
-0.007095702000000001,0.057061398,0.026191060000000002,0.003518086,-0.014943688,4.796,0,0
-0.005548216000000001,0.034103997999999996,0.04574316,-0.016792134,-0.028827067999999997,4.797,0,0
-0.003354124000000001,-0.0010527620000000057,0.05239684,-0.037792094,-0.04163432,4.798,0,0
0.0014794560000000003,-0.038626282000000005,0.04679546,-0.05096534,-0.05018658,4.799,0,0
0.005181066000000001,-0.074502222,0.03345486,-0.0544749,-0.05297172,4.8,0,0
0.006912496000000001,-0.08542828,0.019361602000000002,-0.048996312,-0.05247784,4.801,0,0
0.009876590000000001,-0.07058887999999999,0.011661371999999998,-0.034352127999999996,-0.05276958000000001,4.802,0,0
0.01137049,-0.05285568,0.009466891999999998,-0.017993770000000003,-0.05268666000000001,4.803,0,0
0.01100037,-0.028790683999999993,0.0026511919999999984,-0.006363752,-0.052431120000000005,4.804,0,0
0.01058771,0.005664956,-0.010022728000000002,0.000662511,-0.05060776,4.805,0,0
0.008152379999999999,0.023217436,-0.01622799,0.0033394490000000004,-0.043222064000000004,4.806,0,0
0.00580728,0.022865236,-0.01826782,0.0030811190000000002,-0.027298644,4.807,0,0
0.0057437,0.024911276000000003,-0.019416204000000003,0.005016101,-0.007219423999999999,4.808,0,0
0.0055371,0.026509760000000004,-0.010828224000000001,0.009019942999999999,0.012055996,4.809,0,0
0.00675778,0.016589992,0.004992576000000001,0.01371292,0.028981076,4.81,0,0
0.01187324,-0.00019088800000000017,0.019818336000000002,0.019307994000000002,0.04234624000000001,4.811,0,0
0.014616000000000002,-0.014586368000000002,0.031416376,0.02490432,0.053458660000000005,4.812,0,0
0.012119234000000001,-0.026376188000000002,0.03160133,0.02956024,0.061256500000000005,4.813,0,0
0.006487134000000001,-0.034301888,0.016040850000000002,0.033239920000000006,0.06610289999999999,4.814,0,0
-0.0014734859999999987,-0.03731674000000001,-0.001962369999999998,0.03592982,0.06640715999999999,4.815,0,0
-0.010784946,-0.03448864,-0.016319890000000004,0.03459578,0.059820540000000005,4.816,0,0
-0.019720786,-0.02970986,-0.02430817,0.02953448,0.04797026000000001,4.817,0,0
-0.02537794,-0.023053039999999997,-0.017348540000000003,0.0221825,0.033126676,4.818,0,0
-0.028775380000000003,-0.013103900000000002,-0.003443560000000001,0.012276760000000001,0.018666822000000003,4.819,0,0
-0.03177398000000001,-0.00419542,0.0022569600000000006,0.0008977799999999999,0.008488728000000001,4.82,0,0
-0.032661840000000004,0.01016804,0.0007689200000000019,-0.00887354,0.0026534560000000002,4.821,0,0
-0.029252080000000003,0.03002924,-0.0035393199999999986,-0.0173947,-0.003180604,4.822,0,0
-0.022628330000000002,0.04065302,-0.010697192,-0.02755038,-0.011034180000000001,4.823,0,0
-0.01294143,0.04313658,-0.015429402,-0.041021,-0.021823626,4.824,0,0
0.00015875000000000004,0.05309374,-0.012616002000000001,-0.057424260000000005,-0.035821752,4.825,0,0
0.01388311,0.06626034,-0.008610094000000002,-0.07142548,-0.04846872000000001,4.826,0,0
0.024852110000000004,0.07375842,-0.010672174,-0.07836684000000001,-0.05779616,4.827,0,0
0.0318189,0.08242012,-0.014543022,-0.07580202000000001,-0.0640242,4.828,0,0
0.03522338,0.09117080000000001,-0.015359786,-0.06044271000000001,-0.06473922,4.829,0,0
0.03428046,0.08747516000000001,-0.015559634000000001,-0.03386719000000001,-0.060531180000000004,4.83,0,0
0.02934258,0.05511074000000001,-0.01542279,-0.0038995099999999984,-0.0530659,4.831,0,0
0.021477525999999997,0.004464340000000004,-0.010820268000000001,0.02363739,-0.041136746,4.832,0,0
0.011677986,-0.03196438,-0.002181608,0.044040970000000006,-0.025093496,4.833,0,0
0.0018354660000000004,-0.05556442,0.007073846,0.05391402,-0.009421635999999999,4.834,0,0
-0.005781794,-0.07814174,0.013322254,0.053510039999999995,0.003992444000000001,4.835,0,0
-0.011560273999999999,-0.08600784,0.018708721999999997,0.044094400000000006,0.015184964000000002,4.836,0,0
-0.016283080000000002,-0.07772944000000001,0.0232286,0.030168274,0.023308750000000003,4.837,0,0
-0.0167849,-0.07419384000000001,0.019449151999999997,0.018797442,0.029026800000000002,4.838,0,0
-0.012870166000000002,-0.07594538,0.0062415720000000025,0.012786161999999998,0.032990740000000005,4.839,0,0
-0.007639166,-0.06879460000000001,-0.0062656479999999995,0.012037822,0.035853640000000006,4.84,0,0
-0.0011255460000000007,-0.04833492,-0.012502468000000001,0.016624262,0.03698942,4.841,0,0
0.006397634,-0.02042944,-0.014072250000000001,0.023732028000000002,0.036740760000000004,4.842,0,0
0.010982744,0.0020326200000000015,-0.009209282,0.028873259999999998,0.03568902,4.843,0,0
0.010431096,0.012920608,-0.0023185560000000003,0.030106380000000002,0.03396094,4.844,0,0
0.0054089559999999995,0.014353148,0.0036011059999999998,0.0280319,0.03308266,4.845,0,0
-0.002449764000000001,0.015108388000000002,0.012122346,0.022285074,0.03190354000000001,4.846,0,0
-0.010675744000000001,0.016970647999999998,0.020979268000000002,0.013411508,0.029742740000000004,4.847,0,0
-0.017360554,0.020045868,0.022687188,0.0034558080000000003,0.026640820000000003,4.848,0,0
-0.021248680000000006,0.0320358,0.020893166,-0.005799112000000001,0.020798109000000006,4.849,0,0
-0.021761540000000003,0.04742384,0.021439084,-0.014456012,0.012081269,4.85,0,0
-0.01898454,0.055915040000000006,0.017402924,-0.022305706,0.0027027089999999993,4.851,0,0
-0.013936530400000001,0.05651784000000001,0.004594203999999999,-0.02738478,-0.007306671000000001,4.852,0,0
-0.0087008464,0.05102674000000001,-0.009347496,-0.02980504,-0.018566411,4.853,0,0
-0.0037651084000000002,0.03699584200000001,-0.01889448,-0.02926832,-0.027704120000000006,4.854,0,0
0.0018102116000000004,0.013107382000000002,-0.026183380000000003,-0.02597866,-0.035208460000000004,4.855,0,0
0.006064931600000001,-0.011781998000000002,-0.02532402,-0.0211857,-0.04259474,4.856,0,0
0.009815062000000001,-0.026517658000000003,-0.011644559999999998,-0.016378034,-0.04703064,4.857,0,0
0.016789478,-0.031333512,0.008400420000000002,-0.012099640000000002,-0.046669020000000005,4.858,0,0
0.02609594,-0.026235894000000003,0.025949180000000002,-0.008982462,-0.041415959999999995,4.859,0,0
0.0337296,-0.009925773999999998,0.029431200000000005,-0.007804894000000001,-0.032077558,4.86,0,0
0.039197340000000004,0.004145586000000001,0.016924540000000002,-0.0062363060000000005,-0.018880878000000004,4.861,0,0
0.04244632,0.009251678000000001,0.0006432399999999998,-0.0037364,-0.004159977999999999,4.862,0,0
0.038966440000000005,0.00810507,-0.01596958,-0.001680494,0.008629022000000002,4.863,0,0
0.028095778000000005,-0.005551050000000001,-0.026621080000000005,0.0006169600000000002,0.018832742,4.864,0,0
0.013620618000000004,-0.02473231,-0.022448200000000005,0.0048640720000000005,0.02719622,4.865,0,0
-0.002145882000000001,-0.03366347,-0.01539768,0.008585764000000001,0.033041360000000006,4.866,0,0
-0.018924702,-0.036509202000000004,-0.012777380000000001,0.010554132,0.036990640000000005,4.867,0,0
-0.033388822000000005,-0.03805414,-0.008502522,0.012698132,0.04218268,4.868,0,0
-0.042476700000000006,-0.03218224,-0.0010559419999999998,0.013458182000000003,0.04827572,4.869,0,0
-0.04660212000000001,-0.023070180000000003,0.010712618,0.012561722,0.051956260000000004,4.87,0,0
-0.04520128,-0.019963360000000003,0.025661978000000002,0.012087802000000002,0.05171494,4.871,0,0
-0.03979818,-0.02147238,0.037472078,0.012808942,0.0486199,4.872,0,0
-0.03262078,-0.02277914,0.039003032,0.014218182000000003,0.041262560000000004,4.873,0,0
-0.023477116000000003,-0.020180246000000002,0.021845812,0.014624980000000003,0.02614642,4.874,0,0
-0.013932778,-0.010266766000000002,-0.0054069280000000036,0.012158824,0.0040008599999999984,4.875,0,0
-0.007671002000000001,0.0073055540000000006,-0.024456568,0.007732014,-0.01958286,4.876,0,0
-0.0019778980000000005,0.030567434,-0.035999088,0.0028372400000000013,-0.04022776,4.877,0,0
0.006153722000000001,0.057349154,-0.037955856,-0.0014221848000000002,-0.05538970000000001,4.878,0,0
0.013341238000000002,0.08074546,-0.022429796,-0.0037101242,-0.06128606,4.879,0,0
0.01910866,0.09544206000000001,-0.005493988000000002,-0.0047607242,-0.05838092000000001,4.88,0,0
0.024283164,0.09002594,0.0005838600000000003,-0.005795834200000001,-0.051464180000000005,4.881,0,0
0.02679312,0.05420862000000001,0.0049283800000000004,-0.008512040200000001,-0.045652,4.882,0,0
0.02553318,0.007885820000000009,0.0076214180000000005,-0.015177315399999999,-0.0437158,4.883,0,0
0.02185616,-0.028402959999999998,0.001850838,-0.024100836,-0.044242619999999996,4.884,0,0
0.018416460000000003,-0.052142640000000004,-0.00590689,-0.029925200000000002,-0.04232462,4.885,0,0
0.01686772,-0.060931648000000005,-0.009162718,-0.031043100000000004,-0.035698914,4.886,0,0
0.014930142,-0.047954368000000004,-0.008081538,-0.027895714000000002,-0.025786534,4.887,0,0
0.01231545,-0.024164488000000005,-0.0014023199999999986,-0.018444174000000004,-0.011881174,4.888,0,0
0.009915428,-0.012578608000000002,0.0073369,-0.004884454000000002,0.003028926,4.889,0,0
0.005502040000000001,-0.015232108,0.01573178,0.007949286,0.014636426000000001,4.89,0,0
-2.1259999999999942e-05,-0.016965440000000002,0.020656132,0.019380186,0.0229017,4.891,0,0
-0.004813182,-0.01236901,0.016354268,0.028636460000000002,0.03003062,4.892,0,0
-0.00932321,-0.00913255,0.005162808,0.033244880000000004,0.03637524,4.893,0,0
-0.013795708,-0.002914269999999999,-0.0038826719999999998,0.03304034000000001,0.04078672,4.894,0,0
-0.01466812,0.008157870000000001,-0.008665732,0.028674682000000003,0.04620026,4.895,0,0
-0.010966822000000001,0.02005111,-0.011631092,0.019260282,0.05331536,4.896,0,0
-0.006176774000000002,0.02833926,-0.011511612000000001,0.0066172819999999995,0.058156820000000005,4.897,0,0
-0.001209676,0.028991620000000003,-0.013004392,-0.005302238,0.05804036,4.898,0,0
0.00341551,0.027617360000000004,-0.019337172,-0.013074078,0.05343724000000001,4.899,0,0
0.004283796,0.022862722000000002,-0.023168592000000002,-0.015016472,0.042691954000000004,4.9,0,0
-0.0014494219999999997,0.008378362,-0.020974272,-0.012919417999999998,0.026388454000000002,4.901,0,0
-0.01016623,-0.011624797999999999,-0.014690468,-0.0072296919999999985,0.009746873999999999,4.902,0,0
-0.018935848,-0.023087698,-0.0002804879999999989,-0.0022400920000000004,-0.005801886,4.903,0,0
-0.026424174,-0.022724338,0.019191752,-0.003945692000000001,-0.018433026,4.904,0,0
-0.030550860000000006,-0.018929559999999998,0.032246312,-0.0077585,-0.02452814,4.905,0,0
-0.031423660000000006,-0.014481818,0.03635332,-0.008310808,-0.0246853,4.906,0,0
-0.027574800000000003,-0.006829398,0.032367714000000006,-0.00835246,-0.02338832,4.907,0,0
-0.019214320000000003,-0.004811558,0.021466254,-0.0063175,-0.02192126,4.908,0,0
-0.00788914,-0.014251438000000002,0.010727668000000001,0.0017592200000000014,-0.020125260000000002,4.909,0,0
0.0056603,-0.021935358000000002,0.0037151005999999996,0.009003480000000001,-0.021218820000000003,4.91,0,0
0.0199803,-0.02260356,-0.00033915140000000024,0.010627388,-0.027868920000000005,4.911,0,0
0.03206206,-0.017118144000000002,0.0004249745999999998,0.008272106,-0.036271540000000005,4.912,0,0
0.038291860000000004,-0.007933563999999999,0.0037241546,0.0018162659999999995,-0.04049272,4.913,0,0
0.03863118000000001,0.0032782160000000018,0.0046812764,-0.008178474,-0.04059128,4.914,0,0
0.03375238,0.019998496,0.0034818478,-0.018568294,-0.037312040000000005,4.915,0,0
0.024788208000000003,0.039409936,0.0023582158,-0.026619168,-0.029649136000000003,4.916,0,0
0.012523668,0.05295524,-0.0003906142,-0.03174662,-0.020808326000000002,4.917,0,0
0.0028605280000000006,0.05554498000000001,-0.0031366962,-0.0320265,-0.016508406000000003,4.918,0,0
0.0022843679999999997,0.04763114,-0.0019522100000000002,-0.026693995999999998,-0.015045125999999999,4.919,0,0
0.005752708,0.028765460000000007,-0.002297286,-0.017728531999999998,-0.012317738,4.92,0,0
0.009944540000000002,0.00424292,-0.007279382000000001,-0.0062920319999999995,-0.008575262,4.921,0,0
0.015669080000000002,-0.016705280000000003,-0.012152252,0.0070382080000000015,-0.0028284519999999995,4.922,0,0
0.017685742,-0.02795602,-0.01680561,0.019210208,0.0069602280000000015,4.923,0,0
0.010782502,-0.02830046,-0.022939132,0.028531504000000003,0.018520588,4.924,0,0
-0.001192677999999999,-0.020829778,-0.02521964,0.0349,0.027528940000000002,4.925,0,0
-0.013483097999999999,-0.012770794000000002,-0.0217746,0.0376617,0.03277722,4.926,0,0
-0.023798058,-0.008995794000000001,-0.015664083999999998,0.03764604,0.033156580000000005,4.927,0,0
-0.029714240000000003,-0.0028784680000000003,-0.005947624000000002,0.03504822,0.02871943,4.928,0,0
-0.031358460000000005,0.0015284180000000001,0.003827156,0.030239319999999997,0.020388622,4.929,0,0
-0.028089742,-0.010214184000000001,0.010000916,0.024186666,0.010254641999999998,4.93,0,0
-0.019648418,-0.025233728000000004,0.012072594,0.017424562,0.0025283740000000003,4.931,0,0
-0.009023718,-0.028197348,0.008140238000000001,0.010971476,0.0003639740000000002,4.932,0,0
-0.0005897980000000008,-0.028597364000000004,-0.002384622000000001,0.0059402208,0.004435444,4.933,0,0
0.0028075440000000004,-0.01726573,-0.017237162,0.0026867908,0.012265512000000003,4.934,0,0
0.0022906059999999997,0.021803010000000005,-0.025850102000000003,0.0009656889999999998,0.021685832000000002,4.935,0,0
-0.00033809200000000034,0.07409735,-0.02054718,-9.243699999999996e-05,0.029604320000000003,4.936,0,0
-0.0048539640000000005,0.11204555000000002,-0.000788240000000006,-0.0010785810000000001,0.03273508,4.937,0,0
-0.008426114000000002,0.11991244000000002,0.02427842,-0.0019579518,0.029085808000000005,4.938,0,0
-0.007681242000000001,0.09730044000000002,0.04181788,-0.0036743438000000003,0.019294148000000004,4.939,0,0
-0.004326958000000001,0.04079624000000001,0.04854398,-0.007358568,0.006415008,4.94,0,0
-0.0013841119999999998,-0.05387036,0.04287737999999999,-0.011541458000000001,-0.007260712000000001,4.941,0,0
0.000733982,-0.14751496,0.025370132,-0.015178368000000001,-0.018237352000000002,4.942,0,0
0.0012191900000000002,-0.18805638000000002,0.0019660319999999995,-0.019114702000000004,-0.02397148,4.943,0,0
-0.00017768400000000065,-0.18221394000000005,-0.013911148,-0.021656400000000003,-0.024155080000000002,4.944,0,0
-0.0015738560000000002,-0.14554802000000003,-0.026288168,-0.02189164,-0.02167138,4.945,0,0
-0.0007003060000000004,-0.07452319999999998,-0.040436388,-0.02220776,-0.0196287,4.946,0,0
0.002807392,-0.0012635200000000058,-0.04304826,-0.0237978,-0.019996800000000002,4.947,0,0
0.008582734000000002,0.03771058,-0.028967599999999996,-0.024786460000000003,-0.02402934,4.948,0,0
0.015551994000000001,0.051948760000000004,-0.0006711799999999934,-0.02605884,-0.028518760000000004,4.949,0,0
0.020891102,0.051638680000000006,0.028614160000000007,-0.0325294,-0.0296222,4.95,0,0
0.021461260000000003,0.03950508,0.045623760000000006,-0.04198262,-0.025846784,4.951,0,0
0.017825504000000002,0.03758272,0.045530580000000015,-0.0472666,-0.017203004,4.952,0,0
0.014661032000000001,0.051581020000000005,0.029511120000000005,-0.0458267,-0.003720964000000002,4.953,0,0
0.013236152000000001,0.06180098,0.005863739999999999,-0.036313599999999994,0.009797695999999998,4.954,0,0
0.011785112,0.07043372,-0.007074880000000001,-0.015420320000000001,0.018470795999999998,4.955,0,0
0.009722505999999999,0.07870432000000001,0.00036517999999999967,0.01412616,0.02517602,4.956,0,0
0.008427744000000001,0.0690343816,0.016413860000000002,0.04217398,0.031099100000000005,4.957,0,0
0.005883838000000001,0.04681666759999999,0.0267651,0.06266854000000001,0.03575828,4.958,0,0
-0.0010941420000000004,0.0302287676,0.020185679999999998,0.07405552000000001,0.040841260000000004,4.959,0,0
