bandpass 1,bandpass 2,bandpass 3,bandpass 4,bandpass 5,time,onset,mark
-0.00033985959999999996,-0.002808072,-0.0008302354000000002,0.00016716740000000002,-0.0012596220000000002,6.693,0,0
-0.00021560739999999998,-0.0035607860000000002,-0.0010254912000000002,0.00037130940000000003,-0.0017049460000000002,6.694,0,0
0.00019059060000000002,-0.0037275614,-0.0013008572000000002,0.0007653294000000001,-0.002368502,6.695,0,0
0.0007624618,-0.0031159221999999998,-0.0008420128,0.0012099032,-0.002330402,6.696,0,0
0.0009971048,-0.0025940342000000003,-0.0005882346000000001,0.0014133314,-0.0016673274,6.697,0,0
0.001278997,-0.001290018,-0.0007658912000000001,0.0019322060000000001,-0.0015529874000000002,6.698,0,0
0.0016867328,0.00016054399999999999,-0.00024327539999999996,0.002275268,-0.0015975614,6.699,0,0
0.0016416168,0.0009631854000000001,0.0007617946000000001,0.0020202132000000004,-0.0010265562000000002,6.7,0,0
0.0013753602,0.0017713202000000001,0.0009579490000000001,0.0015567132000000002,-0.0004885582000000001,6.701,0,0
0.0013749286,0.0026961302,0.0009409270000000001,0.0013109404000000002,-0.00036377680000000006,6.702,0,0
0.0012926924,0.002970622,0.0014917170000000003,0.0006110015200000001,0.0004110072,6.703,1,1
0.0006889596,0.002815994,0.0013539302000000002,-0.00035943848,0.0017991512000000002,6.704,0,0
7.54436e-05,0.0027955,0.0005783102000000001,-0.0008192356800000001,0.002433528,6.705,0,0
0.00011982580000000003,0.002593846,0.0009492074000000001,-0.00109321968,0.0022065168399999996,6.706,0,0
0.00017513140000000003,0.0021391232,0.0017010732,-0.00144422888,0.0021340594399999998,6.707,0,0
-0.0001713944,0.0017648261999999998,0.0017144492,-0.0014746954000000002,0.0014356994400000001,6.708,0,0
-4.9982800000000005e-05,0.0008414922,0.001726798,-0.001160516,-8.098856000000008e-05,6.709,0,0
0.00026559500000000003,-0.0004941138000000001,0.002009314,-0.001042984,-0.0008611385600000002,6.71,0,0
-0.00017705860000000005,-0.0014093038,0.0015986916,-0.000837536,-0.0010895974000000002,6.711,0,0
-0.0005557214,-0.002379327,0.0008302664999999999,-0.0002532979999999999,-0.0017175940000000002,6.712,0,0
-0.0006115234,-0.00345224,0.0006605999,-4.436359999999986e-05,-0.0017192928000000001,6.713,0,0
-0.0012220662,-0.0038668900000000004,0.0003580419,-0.00023751899999999997,-0.001123115,6.714,0,0
-0.0014812442000000001,-0.003955416000000001,3.84661e-05,-0.00018870679999999994,-0.001191529,6.715,0,0
-0.0007426341999999998,-0.004081642,0.0003232205,-5.865599999999995e-05,-0.000847156,6.716,0,0
-0.00016071819999999992,-0.0036930820000000003,0.0005213896,-0.0005919390000000001,0.000340288,6.717,0,0
0.0002760154,-0.0028940140000000003,0.0001416442,-0.001188774,0.0012464348,6.718,0,0
0.0010382794,-0.0020365334,1.0404200000000032e-05,-0.0014135200000000001,0.0016627290000000004,6.719,0,0
0.0012740324000000002,-0.0011269886,0.00031336000000000005,-0.0016947242,0.0023405670000000004,6.72,0,0
0.0006601256,-0.00011275660000000009,9.167060000000002e-05,-0.0015273549200000003,0.0026607620000000005,6.721,0,0
0.00024603600000000004,0.0007372374000000001,-0.0003235894000000001,-0.00100326992,0.0020115454000000006,6.722,0,0
0.00037533040000000003,0.0010400024,-8.5674e-05,-0.0001561039199999999,0.0010325134,6.723,0,0
0.0003101434,0.0010709704000000002,-6.0015999999999976e-05,0.00085668008,5.284340000000004e-05,6.724,0,0
6.949460000000001e-05,0.0012335856,-0.000536244,0.0012432960800000002,-0.0009212005999999999,6.725,0,0
1.6507399999999997e-05,0.0007955074,-0.0006582306,0.0011986566,-0.0017659546,6.726,0,0
-3.542879999999999e-05,0.00015286540000000005,-0.0006208656,0.0011099786,-0.0016869266,6.727,0,0
5.3395199999999986e-05,0.00019967520000000006,-0.0008595250000000001,0.0009390986,-0.0010379305999999998,6.728,0,0
0.0002183102,-0.00020726339999999998,-0.0007835422,0.0007084186,-0.0003574705999999999,6.729,0,0
0.00033767819999999996,-0.0009955794,-0.00051059512,0.0008381794,0.0005023634000000001,6.73,0,0
0.0006931338000000001,-0.0010705618,-0.0008421771200000001,0.0013614648,0.0009570164000000001,6.731,0,0
0.0008998564000000001,-0.0006122086,-0.00090636612,0.0016430768,0.0003831030000000001,6.732,0,0
0.0007424304,-0.0003435434000000001,-0.00029155811999999993,0.0012401150000000002,-0.00026765899999999995,6.733,0,0
0.000605497,0.0004847206,-0.00015554078000000005,0.0008840434000000001,-0.00037611899999999995,6.734,0,0
0.0004919360000000001,0.0014746406000000001,-0.0004883778599999999,0.0010057186,-0.0010302850000000001,6.735,0,0
0.0003034322,0.00158694848,-9.172266000000005e-05,0.00033625380000000006,-0.001315836,6.736,0,0
-0.00020439860000000002,0.00162340728,0.00021067253999999997,-0.000376516,-0.0008926778000000001,6.737,0,0
-0.0010842286000000002,0.0018606172800000001,-0.00027953146,0.0003602258,-0.0009947278000000002,6.738,0,0
-0.0016791172,0.0017914432800000002,4.6786400000000024e-05,0.0009838434,-0.0011068260000000002,6.739,0,0
-0.0020684302000000005,0.0011830742800000003,0.0008559404000000002,0.0007793034000000001,-0.0008325404000000001,6.74,0,0
-0.002478112,0.0010408864,0.0008529350000000002,0.0010366738000000002,-0.00047993800000000007,6.741,0,0
-0.00267327,0.00082529246,0.0008292352000000003,0.0015118516,0.00016506379999999996,6.742,0,0
-0.003000932,-0.00021429554,0.0014605912000000003,0.0011590416000000002,0.0011439298,6.743,0,0
-0.0038807600000000005,-0.0012528655400000002,0.0018765012,0.0004973668,0.0016689920000000002,6.744,0,0
-0.004482066000000001,-0.0019607865400000004,0.0016956491999999999,0.00030523440000000007,0.0018420702000000002,6.745,0,0
-0.003884866400000001,-0.00242993594,0.0017355362,7.011100000000001e-05,0.0019543678,6.746,0,0
-0.0015777104000000003,-0.0021800180000000006,0.0012816468,-0.00035319160000000003,0.0016062398000000002,6.747,0,0
0.0016641135999999996,-0.000843972,-0.0007551672,-0.0006371016,0.0009080512,6.748,0,0
0.0045593796,0.0006967819999999998,-0.0029615132000000003,-0.0007451008000000001,0.0004869532,6.749,0,0
0.0071678536,0.002226238,-0.003951743200000001,-0.0009434644000000001,0.0007356514000000001,6.75,0,0
0.0080037,0.00344719,-0.00438242,-0.0009273816000000001,0.0007049873999999999,6.751,0,0
0.00665901,0.0036935820000000004,-0.0041446646,-0.000604095,0.0002323156,6.752,0,0
0.004867336000000001,0.00302225,-0.0022589506000000007,-0.001025953,0.0004098514,6.753,0,0
0.0033256878,0.0021150124000000005,-0.0004851686,-0.0015741490000000002,0.0006242414,6.754,0,0
0.0018701762000000004,0.0018567444,-0.00030084660000000005,-0.0015872070000000002,0.0003131554,6.755,0,0
0.0011074362,0.0012769616,-0.0003228966,-0.00200779,0.0002545796,6.756,0,0
0.0008624288000000001,-0.0004327984,-0.0002333288000000001,-0.0028788380000000003,0.00031159140000000003,6.757,0,0
0.00014788480000000004,-0.0025286784,-0.0008452188000000001,-0.003045,-0.0002017098,6.758,0,0
-0.00039500500000000003,-0.0051787408000000005,-0.0012480632,-0.0028394880000000003,-0.0008284958000000001,6.759,0,0
-0.0006293714,-0.0074629468,-0.0008037152,-0.0030150259999999996,-0.0007416060000000001,6.76,0,0
-0.0009687818000000001,-0.006626448,-0.0004660678,-0.0026533068,-0.0004183782,6.761,0,0
-0.0014420724,-0.0028140979999999993,-0.000618383,-0.0019332296,-8.913320000000007e-05,6.762,0,0
-0.0015820744,0.0013631900000000002,-0.0005059106,-0.0010566976000000003,0.00042870180000000003,6.763,0,0
-0.0016057884,0.006136730000000001,-4.81902e-05,0.0002406184000000001,0.0009355090000000002,6.764,0,0
-0.0018622604,0.008945378,2.4892000000000005e-05,0.0016506304000000003,0.0007057514,6.765,0,0
-0.002568694,0.005768284000000002,0.00042782659999999995,0.0028808412000000004,-0.00029121259999999994,6.766,0,0
-0.003377962,-0.000743736,0.0014051906,0.003634008,-0.0009297036,6.767,0,0
-0.003274206,-0.007103636,0.0018831922,0.004357878000000001,-0.0015707566000000002,6.768,0,0
-0.0028994664,-0.011672376000000002,0.0019562382,0.004706094,-0.0022461037999999996,6.769,0,0
-0.0028406744,-0.01146185,0.002589516,0.004335408,-0.00207649984,6.77,0,0
-0.0024501344,-0.004387370000000001,0.0025408580000000004,0.0037487940000000006,-0.00178138184,6.771,0,0
-0.0016113584,0.004439470000000001,0.0018979904,0.0033566720000000006,-0.00213411784,6.772,0,0
-0.0010810724000000001,0.010567590000000002,0.0021071944,0.002848576,-0.0018701678400000004,6.773,0,0
-0.000675298,0.014274980000000003,0.0020677664,0.0022844420000000002,-0.0013207386400000002,6.774,0,0
-0.00017402619999999996,0.01372627,0.0020743784,0.0023618320000000003,-0.0015332320000000003,6.775,0,0
5.475740000000003e-05,0.008947829999999999,0.0030598084,0.0020275052000000003,-0.0011454290000000001,6.776,0,0
-0.00015842660000000002,0.0039875708000000004,0.004347666,0.0011795192,4.320300000000001e-05,6.777,0,0
-0.00037716500000000005,0.0017819966000000003,0.0040568800000000006,0.0005517518000000001,0.0004667032000000001,6.778,0,0
-0.000511482,0.00048499284000000007,0.003472702,-0.0004315362,0.000500564,6.779,0,0
1.0764200000000089e-05,-0.00053833516,0.002974195,-0.0022865182,0.0011521792,6.78,0,0
0.0020812646,-0.00025961915999999995,0.0001443369999999996,-0.0038311234000000002,0.0009925042,6.781,0,0
0.0039357666000000005,0.0008895800399999999,-0.003016739,-0.0043845834,0.00017198019999999998,6.782,0,0
0.004439106999999999,0.00212232024,-0.004089617,-0.004813444,-6.626000000000034e-06,6.783,0,0
0.004597764,0.0026545159999999996,-0.004325667,-0.004764188,-0.00013335600000000006,6.784,0,0
0.003708518,0.0032302876,-0.0043783366,-0.003957424,-0.0004742986,6.785,0,0
0.00097745,0.0018893616,-0.0022710246,-0.0029231460000000006,7.38734000000001e-05,6.786,0,0
-0.0013469760000000002,-0.0019600384,-8.571260000000004e-05,-0.0022807580000000004,0.0011408074000000003,6.787,0,0
-0.002823892,-0.0052800644,0.00021695140000000009,-0.0018839514000000002,0.0017021514000000002,6.788,0,0
-0.0032657474,-0.008202786400000002,0.0001494174000000002,-0.001317325,0.0023327234000000002,6.789,0,0
-0.0020345954000000003,-0.01110863,-0.00027453599999999976,-0.0004995150000000001,0.002490728,6.79,0,0
-0.001361092,-0.012550600000000002,-0.00124018,0.0005299250000000001,0.0019215572,6.791,0,0
-0.0012472480000000003,-0.011710856,-0.001824133,0.001622409,0.0011998466,6.792,0,0
0.00033129800000000016,-0.012987076,-0.0011884358,0.0027402644,0.00035834260000000003,6.793,0,0
0.0027539194,-0.019509136,-0.0010892598,0.0035394260000000005,-0.00048197340000000004,6.794,0,0
0.0031540834000000004,-0.025190435999999997,-0.0017736438,0.004011382,-0.0014976454000000003,6.795,0,0
0.0022105220000000004,-0.026567676000000002,-0.0018296298,0.003944442,-0.0024292366,6.796,0,0
0.0012758119999999996,-0.024147790000000002,-0.0022802428000000003,0.0033771412000000002,-0.0026684760000000004,6.797,0,0
0.00029309399999999977,-0.012743189999999998,-0.003443124,0.0026128600000000003,-0.0024910686,6.798,0,0
-0.0020810228000000004,0.007001390000000001,-0.0032568636,0.0015464393999999998,-0.001962271,6.799,0,0
-0.0065070048000000005,0.02208889,-0.0006752715999999998,0.00034524339999999993,-0.0004233110000000001,6.8,0,0
-0.0088252148,0.03209427000000001,0.0034266424,-0.00033870840000000004,0.001120663,6.801,0,0
-0.0084271288,0.03693002000000001,0.0084874944,-0.0004932529999999999,0.001726991,6.802,0,0
-0.0067027128,0.027867842000000004,0.0114489604,-0.0008648658,0.0022638296,6.803,0,0
-0.001892996,0.015595211999999999,0.007877565999999999,-0.0009036962,0.0022099564,6.804,0,0
0.0058421440000000005,0.009160886,0.0011169320000000002,-0.0008865522,0.0012763902,6.805,0,0
0.010948922,0.003375858,-0.002150533999999999,-0.0015124464,0.0009875642,6.806,0,0
0.011795166,-0.001166628,-0.004706562,-0.002142037,0.0010880382,6.807,0,0
0.010211585799999999,0.001240068,-0.008412886,-0.0024775110000000004,0.0006262178,6.808,0,0
0.0054840806,0.007538478000000001,-0.005997934,-0.0026810920000000004,0.00047516320000000003,6.809,0,0
0.0010030412,0.012344644000000002,-0.0006626783999999996,-0.0025011160000000003,0.000769717,6.81,0,0
-0.00011237080000000004,0.015965792,-0.0022277983999999997,-0.0016690860000000002,0.0002890572000000001,6.811,0,0
0.0009135352,0.017395478000000002,-0.0059668344,-0.000749034,-0.0004341868,6.812,0,0
0.0012773444,0.014143486000000002,-0.0056807804,0.000165234,-0.0003221952,6.813,0,0
0.00033754360000000003,0.0030633459999999998,-0.0050431844,0.0008410340000000002,-0.00015667879999999997,6.814,0,0
-0.0013875790000000003,-0.011291574,-0.0051005498,0.0012137346000000004,-0.00016698599999999994,6.815,0,0
-0.0028930030000000003,-0.020960434,-0.0025199318,0.0015902046,0.0001728738,6.816,0,0
-0.0035844730000000003,-0.023664224,0.0019186122,0.0018218406000000001,0.000450545,6.817,0,0
-0.004100192000000001,-0.020746054000000003,0.0050917382,0.0021766606,0.00033978999999999997,6.818,0,0
-0.0031617068000000005,-0.012628524000000002,0.0071193862,0.0025989106,0.0001467886,6.819,0,0
-0.0018147808,-0.0013059580000000007,0.00797359,0.002751546,9.886140000000003e-05,6.82,0,0
-0.0013111908,0.005434402,0.0062133760000000005,0.0027376540000000004,-8.41986e-05,6.821,0,0
-0.0007486068,0.005288912,0.003254516,0.0025015619999999997,-0.0001848722,6.822,0,0
-5.2118800000000034e-05,0.0026172120000000007,0.001775496,0.0016802104,-2.572840000000001e-05,6.823,0,0
0.00028178,6.899400000000028e-05,3.6712000000000105e-05,0.0003673324,0.0002143938,6.824,0,0
0.0004339424,-0.0020903578,-0.0014782,-0.0010262716,0.0002249192,6.825,0,0
0.00029994439999999993,-0.0039972298,-0.00020192799999999987,-0.0024390216,0.000436229,6.826,0,0
-0.0008923976000000002,-0.0045541538,-0.0007173259999999999,-0.0036154876000000003,0.0010427634,6.827,0,0
-0.0019715976,-0.0037320898000000003,-0.002408714,-0.004451326,0.0008921774000000001,6.828,0,0
-0.0021003028000000003,-0.0042111918,-0.0007989679999999999,-0.004796038000000001,0.0006012738000000001,6.829,0,0
-0.0017578292,-0.005191174,0.00027957000000000004,-0.004399596,0.0005177606000000001,6.83,0,0
-0.0013732992000000002,-0.005138694,-0.000410382,-0.003915498000000001,-6.948519999999995e-05,6.831,0,0
-0.0008708332000000001,-0.0043132760000000004,0.001887832,-0.003688134,-0.0011287692,6.832,0,0
-0.0002367726000000001,-0.002627502,0.004042830000000001,-0.003416212,-0.0013727252,6.833,0,0
0.00010958259999999998,-4.14720000000003e-05,0.001391242,-0.0025511932000000003,-0.0009428825999999999,6.834,0,0
0.00011148259999999992,0.004823096000000001,-0.0013280979999999998,-0.0014349611999999999,-0.000986745,6.835,0,0
-0.00045501140000000004,0.010067348,-0.0016372821999999995,-0.0006810112000000001,-0.0007576698000000002,6.836,0,0
-0.0010145354,0.012854374000000002,-0.0013262061999999998,0.00039151480000000003,-0.00020009980000000003,6.837,0,0
-0.0012747499999999998,0.012772590000000002,-0.0017690641999999995,0.0018265668,-7.272479999999999e-05,6.838,0,0
-0.0013930479999999998,0.009029250000000003,0.0004508358000000003,0.002727516,-0.0005979008,6.839,0,0
-0.0006744359999999998,0.0015155100000000007,0.005309535800000001,0.003063736,-0.0007369056000000001,6.84,0,0
0.0014695280000000001,-0.00646353,0.006125654,0.0034230840000000003,-0.0007887348,6.841,0,0
0.0050295520000000005,-0.015557809999999998,0.005762308000000001,0.0037756440000000003,-0.0011645828,6.842,0,0
0.008457116,-0.025693920000000002,0.004276950000000002,0.0035809580000000004,-0.0012095976000000002,6.843,0,0
0.010333306000000002,-0.030792060000000003,-0.0020603400000000003,0.0026868290000000004,-0.0008509010000000003,6.844,0,0
0.01094224,-0.035411979999999996,-0.006867700000000001,0.002175869,-0.0006623628000000001,6.845,0,0
0.008437022,-0.040123280000000004,-0.005186692000000001,0.002217413,-0.00043827767460000004,6.846,0,0
0.0016909619999999998,-0.031033860000000003,-0.0032866380000000014,0.0015844092000000002,0.00039542632540000007,6.847,0,0
-0.005446038,-0.009553740000000007,-0.003348108000000002,0.00101467236,0.0005103025254,6.848,0,0
-0.009605720000000002,0.012220880000000002,-7.156800000000059e-05,0.00127628576,0.0001817245254000001,6.849,0,0
-0.010896286,0.033363500000000004,0.002463621999999999,0.00096193116,0.0004534541254000001,6.85,0,0
-0.008830244000000001,0.04822288000000001,-0.00040007000000000025,0.00017940116,0.0007003350000000001,6.851,0,0
-0.00338575,0.04753286,-0.004561664,-0.00015687223999999997,0.000251481,6.852,0,0
0.0014124400000000003,0.03587213,-0.0050177139999999995,-0.0008693393999999999,0.000352726,6.853,0,0
0.0029995980000000005,0.021738300000000002,-0.007083074000000001,-0.0015763678000000002,0.0011177134000000001,6.854,0,0
0.0021735480000000004,0.010401642,-0.012119504,-0.0017724212000000002,0.0008008594000000001,6.855,0,0
0.0008362760000000005,0.006382462,-0.01322263,-0.0021446772,0.00014589540000000013,6.856,0,0
-0.0012260659999999998,0.008254362,-0.011584716000000002,-0.002300036,-9.685459999999999e-05,6.857,0,0
-0.0038212440000000005,0.009585686,-0.005666538000000001,-0.0020271160000000002,-0.0008156019999999999,6.858,0,0
-0.00572918,0.008153226,0.005499482,-0.0016999740000000001,-0.00190721,6.859,0,0
-0.00782259,0.004622404,0.015457502000000001,-0.001390126,-0.0021026919999999998,6.86,0,0
-0.009660996,0.00035380600000000056,0.01976422,-0.0010177000000000003,-0.0016698757999999998,6.861,0,0
-0.010737492,-0.002963808,0.020330114000000003,-0.0006205248000000002,-0.0013889038,6.862,0,0
-0.008292256,-0.0035404,0.016819336,-0.00017410304,-0.0006596724,6.863,0,0
-0.0017290360000000006,-0.003449676,0.008561384000000002,9.389396000000002e-05,8.349960000000002e-05,6.864,0,0
0.0040977240000000005,-0.007016816,0.003799480000000001,0.00025480796000000003,0.0002044144,6.865,0,0
0.007492442,-0.010890858000000002,0.0044108,0.0007650499600000001,0.00022108480000000003,6.866,0,0
0.011179198,-0.015448144000000002,0.002453372,0.0010663507600000002,0.0004684148,6.867,0,0
0.012138511999999999,-0.020733745999999997,-0.0029964500000000003,0.001263807,0.0004444458,6.868,0,0
0.008389176,-0.020975416,-0.0050639380000000005,0.0016361900000000003,7.22292e-05,6.869,0,0
0.006827964,-0.017221510000000002,-0.00585861,0.0017779400000000002,0.00027394400000000003,6.87,0,0
0.007486692,-0.011230906,-0.008169704000000002,0.0015678266000000002,0.00035562340000000003,6.871,0,0
0.006094908,-0.0036019859999999997,-0.007028990000000002,0.0014426726,-4.940080000000001e-05,6.872,0,0
0.003997014,0.0011419320000000005,-0.0024820959999999996,0.0013526706,4.9569399999999987e-05,6.873,0,0
0.0021360879999999995,0.0005540559999999998,0.0002917419999999999,0.0010941966000000002,-1.6978400000000013e-05,6.874,0,0
-0.0007188360000000003,3.594999999999987e-05,-0.0009142960000000001,0.0012044466,-0.000765908,6.875,0,0
-0.002850452,-0.0017653580000000005,-0.000979938,0.0008073080000000001,-0.0010022916,6.876,0,0
-0.0035559760000000006,-0.006635172,0.0007531619999999999,-0.00017831200000000013,-0.00033276340000000005,6.877,0,0
-0.0038573540000000003,-0.006334522,0.0004953419999999999,-0.0005871140000000001,0.00032413799999999997,6.878,0,0
-0.003998792,-0.00016168999999999992,-0.0007552359999999998,-0.0011617480000000002,0.0010930943999999999,6.879,0,0
-0.0037287900000000005,0.00768967,-0.0024088620000000003,-0.00233217,0.0020554864,6.88,0,0
-0.0024407160000000003,0.016384954,-0.007550426000000001,-0.0025270460000000007,0.0022701714,6.881,0,0
-0.0019287380000000002,0.023627587999999998,-0.014230726,-0.0018301974000000001,0.0015357754000000002,6.882,0,0
-0.00243427,0.022961333999999996,-0.01688078,-0.0014907848,0.0006611462000000001,6.883,0,0
-0.0015261380000000002,0.018358424,-0.013831554,-0.0011304398,0.00028207740000000007,6.884,0,0
0.00051366,0.014733442,-0.0058868739999999985,-0.00042157380000000007,-6.276519999999997e-05,6.885,0,0
0.0005639839999999998,0.005011082,0.0035492460000000016,0.00038676020000000006,-0.00010454479999999997,6.886,0,0
7.974819999999975e-05,-0.006528878,0.011924986000000002,0.0011134936000000001,0.0006477092000000001,6.887,0,0
0.0008843021999999999,-0.010910992000000001,0.015791386000000004,0.0018333750000000002,0.0010464424,6.888,0,0
0.0007256961999999997,-0.013134182000000001,0.015019288000000002,0.002540632,0.0009944932,6.889,0,0
5.3440199999999936e-05,-0.01774424,0.011160218,0.0031702920000000003,0.0013905138,6.89,0,0
0.00036591019999999996,-0.020232280000000002,0.0035170979999999998,0.0033013260000000003,0.0015178304,6.891,0,0
0.0007962259999999999,-0.022286780000000006,-0.003375062,0.0027882816000000003,0.0009395136000000001,6.892,0,0
0.0005167419999999999,-0.027015400000000002,-0.005683938,0.0022456836000000003,0.0008264532,6.893,0,0
-0.00011316800000000008,-0.024993054000000004,-0.007974566,0.0018074256000000003,0.0006341724,6.894,0,0
-0.0016351420000000002,-0.011162354000000001,-0.009427754,0.0012919631999999998,-0.00035286359999999996,6.895,0,0
-0.0032026880000000004,0.005369445999999998,-0.004224814,0.0007955528,-0.0005197428000000001,6.896,0,0
-0.002992954,0.018550446,0.0020655260000000003,0.0003013712000000001,-0.00018944799999999994,6.897,0,0
-0.002701002,0.027906710000000005,0.005789182,-0.0006012168,-0.0004428448,6.898,0,0
-0.002274504,0.026950346000000003,0.010045002,-0.0016428448,-0.00034425320000000005,6.899,0,0
0.0003701860000000002,0.013845026000000005,0.013418939999999999,-0.0025190724,0.0003129924000000001,6.9,0,0
0.003130214,0.0004049160000000002,0.011876026,-0.003495932,0.00031751180000000003,6.901,0,0
0.00365136,-0.005624400000000001,0.007696241999999999,-0.004324804,-0.0002583202,6.902,0,0
0.0032884620000000002,-0.0060705024,0.006176862000000001,-0.004691684,-0.00010516519999999999,6.903,0,0
0.0024205719999999997,-0.003387744400000001,0.004790312,-0.004869618,0.00023493,6.904,0,0
-0.0001800380000000002,0.00031616360000000037,0.0010970100000000003,-0.004702808,0.0001032818,6.905,0,0
-0.0028274588,0.0036336496000000003,-0.000599714,-0.003955518600000001,-1.9987600000000012e-05,6.906,0,0
-0.0038002353000000004,0.0062664135999999995,-0.0006084179999999999,-0.0028095425999999997,-3.2441600000000066e-05,6.907,0,0
-0.0033744393,0.008377972000000001,-0.0031667260000000003,-0.0013041046,-0.0007082514000000002,6.908,0,0
-0.0017601707000000004,0.009674912,-0.004871768,0.00014178739999999985,-0.0015907954,6.909,0,0
0.0006547553,0.010633984,-0.004176491200000001,0.0009955353999999998,-0.0019123448000000001,6.91,0,0
0.0031873761,0.011023578000000003,-0.0050252632,0.0015648520000000003,-0.002369808,6.911,0,0
0.0054469506,0.009505078000000002,-0.0068122352,0.002023586,-0.0025124880000000002,6.912,0,0
0.007187222599999999,0.005649622000000001,-0.0078303272,0.0016333588,-0.002258848,6.913,0,0
0.007820944,0.00038436199999999964,-0.0093909552,0.0012815052,-0.00203589,6.914,0,0
0.006606351800000001,-0.005179258000000001,-0.010358776,0.0014206952,-0.0018233716,6.915,0,0
0.0039973276,-0.010651668000000001,-0.0071841100000000005,0.0013894972,-0.0013378834,6.916,0,0
0.0017258676,-0.014621256000000003,-0.0015387300000000003,0.0013996252,-0.0007083178,6.917,0,0
0.00034667080000000004,-0.01595328,0.0024971819999999997,0.0013501432000000001,-0.0003306527999999999,6.918,0,0
-0.0007010032,-0.014896604,0.004914682,0.0013986130000000002,0.0001452532,6.919,0,0
-0.001541077,-0.011554768,0.00595852,0.001218291,0.0008027908000000001,6.92,0,0
-0.0024716988,-0.005724968,0.0041490532,0.0006752136,0.0011380346000000002,6.921,0,0
-0.0037396348000000006,0.0008808120000000003,0.0013202492000000002,0.00018027579999999998,0.0010111854,6.922,0,0
-0.004387224,0.006665732000000001,0.0003489246,-0.00019438299999999996,0.0011697264,6.923,0,0
-0.004615600000000001,0.011464936,0.0007493766,-0.0006442772,0.0011099756000000002,6.924,0,0
-0.0052755860000000005,0.014485940000000001,0.0014387386,-0.000854074588,0.00048529460000000003,6.925,0,0
-0.006030618000000001,0.013381980000000002,0.0021290474000000004,-0.000874617188,0.00044447460000000003,6.926,0,0
-0.0067121820000000006,0.009724790000000002,0.0023868634,-0.0012391053879999999,0.0009420941999999999,6.927,0,0
-0.006735138,0.007426986,0.0015742920000000004,-0.001318341388,0.0009312098,6.928,0,0
-0.005302616000000001,0.004906596,0.0001135079999999998,-0.0011722343879999998,0.0006646321999999999,6.929,0,0
-0.0023337620000000005,0.0016789523999999998,-0.001108604,-0.0007733449999999999,0.0007720245999999999,6.93,0,0
0.0012084960000000005,0.0011830144000000002,-0.0024662720000000003,0.00012732300000000004,0.0005183346,6.931,0,0
0.004015630000000001,0.0024107684000000003,-0.0030892840000000003,0.001014429,7.43574e-05,6.932,0,0
0.005453928,0.0020823006000000002,-0.0016741560000000004,0.0015032976000000002,0.00029782980000000005,6.933,0,0
0.005912764000000001,0.0016483132000000003,-0.00018574000000000026,0.0018118490000000001,0.0006433342,6.934,0,0
0.005986954000000001,0.0008561127999999999,1.573999999999998e-05,0.001789519,0.0006933468000000001,6.935,0,0
0.006237238000000001,-0.0022378492,9.568799999999986e-05,0.001098411,0.00073003476,6.936,0,0
0.007106542,-0.0081871132,0.00043681199999999996,0.0008894710000000002,0.00036793396,6.937,0,0
0.007843468,-0.014443641400000002,0.0002618179999999999,0.0013647124000000003,-0.00062493204,6.938,0,0
0.007456950000000001,-0.021985204,-5.120800000000007e-05,0.00120242182,-0.00120586204,6.939,0,0
0.00605127,-0.033825400000000005,-0.0008906240000000001,0.0009311126200000001,-0.0013090816400000002,6.94,0,0
0.004736376,-0.04039058,-0.0035837020000000002,0.0015573186200000002,-0.0015478296000000001,6.941,0,0
0.0034236180000000002,-0.039539080000000004,-0.006734526000000001,0.0015339886200000001,-0.0015563296000000004,6.942,0,0
0.0011192400000000003,-0.035255046,-0.009315296,0.0010101877200000002,-0.0011364262,6.943,0,0
-0.0018993240000000002,-0.020950886000000002,-0.010406344,0.0012658319000000001,-0.0008573916000000001,6.944,0,0
-0.005369956,0.0014671140000000003,-0.006976549999999999,0.0012796835000000002,-0.0005262080000000001,6.945,0,0
-0.009319426,0.022723034000000003,0.00012900999999999972,0.0008991914999999999,0.00023471599999999994,6.946,0,0
-0.012422886000000001,0.040573494,0.006608170000000001,0.0007409449,0.0010094739999999998,6.947,0,0
-0.014613000000000001,0.04820144,0.011284309999999999,0.0006672945999999999,0.0016364166,6.948,0,0
-0.01606452,0.041967174,0.013009794,0.0001303866,0.0017922674,6.949,0,0
-0.01625006,0.0320771923,0.010564084000000001,-0.0005761978,0.0017366594000000001,6.95,0,0
-0.01697248,0.0195263723,0.006828916000000001,-0.0012107638,0.0014639034000000003,6.951,0,0
-0.018209620000000003,0.004688398299999999,0.004637188,-0.0018935892000000003,0.0007291674000000001,6.952,0,0
-0.01760366,-0.0036798617000000002,0.003613774,-0.00245916,4.505139999999989e-05,6.953,0,0
-0.015138406,-0.005366533700000001,0.002223292,-0.0028037120000000003,-0.000270242,6.954,0,0
-0.009970729999999999,-0.006323592000000001,0.0002548619999999998,-0.002666678,-0.0008983820000000001,6.955,0,0
-0.00031018999999999925,-0.007076350000000001,-0.0016596860000000005,-0.002504554,-0.0017560720000000002,6.956,0,0
0.009854310000000002,-0.002713996,-0.0035650200000000003,-0.0020247116,-0.0018384400000000002,6.957,0,0
0.017347790000000002,0.003272544,-0.004871562,-0.0009849636000000001,-0.0018181446000000003,6.958,0,0
0.023277036,0.0044458918,-0.0033994200000000002,4.9910399999999935e-05,-0.0020580126000000003,6.959,0,0
0.025976520000000003,0.005195055800000001,7.342999999999998e-05,0.0006541057999999999,-0.0017918444000000003,6.96,0,0
0.02518286,0.0082115018,0.001218312,0.0011128718,-0.00117812682,6.961,0,0
0.02373928,0.007713341800000001,-0.00023666599999999996,0.0015861834,-0.0007160992200000001,6.962,0,0
0.021812540000000002,0.0062932158,-0.002102458,0.0010621472,0.0005100093800000001,6.963,0,0
0.01828095,0.007843834000000001,-0.004409238,0.0005066869999999999,0.0021008953800000004,6.964,0,0
0.014054578000000002,0.007818212000000001,-0.005416206000000001,0.0006343076,0.00275650318,6.965,0,0
0.009295830000000001,0.0023802039999999995,-0.0028802200000000006,0.0006640156,0.0032999296,6.966,0,0
0.003908144,-0.006085496,-0.0001396419999999996,0.0006551936000000001,0.003503052,6.967,0,0
-0.0008249140000000002,-0.012072150000000002,0.0009963220000000002,0.0008008592000000001,0.0022960354000000002,6.968,0,0
-0.004372104,-0.016814458,0.0023609492,0.0005904314,0.0010460699999999999,6.969,0,0
-0.007157992,-0.0204565,0.0023044432,-0.00022134459999999993,0.000745441,6.97,0,0
-0.009909104000000002,-0.01919206,0.0007107672,-0.0009076226,0.00035236219999999996,6.971,0,0
-0.011100572,-0.015156280000000001,0.00017837660000000015,-0.0017884166000000001,9.428899999999999e-05,6.972,0,0
-0.010087194,-0.015212980000000001,0.0025895266,-0.0028053920000000003,0.00031313939999999996,6.973,0,0
-0.009658798000000001,-0.016951340000000002,0.0050449454000000005,-0.003063594,0.00030283679999999996,6.974,0,0
-0.009582698,-0.0132479994,0.0044507994,-0.00277667,-6.887820000000007e-05,6.975,0,0
-0.00781238,-0.006254639400000001,0.004006473,-0.00283149,-6.799780000000004e-05,6.976,0,0
-0.005723696,0.0010553005999999997,0.0038194616000000003,-0.002695494,0.00021290540000000002,6.977,0,0
-0.004258542000000001,0.008891720600000002,0.0009844135999999997,-0.0016305316000000002,0.00032013260000000003,6.978,0,0
-0.003045678,0.013909650600000002,-0.0024931804000000004,-0.0009467518000000001,0.0009005346000000001,6.979,0,0
-0.0025515159999999998,0.012882724000000002,-0.0043551504000000005,-0.0008016774000000001,0.0016185686000000001,6.98,0,0
-0.0010315779999999998,0.010141164000000001,-0.0059212940000000006,0.00021455060000000003,0.0015593334000000001,6.981,0,0
0.0010039120000000003,0.009546284000000002,-0.006349932000000001,0.0018876866000000002,0.0006928514,6.982,0,0
0.001240738,0.009315984,-0.00345617,0.0026900382,-9.931360000000017e-05,6.983,0,0
0.0026436920000000004,0.010875394,0.0011268439999999992,0.0030009364,-0.0010477536,6.984,0,0
0.005598666,0.013390510000000001,0.004709884000000001,0.003680396,-0.0021684656000000003,6.985,0,0
0.0047783999999999995,0.010044036000000001,0.006715,0.0033912000000000005,-0.0022746140000000003,6.986,0,0
0.0011453000000000004,0.0018627960000000003,0.006182540000000001,0.0018434480000000001,-0.0015543380000000002,6.987,0,0
-0.00120228,-0.007369724,0.002692744000000001,0.0009859284,-0.0010799802,6.988,0,0
-0.0034944420000000004,-0.014783744000000001,-0.0009084989999999999,0.0012626124000000001,-0.0010293341999999999,6.989,0,0
-0.0056591820000000004,-0.018743054000000002,-0.003331393,0.0011355484,-0.0008196282,6.99,0,0
-0.005149408000000001,-0.016611562,-0.007134575000000001,0.0009892778,-0.0010417742,6.991,0,0
-0.002489346000000001,-0.005215902000000001,-0.012108393000000002,0.0015789598,-0.0015762602,6.992,0,0
-0.0002230680000000003,0.0034415980000000006,-0.016282597000000003,0.0015715797999999999,-0.001622154,6.993,0,0
0.0009879859999999997,0.001622817999999999,-0.018921154,0.0006677818,-0.00140267,6.994,0,0
0.00105823,-0.00042428200000000065,-0.017543004,0.00013472960000000009,-0.001564682,6.995,0,0
0.00019062399999999992,-0.00019479600000000055,-0.009552123999999999,-0.00018660780000000004,-0.0017997039999999998,6.996,0,0
-0.0015264440000000003,-0.010669956000000001,0.003692375999999999,-0.0014194398,-0.0014820880799999998,6.997,0,0
-0.003162758,-0.019072176000000003,0.014644356,-0.0023330782,-0.00135078308,6.998,0,0
-0.0030336720000000003,-0.006228156000000001,0.020271876000000005,-0.0022809202,-0.0011318642800000002,6.999,0,0
-0.002254892,0.006567504,0.021672660000000003,-0.0022765416,-9.098279999999884e-06,7.0,0,0
-0.0017608416000000002,0.00871194,0.01559212,-0.0018797210000000004,0.00099320372,7.001,0,0
-0.0010869036,0.014387900000000002,0.005169580000000001,-0.0007054990000000001,0.0010804978,7.002,0,0
-0.0002901103999999999,0.021718816000000002,-0.001109586,0.00014376079999999997,0.0013580304,7.003,0,0
0.000128369,0.019582516,-0.0029454580000000006,0.0004952072000000001,0.0015977796000000001,7.004,0,0
0.00034438739999999995,0.016305816,-0.005349098,0.0011298928000000002,0.0008974047999999999,7.005,0,0
0.0002794922000000001,0.015587236,-0.004916010000000001,0.0012687842,0.0002465085999999999,7.006,0,0
2.5585599999999967e-05,0.010293496,-0.0010570839999999998,0.0012284302,0.00010621919999999995,7.007,0,0
-0.0002157642,0.005265600000000001,0.0003193920000000001,0.0014121964000000002,-5.027720000000003e-05,7.008,0,0
-0.0002846522,-0.0015347999999999994,0.0016130039999999997,0.0010045700000000002,-0.00028441240000000003,7.009,0,0
5.426740000000004e-05,-0.00860554,0.004726704,0.00020399600000000007,-2.6066600000000006e-05,7.01,0,0
0.00020670780000000004,-0.009951418,0.00694357,-0.0002578312,0.00034572760000000003,7.011,0,0
0.0006524404,-0.006185387999999999,0.007400954,-0.00037968039999999994,0.000376443,7.012,0,0
0.001377193,-0.0007453479999999998,0.005406584,-0.0001963264,0.0005828098,7.013,0,0
0.0017883196,0.0030673899999999997,0.0014341559999999998,0.0004925376000000001,0.000946285,7.014,0,0
0.0024220636,0.00315367,-0.00020810999999999996,0.0010748656000000001,0.0007582203999999999,7.015,0,0
0.003503744,-0.0008887320000000006,-0.0008724679999999999,0.0013828578000000002,0.0005534942,7.016,0,0
0.004045614,-0.0040887300000000005,-0.002959616,0.0012412334,0.0008472762000000001,7.017,0,0
0.004067142,-0.005494118000000001,-0.003714536,0.0005980934000000001,0.0005502162,7.018,0,0
0.003906524,-0.0051468320000000005,-0.004432148,-0.0003059845999999999,0.00023615020000000003,7.019,0,0
0.0031494798,-0.004602114,-0.006645444,-0.0013775786000000002,0.0005641278,7.02,0,0
0.0017807158,-0.0038580739999999995,-0.007966162,-0.0023230016,0.0006120198,7.021,0,0
-0.00014505620000000003,-0.0024722119999999992,-0.0068129962,-0.002925498,0.0003072134,7.022,0,0
-0.0017791982000000001,-0.0035147883999999997,-0.0052503602,-0.003325442,0.0003523394,7.023,0,0
-0.0029468042,-0.0042332622,-0.0032250902,-0.003379674,9.472140000000003e-05,7.024,0,0
-0.003642988,-0.0018579101999999996,0.00020947179999999998,-0.0025879748000000005,-0.0008455766,7.025,0,0
-0.003575704,0.0007244378000000001,0.0023051918,-0.0016007807999999998,-0.0013823504,7.026,0,0
-0.003121628,0.0007743376000000001,0.001811396,-0.0011021958,-0.0014287628000000001,7.027,0,0
-0.0022051048000000005,-0.00043939800000000013,0.0011933100000000002,-0.0005461564000000001,-0.001537315,7.028,0,0
-0.0008744467999999999,-0.0029049482000000006,0.0010238740000000001,0.000119553,-0.0015399990000000002,7.029,0,0
0.0002882051999999999,-0.006069038200000001,0.0002706220000000001,0.00019156820000000002,-0.0007985052,7.03,0,0
0.0012016632,-0.007286616200000001,0.0004942520000000001,0.00029648019999999997,0.00013133480000000004,7.031,0,0
0.0024588632,-0.007457998000000001,0.0021752159999999998,0.0012327012,0.0004957516,7.032,0,0
0.0037956540000000003,-0.0074567420000000014,0.004751808000000001,0.0021350898,0.0006775762000000001,7.033,0,0
0.004333038,-0.006552772,0.006436168,0.0023737044,0.0012337882000000003,7.034,0,0
0.0038047904,-0.005163032,0.004578258,0.002583332,0.0016784524000000001,7.035,0,0
0.0026993143999999997,-0.0035277840000000004,0.0015222819999999998,0.0026526419999999998,0.0016202204000000003,7.036,0,0
0.0013898324000000003,-0.000498316,0.0004202619999999999,0.0017542924,0.0016096164000000003,7.037,0,0
-0.0007323635999999999,0.005207208000000001,-0.0006072436,0.0008705104000000001,0.0015597519000000002,7.038,0,0
-0.0024092656,0.011895978000000001,-0.0031132956000000005,0.0008842524,0.0012305339,7.039,0,0
-0.0019536580000000005,0.017653418000000004,-0.0049068336,0.0006089741999999999,0.0008277669000000003,7.04,0,0
-0.001140174,0.01987282,-0.0061046256,-3.326780000000002e-05,0.0003166711,7.041,0,0
-0.0006012776000000002,0.017199717840000003,-0.0071246556,-9.060420000000006e-05,-0.0005030449,7.042,0,0
0.00023972040000000002,0.010097377840000001,-0.0049683520000000005,-0.00036473420000000004,-0.0008852027999999999,7.043,0,0
0.0002153483999999999,-0.0018287021599999991,-0.002295848,-0.0012264282,-0.0010828148,7.044,0,0
-0.0012656916,-0.01480988216,0.000655632,-0.0018391180000000003,-0.0018238338,7.045,0,0
-0.0031465896,-0.02504588216,0.006533852,-0.002467322,-0.001858216,7.046,0,0
-0.0044697700000000005,-0.026277066,0.00921532,-0.00267621,-0.00100191,7.047,0,0
-0.005291152,-0.016364586,0.007632626,-0.0019030160000000004,-0.0006088215999999998,7.048,0,0
-0.004812568000000001,-0.004961585999999999,0.007287512,-0.000900024,-0.00047478179999999997,7.049,0,0
-0.002246378,0.003771895999999999,0.0058719800000000015,0.00039838799999999985,-9.199399999999992e-06,7.05,0,0
0.0018587400000000007,0.013857495999999999,0.0012787300000000005,0.002207106,2.8349799999999997e-05,7.051,0,0
0.005038704000000001,0.016422696,-0.001359348,0.003417634,-9.5876e-05,7.052,0,0
0.006434038000000001,0.004933635999999999,-0.0041949940000000005,0.0036855940000000004,0.00032667359999999997,7.053,0,0
0.006104222000000001,-0.004213684,-0.007316686,0.003837104,0.0009296858,7.054,0,0
0.003106134000000001,-0.006642911999999999,-0.006701536,0.00355051,0.0011894936,7.055,0,0
-0.00040233399999999985,-0.007606627999999999,-0.003886902,0.0025215816,0.0010186604,7.056,0,0
-0.0016911300000000003,-0.0024259620000000003,0.00045622200000000005,0.0019625796,0.0007452583999999999,7.057,0,0
-0.0009477000000000001,0.007522638000000002,0.002780564,0.0017676316000000002,-0.00021837959999999998,7.058,0,0
3.106399999999992e-05,0.014778178000000001,0.0018961440000000002,0.0006499295999999999,-0.0014201496,7.059,0,0
0.00119367,0.017849932000000002,0.0004190979999999999,-0.00048194440000000013,-0.0015757006,7.06,0,0
0.0020027934,0.016822760000000003,-0.0026213680000000007,-0.0012015560000000003,-0.0013955232,7.061,0,0
0.0008030794000000001,0.007597660000000003,-0.006891094000000001,-0.0023549860000000003,-0.0011496162,7.062,0,0
-0.0008383026000000001,-0.00227778,-0.00705,-0.0037070980000000003,9.957379999999999e-05,7.063,0,0
-0.0017222766000000002,-0.0054353480000000004,-0.003668924,-0.0045977660000000005,0.0013846038000000001,7.064,0,0
-0.0026306966000000003,-0.007474950000000001,-0.000600054,-0.004921890000000001,0.0015333520000000002,7.065,0,0
-0.003263338,-0.0092694,0.001834478,-0.004715818,0.0017180278,7.066,0,0
-0.004191406000000001,-0.006507789000000001,0.003200948,-0.00433802,0.0019181206,7.067,0,0
-0.005050574,-0.002539831,0.004633874,-0.0036410080000000003,0.0011742206000000001,7.068,0,0
-0.004236308,-0.002459067,0.00532937,-0.0020361520000000003,0.00047864840000000006,7.069,0,0
-0.0022214500000000002,0.0008730069999999999,0.002717748,-0.000697346,0.0009388129999999999,7.07,0,0
0.0006768959999999997,0.009911985,-0.0010492820000000003,0.000372814,0.0012049358000000001,7.071,0,0
0.003859368,0.018547334000000002,-0.000946838,0.001300536,0.0006515398000000001,7.072,0,0
0.003871546,0.024371196,-0.0006207040000000004,0.0013891116,0.0006864264000000001,7.073,0,0
0.0010472679999999996,0.024769548800000003,-0.0021091400000000007,0.0015134896,0.0005527565999999999,7.074,0,0
-0.001025678,0.015017708800000001,0.0004061379999999997,0.0018073216,-0.00023694940000000003,7.075,0,0
-0.0035040960000000004,-0.0044070512,0.0019669759999999996,0.0016213456000000002,-0.000700082,7.076,0,0
-0.004920922,-0.022654591200000004,-0.0037804120000000012,0.0013567582,-0.0009650960000000001,7.077,0,0
-0.002692862,-0.037256531200000005,-0.008974548,0.0015740132,-0.0017388186,7.078,0,0
0.00061746,-0.04382156000000001,-0.007976724000000001,0.00101974,-0.0026249366000000002,7.079,0,0
0.003765364,-0.033404060000000006,-0.005510162000000001,-0.00013247200000000007,-0.0031931605999999998,7.08,0,0
0.008291762000000001,-0.014524740000000006,-0.0012526799999999995,-0.000313673,-0.0038456240000000006,7.081,0,0
0.013511144,0.004321340000000002,0.007157420000000001,-0.0003576842,-0.004068418000000001,7.082,0,0
0.016948932,0.019869880000000003,0.015283960000000001,-0.0007712388000000001,-0.0031887814000000005,7.083,0,0
0.017322394,0.024860850000000004,0.01696936,-0.0005002944,-0.0015361654,7.084,0,0
0.014264742,0.01661841,0.012651262000000002,0.0004789156,-0.00033416140000000006,7.085,0,0
0.008925160000000001,0.003992010000000002,0.008431078000000002,0.0007569346,0.0006202946,7.086,0,0
0.002347570000000001,-0.00790773,0.004435835999999999,0.0007655872,0.0015744926,7.087,0,0
-0.0037860360000000004,-0.0142867888,-0.0017370279999999998,0.0010870731999999999,0.001568408,7.088,0,0
-0.007797,-0.008296258800000001,-0.006584248,0.000943962,0.0013120000000000002,7.089,0,0
-0.009587718,0.0025189812,-0.00867063,0.0003120458,0.001390212,7.09,0,0
-0.009836282000000002,0.012860761200000001,-0.009908486,-0.00020006440000000004,0.00115950474,7.091,0,0
-0.009879248000000002,0.0230352812,-0.00940660646,-0.00039660800000000006,0.00079301914,7.092,0,0
-0.010004822000000002,0.027374700000000002,-0.006002652459999999,-0.0011257560000000001,0.00103528714,7.093,0,0
-0.009213162,0.023614826000000002,-0.0017633824600000003,-0.00173031,0.00109473914,7.094,0,0
-0.0082895,0.017538732000000005,0.0010323269399999998,-0.0017418644000000002,0.0006512037000000001,7.095,0,0
-0.0084514,0.007894132000000002,0.00434836694,-0.0018404522,0.0009710889600000001,7.096,0,0
-0.007419487199999999,-0.008780448,0.0059118974,-0.0018502376000000002,0.00144158056,7.097,0,0
-0.0035335271999999995,-0.021779708000000002,0.0059373474,-0.0007446716000000001,0.0008522985600000002,7.098,0,0
0.0012172928000000003,-0.028426694000000002,0.0070860974000000005,0.0010060503999999998,0.0003543321600000001,7.099,0,0
0.0042941948,-0.03665254,0.0068055088,0.001876473,0.0003654184,7.1,0,0
0.0060577748,-0.04717458,0.0071538208,0.002498033,-0.00029432760000000003,7.101,0,0
0.006517096,-0.04858452,0.0084351528,0.00318841,-0.0009904436000000001,7.102,0,0
0.004204632,-0.029946220000000003,0.0029074728000000015,0.0033332479999999996,-0.0008887268000000001,7.103,0,0
0.0014880612,-0.00512572,-0.007887267199999999,0.0029496300000000004,-0.0006480328,7.104,0,0
0.0020974572,0.01859596,-0.014794887999999999,0.002822072,-0.00067142056,7.105,0,0
0.0031573312000000003,0.0415543,-0.021478820000000003,0.0027525780000000003,-0.00054261056,7.106,0,0
0.0017787632000000003,0.0490794,-0.026907060000000003,0.0024014940000000005,-0.00012138696,7.107,0,0
0.0009217892000000004,0.036948100000000005,-0.021691234,0.0020159436,0.00034473824,7.108,0,0
0.00041759999999999985,0.015764680000000003,-0.009679054000000003,0.0011350776,0.00057362264,7.109,0,0
-0.0014376570000000002,-0.0013726199999999993,0.0008152059999999984,0.00016182159999999997,0.0008691916,7.11,0,0
-0.003313819,-0.007702676,0.008112206,-0.0005727283999999999,0.0011673928,7.111,0,0
-0.0035871670000000005,-0.007125236,0.012193552,-0.0011341524000000002,0.0007209752000000001,7.112,0,0
-0.0030117850000000003,-0.007296576000000001,0.013135186,-0.0017434400000000002,0.0003610512000000001,7.113,0,0
-0.0027222940000000005,-0.002449636,0.011501365999999999,-0.00228232,0.00019428580000000007,7.114,0,0
-0.0029082690000000007,0.005130824000000001,0.009233434,-0.002406274,-0.00032991419999999996,7.115,0,0
-0.0027309650000000006,0.00658798,0.008714580000000001,-0.00250408,-0.0003913218,7.116,0,0
-0.0018426990000000002,0.0090342118,0.008819730000000001,-0.0026974220000000005,0.00019135620000000004,7.117,0,0
-0.0014980225999999999,0.011538387800000001,0.006602968000000001,-0.002636148,0.0005149082,7.118,0,0
-0.0010720535999999999,0.0078453058,0.005905864,-0.0021009662,0.0001762788,7.119,0,0
-0.0005702994000000002,-0.0006285142000000002,0.007288556000000002,-0.0014922441999999998,-4.65272e-05,7.12,0,0
-0.0006027954000000001,-0.0071836342000000004,0.004860428,-0.0007641586000000001,-0.00044030280000000006,7.121,0,0
-9.849020000000003e-05,-0.009622665999999998,0.0013250880000000005,0.0001364634,-0.0012514568,7.122,0,0
0.0011401914,-0.009459830000000002,-0.0008538279999999998,0.0008691894000000002,-0.0016219588000000002,7.123,0,0
0.0018405874,-0.004856208000000001,-0.005040124,0.0012675436,-0.0013040176000000002,7.124,0,0
0.0023682272,0.0015433319999999997,-0.008797162,0.0013218462000000003,-0.0008323511999999999,7.125,0,0
0.0036035992000000004,0.00595469,-0.007843282,0.0013271470000000003,-0.0005922786000000001,7.126,0,0
0.004241084,0.01110739,-0.007024092,0.0014019969999999999,3.4059799999999995e-05,7.127,0,0
0.004034644,0.014898698000000002,-0.0059382540000000004,0.001971257,0.0002878882,7.128,0,0
0.004003892,0.011570753920000003,-0.003246901,0.002875913,-1.55322e-05,7.129,0,0
0.003589858,0.006256211920000002,-0.002294263,0.0032593204,0.00029292740000000004,7.13,0,0
0.002181148,0.002065733920000001,-0.001017117,0.0030277255999999995,0.0007207008000000001,7.131,0,0
0.00024893000000000007,-0.005413786079999999,0.001824871,0.0026355423999999995,0.0005934958,7.132,0,0
-0.0023770160000000005,-0.01271050608,0.004150901,0.0017962128000000002,0.0009243414,7.133,0,0
-0.0053498600000000006,-0.012970864,0.005164072,0.0004098028,0.0016607034,7.134,0,0
-0.007410512,-0.01042528,0.0053212352,-0.0006479972,0.0014862355999999998,7.135,0,0
-0.008782252,-0.007850698,0.0038051071999999995,-0.0015392788,0.0015359156,7.136,0,0
-0.010105012000000002,-0.0043310480000000005,0.0014361291999999996,-0.0025621156,0.0019049062000000001,7.137,0,0
-0.010338110000000001,-0.002666618,-0.0018217928000000003,-0.003671648,0.0012678682000000002,7.138,0,0
-0.009538096000000001,-0.0010081559999999999,-0.0046866528,-0.0046077060000000005,0.0005282098,7.139,0,0
-0.008401746,0.002104582,-0.006490684000000001,-0.004737848000000001,0.0003445008000000001,7.14,0,0
-0.004636722,0.00570016,-0.008184920000000002,-0.004257934,-0.0002633252,7.141,0,0
0.0012657179999999994,0.0073679900000000005,-0.006718926000000001,-0.0033365220000000006,-0.0010411632,7.142,0,0
0.006856040000000001,0.0032597,-0.0017367939999999998,-0.0020998352,-0.0010176428,7.143,0,0
0.012723506,-0.0061795,0.0007537339999999998,-0.0011740132000000003,-0.0007252634,7.144,0,0
0.0173216,-0.016979300000000003,0.0002741420000000002,-0.0005801808000000001,-0.0006187780000000001,7.145,0,0
0.017397206,-0.025255440000000004,0.0009979200000000004,-0.0001039776,-0.00010864399999999986,7.146,0,0
0.014396412,-0.025701817860000004,-0.0015853459999999996,0.0003110104,0.000568308,7.147,0,0
0.010401592,-0.016519177860000005,-0.00658654,0.0010650636,0.0006254158,7.148,0,0
0.004879806,-0.00714441586,-0.0052994719999999995,0.0021092116000000004,0.0004364068000000001,7.149,0,0
0.00043791399999999964,-0.0019871938599999995,0.0009270280000000003,0.0023763158,0.0005787842,7.15,0,0
-0.0013835286000000004,0.00601774614,0.007287170000000001,0.0022113754000000004,0.0003972796,7.151,0,0
-0.0019379494000000001,0.012214904000000002,0.011189486,0.0019620638000000003,0.0001392744,7.152,0,0
-0.0013790378000000001,0.010277580000000001,0.011776182,0.0008529606000000003,0.0007567442,7.153,0,0
-0.0003282395999999999,0.00981238,0.009295908,-0.00033563340000000003,0.0010485922000000002,7.154,0,0
-0.0007284996,0.013830738000000002,0.004252754000000001,-0.000733194,0.0010345402,7.155,0,0
-0.001939519,0.012795830000000003,-0.0025216260000000003,-0.0008381688,0.0010367242,7.156,0,0
-0.0025411061999999996,0.00763256,-0.006891026,-0.0015435252000000003,0.0012331290000000001,7.157,0,0
-0.0036596578000000005,0.006352052,-0.006515522,-0.0014497038000000004,0.00037376099999999996,7.158,0,0
-0.004695236,0.005873328000000001,-0.0068468719999999995,-0.0009736032000000003,-0.003073959,7.159,0,0
-0.00519567,0.003793575,-0.0032596179999999997,-0.0006379716000000001,-0.007426391,7.16,0,0
-0.005002652000000001,0.003138021,0.0014994820000000003,0.0011558084,-0.0118590144,7.161,0,0
-0.004536694000000001,0.0037273570000000006,-0.0003656779999999999,0.0029891704000000003,-0.015453204000000002,7.162,0,0
-0.0036254782000000006,0.004572389,-0.002208624,0.0036789042000000003,-0.016602944,7.163,0,0
-0.0010599342,0.004343060399999999,-0.0022859079999999997,0.0038537096,-0.014005394000000001,7.164,0,0
0.0012803978000000002,0.0020103933999999998,-0.00366982,0.0032144240000000004,-0.00846766,7.165,0,0
0.0022860468,-0.0021546245999999997,-0.0015098000000000004,0.0008349020000000002,-0.00101942,7.166,0,0
0.0025839308,-0.0045575946,0.006625000000000001,-0.0014489760000000003,0.006716940000000001,7.167,0,0
0.0018135730000000002,-0.004246834600000001,0.01317852,-0.0033305120000000003,0.013478964000000001,7.168,0,0
-0.00012056899999999995,-0.0064986639999999995,0.0140502024,-0.00520577,0.019671234000000003,7.169,0,0
-0.001702445,-0.010727864,0.005205034400000001,-0.005609264000000001,0.02323578,7.17,0,0
-0.003558584,-0.013229804000000001,-0.0073132056,-0.0050881780000000005,0.02369684,7.171,0,0
-0.005510668,-0.01698794,-0.0126344576,-0.004110692000000001,0.021279912,7.172,0,0
-0.005777956000000001,-0.018154442000000003,-0.012499017599999999,-0.002133186,0.01562181,7.173,0,0
-0.004727460000000001,-0.008045842000000001,-0.0049142319999999975,0.0007450080000000002,0.0077080099999999995,7.174,0,0
-0.00171047,0.006154878000000002,0.008059488,0.003356268,-0.0007745099999999995,7.175,0,0
0.0027727579999999997,0.016570038000000002,0.013366127999999998,0.005793731999999999,-0.008541590000000002,7.176,0,0
0.006969882,0.025003118,0.0106648,0.007711312,-0.015035422,7.177,0,0
0.009853766,0.027206499999999998,0.0048739099999999995,0.00830078,-0.0188889,7.178,0,0
0.011079414,0.02190702,-0.00817669,0.00826345,-0.01965206,7.179,0,0
0.010994454,0.01648744,-0.02325063,0.007299240000000001,-0.018110446000000002,7.18,0,0
0.00984515,0.013492166,-0.028931610000000003,0.004958698000000001,-0.014444154,7.181,0,0
0.008464606,0.012166866,-0.02979551,0.002064184,-0.008579204,7.182,0,0
0.007163220000000001,0.010571932,-0.026204092000000002,-0.0009372939999999995,-0.0015329240000000006,7.183,0,0
0.004489420000000001,0.004335832,-0.007944572000000004,-0.00420303,0.005334276,7.184,0,0
-0.00022351999999999962,-0.007177688000000002,0.015032987999999999,-0.007147888,0.011471662,7.185,0,0
-0.005584676,-0.018581594,0.029887848,-0.009248526,0.01606165,7.186,0,0
-0.011065352,-0.024760874000000002,0.036795328,-0.010026898,0.01808672,7.187,0,0
-0.01542476,-0.027329788000000004,0.0346306438,-0.009417432,0.017352540000000003,7.188,0,0
-0.01703042,-0.026016628,0.022835247800000003,-0.00794264,0.014361270000000002,7.189,0,0
-0.016087188,-0.017325586,0.009813047800000002,-0.00543507,0.009384108000000002,7.19,0,0
-0.01264515,-0.006790928,0.0014910178000000001,-0.0022490500000000003,0.003049808,7.191,0,0
-0.0079003258,-0.0021048480000000003,-0.0014606462,0.000488764,-0.003453492,7.192,0,0
-0.003991381600000001,-0.00032964799999999993,-2.8049999999999733e-05,0.002789656,-0.009535952,7.193,0,0
-0.0008143476000000002,0.0016827564,0.0004933160000000004,0.005083688,-0.014463762,7.194,0,0
0.0027019204,0.0011110204000000002,0.0011529680000000003,0.006220234,-0.01739604,7.195,0,0
0.0057617424,-0.0017284616000000001,0.0014645060000000006,0.006219651999999999,-0.01785414,7.196,0,0
0.007515000200000001,-0.005545801600000001,0.0005812040000000007,0.00633527,-0.01605525,7.197,0,0
0.008052212000000001,-0.0099305936,-0.002990996,0.005886445999999999,-0.012349080000000002,7.198,0,0
0.007004182800000001,-0.013322658000000001,-0.008089146,0.004096133,-0.006860020000000001,7.199,0,0
0.004396454800000001,-0.014264864000000002,-0.009117204,0.002132263,-0.0007961200000000004,7.2,0,0
0.0017881058000000002,-0.011622764,-0.012442952,0.0003962070000000001,0.00485348,7.201,0,0
0.0003709678,-0.003396784,-0.015587746000000001,-0.001786905,0.00978591,7.202,0,0
-0.0004916462,0.007268316,-0.008548265999999999,-0.0032332209999999997,0.013327480000000001,7.203,0,0
-0.0013238529999999998,0.016305276,0.004089034,-0.003477414,0.014317920000000001,7.204,0,0
-0.002435305,0.025094436,0.012239900000000001,-0.0033701580000000003,0.013122788000000002,7.205,0,0
-0.0034751219999999998,0.03005444,0.017281766,-0.002623391,0.0102571854,7.206,0,0
-0.0022738619999999998,0.029914020000000003,0.016328906,-0.0013861104,0.005177015400000001,7.207,0,0
0.0010124960000000003,0.02811562,0.00048756600000000004,-0.00044975439999999994,-0.0004061646000000001,7.208,0,0
0.0033195260000000006,0.022602165400000006,-0.025953754000000002,0.0002753856,-0.0052859446,7.209,0,0
0.0056083520000000005,0.014442731400000002,-0.046637714,0.0011462256,-0.0095602326,7.21,0,0
0.009092257999999999,0.0088688678,-0.046710182,0.0018782006000000002,-0.01258875,7.211,0,0
0.009517554000000001,-0.00014797220000000062,-0.03513886200000001,0.0021828280000000004,-0.013165260000000002,7.212,0,0
0.006433427,-0.009883012200000001,-0.017915142000000002,0.0021172596,-0.012077282,7.213,0,0
0.005315815,-0.0080918076,0.011055438,0.0016878477,-0.010099894,7.214,0,0
0.005118407,-0.0013783735999999998,0.036525558,0.0007351676999999999,-0.006207538,7.215,0,0
0.0014834609999999997,0.0023374299999999997,0.04011184,-0.0007803803000000001,-0.0013845779999999998,7.216,0,0
-0.001896479,0.004543348,0.034604090000000004,-0.0021954763,0.003428902,7.217,0,0
-0.002528202,0.0036124680000000006,0.028635739400000006,-0.0033126859,0.007984964,7.218,0,0
-0.004284782,-0.006817162000000001,0.011981619400000004,-0.003912546,0.011912936,7.219,0,0
-0.0072839,-0.020793942000000003,-0.006825080600000001,-0.0034679218,0.01423366,7.22,0,0
-0.009189274,-0.027982822000000004,-0.012803008600000002,-0.0024816262,0.014679260000000001,7.221,0,0
-0.010144754,-0.024529532,-0.009949598600000002,-0.0012771401999999998,0.013409386,7.222,0,0
-0.009876386000000001,-0.011000012,-0.006240688000000001,0.00038259380000000014,0.010072841,7.223,0,0
-0.0081762482,0.002835448,-0.000566536,0.0019300938000000002,0.005481395,7.224,0,0
-0.0050490142,0.008416588,0.004576702,0.0028663716,0.0004914350000000001,7.225,0,0
-0.0007384062000000001,0.004812247999999999,0.007341009999999999,0.0038343580000000004,-0.004291204999999999,7.226,0,0
0.0034162517999999998,-0.00486778,0.00683579,0.004908346000000001,-0.008646971,7.227,0,0
0.0060053738,-0.017852720000000002,0.0025222960000000003,0.0055062800000000005,-0.011803226,7.228,0,0
0.00754408,-0.024187514,6.40240000000002e-05,0.005238606000000001,-0.01307552,7.229,0,0
0.0086653,-0.021301513600000002,0.004214186000000001,0.004620344,-0.012902182,7.23,0,0
0.008177158,-0.016901153600000003,0.0065555660000000005,0.0037473816,-0.011345256,7.231,0,0
0.0054583999999999995,-0.009568709600000001,-0.0016611539999999998,0.0018893216,-0.00788448,7.232,0,0
0.0017481319999999995,-0.003933387600000001,-0.007584379999999999,-0.0005287183999999998,-0.0029398739999999994,7.233,0,0
-0.0008408560000000001,-0.007481313600000001,-0.006717597999999999,-0.0028707324,0.002234926,7.234,0,0
-0.003515896,-0.004579694000000001,-0.00843596,-0.0050504044,0.006995788000000001,7.235,0,0
-0.0066686620000000005,0.011066626000000001,-0.010740826,-0.00687285,0.010704442000000002,7.236,0,0
-0.008097082,0.020792802000000003,-0.007460066,-0.007753470000000001,0.012454966,7.237,0,0
-0.007728300000000001,0.02308216,-0.001737782,-0.007444066,0.012210562000000001,7.238,0,0
-0.007079342,0.025083960000000002,-0.0005428899999999999,-0.00624847,0.010455350000000002,7.239,0,0
-0.0048130560000000005,0.02039161,-0.005086328000000001,-0.0044377742,0.007216248,7.24,0,0
0.0002900040000000004,0.008275606000000001,-0.009028582,-0.0022207282,0.0030111039999999997,7.241,0,0
0.005013304,0.00023000400000000023,-0.006107638000000001,-5.694019999999997e-05,-0.000990262,7.242,0,0
0.007718872000000001,0.002308244,-0.003212782000000001,0.0015663597999999999,-0.004498782,7.243,0,0
0.008139401600000002,0.010923344,-0.0021763299999999998,0.0030251118,-0.00783503,7.244,0,0
0.0068714616,0.016802334,0.00315701,0.004146858,-0.009789608000000002,7.245,0,0
0.0052086596,0.017002056,0.00844933,0.004301058,-0.009455310000000001,7.246,0,0
0.0037920996,0.012367538000000003,0.009678672000000001,0.004126908,-0.008362512,7.247,0,0
0.0028259875999999996,0.0019248180000000009,0.010673772,0.003555506,-0.0067423480000000004,7.248,0,0
0.0023819979999999998,-0.007137722000000001,0.012200586000000001,0.002253998,-0.003579748000000001,7.249,0,0
0.0015662659999999998,-0.010811556,0.010092998980000002,0.0008983680000000003,-6.922599999999992e-05,7.25,0,0
-0.0007418280000000004,-0.011658288000000001,0.006341832980000002,-0.00010180199999999996,0.00279904,7.251,0,0
-0.0027397000000000003,-0.010281492000000001,0.00393662898,-0.001285742,0.005612828,7.252,0,0
-0.004153874,-0.008389971999999999,-0.0005326250200000002,-0.0021241380000000002,0.007998362,7.253,0,0
-0.005379016,-0.009601232000000001,-0.0053800650200000015,-0.0020294804000000003,0.008990896,7.254,0,0
-0.005900886000000001,-0.013404778000000001,-0.0064444640000000004,-0.0020155424,0.008733468000000001,7.255,0,0
-0.005890132000000001,-0.014969806,-0.005977368000000001,-0.001723245,0.007159609200000001,7.256,0,0
-0.005254858,-0.010989062,-0.005055624000000001,-0.0006369449999999999,0.0041412672,7.257,0,0
-0.0032206999999999995,-0.0017682619999999996,-0.0022924880000000005,0.0003715770000000002,0.0005466632000000003,7.258,0,0
-0.00012152800000000052,0.008718098,0.0015063400000000003,0.0009264314,-0.0029369288,7.259,0,0
0.0026839959999999997,0.016163478000000002,0.004090382,0.0018202014000000002,-0.0056622748,7.26,0,0
0.005509559999999999,0.0215186,0.003612204,0.0024709640000000004,-0.007540204000000001,7.261,0,0
0.006982281999999999,0.021816639999999998,0.0009084179999999998,0.0022929260000000003,-0.008109242,7.262,0,0
0.006318282,0.014224399999999998,0.0004597640000000001,0.0020941,-0.007160162,7.263,0,0
0.0046020856,0.0028169200000000005,-0.0005435799999999999,0.0018728526,-0.006025754000000001,7.264,0,0
0.0017868016000000004,-0.008804900000000001,-0.0006266400000000001,0.0008693986,-0.0045129392,7.265,0,0
-0.0008843764,-0.01508032,0.005298368,-0.0006510933999999999,-0.0017400632,7.266,0,0
-0.0022027077999999998,-0.013715980000000001,0.0054014480000000005,-0.0013286214,0.0009732388,7.267,0,0
-0.0037195058,-0.010464004,-0.00249032,-0.0015220633999999999,0.0029176648,7.268,0,0
-0.0048116554,-0.008745604,-0.0060686839999999995,-0.001967242,0.005406448800000001,7.269,0,0
-0.0031215014,-0.008416544,-0.008263292,-0.0016977066,0.007126488,7.27,0,0
-0.0015244954000000002,-0.013527124,-0.013551556000000001,-0.0003374946,0.006819024000000001,7.271,0,0
-0.0017281859999999998,-0.021291324,-0.012617968,0.0004084454,0.005773236,7.272,0,0
-0.0009592900000000002,-0.022562454,-0.005556222,0.0007989414,0.0039035460000000004,7.273,0,0
8.197460000000003e-05,-0.015168474,0.0011588780000000003,0.0020824794,0.0011068459999999999,7.274,0,0
-0.0005415494,-0.0002474339999999995,0.00475013,0.002814674,-0.0015012979999999999,7.275,0,0
-0.0010664478000000002,0.017687326,0.004730178,0.0023519870000000003,-0.003485152,7.276,0,0
-0.0003768398,0.027959346000000003,0.005693454000000001,0.002251125,-0.00529845,7.277,0,0
0.0002372982,0.02826298,0.005008460000000001,0.002129951,-0.006611874,7.278,0,0
0.00032525079999999997,0.02217476,-0.0006396860000000002,0.000914593,-0.006950744,7.279,0,0
0.0007484,0.012046999999999997,-0.0030441640000000002,-2.9046999999999873e-05,-0.006918726,7.28,0,0
0.0015835684000000002,0.0019415120000000003,0.0002013519999999997,-0.000526146,-0.006311116,7.281,0,0
0.0016009164,-0.005450770000000001,0.002809328,-0.001205446,-0.00414926,7.282,0,0
0.0009731964000000001,-0.00864389,0.005534136,-0.002049258,-0.0011313900000000001,7.283,0,0
0.0010277052000000001,-0.006695202,0.008336754,-0.002812326,0.0015512620000000003,7.284,0,0
0.0008586517999999999,-0.001803462,0.006940216,-0.0035413420000000003,0.004230884000000001,7.285,0,0
0.0008743258000000002,0.003005546000000001,0.004788414,-0.004207456,0.006799534000000001,7.286,0,0
0.0015250298,0.014581768000000002,0.0028924400000000005,-0.004275276,0.008016912000000001,7.287,0,0
0.0008570698,0.025988327999999998,-0.0031571,-0.0037333580000000004,0.008035740000000001,7.288,0,0
-0.00046148420000000025,0.02908154,-0.009609572,-0.0024037380000000003,0.007027470000000001,7.289,0,0
-0.0010726420000000004,0.026028648,-0.012423356000000002,-0.000504258,0.004646798000000001,7.29,0,0
-0.0019633658000000006,0.012807008000000002,-0.013547236,0.001376856,0.0017147400000000002,7.291,0,0
-0.003024855400000001,-0.006917692,-0.012321176000000001,0.0026520460000000004,-0.0011205860000000002,7.292,0,0
-0.0030762134000000005,-0.025621652,-0.005615676,0.0034357700000000003,-0.003446712,7.293,0,0
-0.0029992394,-0.035773152,0.000801426,0.0038539840000000004,-0.00495443,7.294,0,0
-0.0028494014000000002,-0.0379164,0.004824372,0.0035438200000000005,-0.005249748,7.295,0,0
-0.0030362556,-0.034613399999999996,0.007789254000000001,0.0029746192000000005,-0.004617862,7.296,0,0
-0.003336814,-0.02852232,0.005438998000000001,0.0025302672,-0.003662848,7.297,0,0
-0.0014822140000000001,-0.020580499999999998,0.006032498000000001,0.0016802386000000001,-0.002293424,7.298,0,0
0.0017894460000000003,-0.014870022000000002,0.009137756,0.00039278260000000014,-0.00042427000000000003,7.299,0,0
0.0034088400000000007,-0.011619928,0.0066071900000000015,-0.0006478114,0.0014897080000000002,7.3,0,0
0.00327374,-0.00033310800000000036,0.00680441,-0.0018019186,0.0031635580000000003,7.301,0,0
0.003472727,0.011300132000000001,0.009279848,-0.0034729406,0.00512776,7.302,0,0
0.0030476390000000004,0.018335832,0.005030316,-0.004740758,0.006445818000000001,7.303,0,0
0.001551967,0.021656878,0.002941176,-0.005098386,0.006311712000000001,7.304,0,0
0.0015932010000000003,0.022941548000000003,0.0042117100000000005,-0.0054426200000000004,0.0057148799999999994,7.305,0,0
0.0032366190000000005,0.020187928,-0.00302341,-0.005236508000000001,0.0045030594,7.306,0,0
0.0034298188000000005,0.012694200000000001,-0.009023798,-0.0038858861800000004,0.0021070354000000003,7.307,0,0
0.0026493968000000003,0.010740160000000002,-0.009121616,-0.00221665218,-0.0005554345999999999,7.308,0,0
0.0021319804000000005,0.014385556,-0.009225394,-0.00060099218,-0.0026570126000000005,7.309,0,0
0.0007330304000000001,0.016949052,-0.002397128,0.0011204498200000001,-0.0044310746,7.31,0,0
0.0004136404000000001,0.01120049,0.004718072,0.0027438398200000003,-0.006026938000000001,7.311,0,0
0.0026036796000000004,0.003894038,0.002433171999999999,0.003427404,-0.006710384000000001,7.312,0,0
0.004138329600000001,-0.004362402000000002,0.0004925419999999995,0.003678354,-0.006382112,7.313,0,0
0.0030782080000000002,-0.012416762000000001,-0.00046239400000000117,0.00349756,-0.005400796,7.314,0,0
0.001898838000000001,-0.011029102,-0.008729854000000002,0.002936948,-0.0039300014,7.315,0,0
0.0016916700000000004,-0.010449724,-0.013715854000000001,0.0021118738000000005,-0.0019777034,7.316,0,0
3.8882000000000174e-05,-0.011750084000000001,-0.005268212,0.0011095058,6.068460000000007e-05,7.317,0,0
-0.0017823600000000002,-0.00552163,0.0008868280000000001,0.00035100140000000006,0.0016916706000000001,7.318,0,0
-0.0008545128,-0.00759341,0.0007849560000000004,-0.0005698026,0.0032021226,7.319,0,0
-0.0005566368,-0.027887890000000002,0.0052801160000000005,-0.0009941762000000001,0.003960926,7.32,0,0
-0.0029255808,-0.035357986,0.008555186000000001,-0.0009068380000000001,0.003836842000000001,7.321,0,0
-0.0037547908000000003,-0.020770346000000002,0.006169908000000001,-0.00091226,0.0034380220000000006,7.322,0,0
-0.0026646748,-0.00325578,0.001951076,-0.0006187556000000001,0.0025158748000000007,7.323,0,0
-0.0024974748000000002,0.01950398,5.082000000000003e-06,0.0004946384000000001,0.0005467548,7.324,0,0
-0.0021451248,0.045130580000000003,-0.00023261600000000016,0.001333338,-0.0013875612,7.325,0,0
-0.0003949392,0.055266332,0.00018827799999999962,0.0018459400000000003,-0.0026644972,7.326,0,0
0.0011700408,0.047384238,0.0018837179999999997,0.0031192140000000004,-0.0043328412,7.327,0,0
0.0022790288000000005,0.029787901999999998,0.0029714719999999997,0.004282178,-0.004986476,7.328,0,0
0.0022715928000000005,0.005342741999999999,0.0039856302,0.0044733640000000005,-0.0034190140000000006,7.329,0,0
0.0009026948000000002,-0.011343138,0.0054199682,0.004145614,-0.0012002139999999998,7.33,0,0
-0.0007185288000000002,-0.01063063,0.0020570042,0.0037780819999999994,0.0008094719999999999,7.331,0,0
-0.004421150800000001,-0.010671291999999999,-0.006524199800000002,0.0030424719999999996,0.002995096,7.332,0,0
-0.009950084800000002,-0.014793336,-0.009505641800000002,0.00211477,0.004596946,7.333,0,0
-0.012951726,-0.016453656,-0.010368194,0.0015523280000000002,0.004807856000000001,7.334,0,0
-0.013647666,-0.023070516,-0.012705532,0.0011762754000000002,0.004684117999999999,7.335,0,0
-0.01548688,-0.027968056,-0.007263172,0.0003203914000000001,0.004773256,7.336,0,0
-0.015464080000000002,-0.02429848,0.0027051479999999997,-0.00039890459999999993,0.004524048,7.337,0,0
-0.012809784000000003,-0.019569434000000004,0.008586448,-0.0011238606,0.004010948,7.338,0,0
-0.010487116000000001,-0.0115578372,0.0095315154,-0.0027119186,0.0032771092000000003,7.339,0,0
-0.006734956000000001,-0.0002892932000000001,0.0077195454000000005,-0.004030116,0.0017916592000000002,7.34,0,0
-0.0005056360000000003,0.0014069247999999996,0.0035120153999999995,-0.0046230740000000005,-0.0005758188,7.341,0,0
0.006341064,-0.0030765272,4.029740000000015e-05,-0.005405728,-0.0030299528,7.342,0,0
0.012212368000000001,-0.0050522292,-0.0012138745999999998,-0.006288982,-0.0053743608,7.343,0,0
0.016810560000000002,-0.002691666,0.0007586720000000004,-0.006235252000000001,-0.00749932,7.344,0,0
0.01971312,0.0014145300000000006,0.00517124,-0.005405898,-0.008550140000000001,7.345,0,0
0.02009262,0.001501972000000001,0.005222218,-0.004292627,-0.008331058,7.346,0,0
0.01855164,0.0026537140000000015,0.001046975999999999,-0.0029565074000000003,-0.007284878000000001,7.347,0,0
0.01722282,0.006408630000000002,-0.0025226380000000002,-0.0017824976,-0.00556789,7.348,0,0
0.01586466,0.007932850000000002,-0.004280158000000001,-0.0010370836,-0.00316882,7.349,0,0
0.012666868,0.011932850000000002,-0.005271198000000001,-0.0008919276000000001,-0.0009196020000000002,7.35,0,0
0.008739016,0.02499229,-0.002727580000000001,-0.0010823886,0.000737064,7.351,0,0
0.00512841,0.03580528,0.0005556800000000007,-0.0013987242000000001,0.002484722,7.352,0,0
0.0006366799999999999,0.033142634000000004,-0.0022482139999999992,-0.0016444760000000002,0.0040123680000000005,7.353,0,0
-0.003871906,0.022897634,-0.006632513999999999,-0.0012648878000000002,0.004489244,7.354,0,0
-0.006500474000000001,0.008212734000000003,-0.008640986,-0.0006171518000000001,0.0047630960000000005,7.355,0,0
-0.007515580000000001,-0.010466866000000002,-0.008679994,3.607019999999988e-05,0.0048774479999999995,7.356,0,0
-0.008279522,-0.025409206000000004,-0.004211693999999999,0.0009393942,0.0039379846000000005,7.357,0,0
-0.00843749,-0.0294731,0.003329666,0.0021271122,0.0024159426,7.358,0,0
-0.007563838000000001,-0.026000660000000002,0.006321714,0.0032607060000000004,0.0013242666000000001,7.359,0,0
-0.00637302,-0.02131556,0.005054131999999999,0.003974676,0.0004750813999999999,7.36,0,0
-0.0048397564,-0.017088680000000002,0.005217791999999999,0.004607774,-0.0006046346,7.361,0,0
-0.0034442938,-0.011950266000000001,0.005789852,0.00471401,-0.0008951732,7.362,0,0
-0.0027248577999999996,-0.005709245999999999,0.007368372000000001,0.004247428,-0.000521504,7.363,0,0
-0.0025875918000000005,0.003324994,0.009739936000000001,0.0037348119999999997,-0.00036969840000000004,7.364,0,0
-0.0024099698000000004,0.015946734,0.009875620000000002,0.003242084,-0.0005425200000000001,7.365,0,0
-0.0024309246000000003,0.024853374000000004,0.007414881999999999,0.002716626,-0.00012381340000000004,7.366,0,0
-0.0022180586000000004,0.027889540000000004,0.004417694000000001,0.0022383320000000004,0.0005622226,7.367,0,0
-0.0009159546000000002,0.029133980000000004,0.002742014,0.0019213986,0.0008267194,7.368,0,0
0.0004149214,0.024814106000000002,0.0007385359999999999,0.0015117136,0.0014987018000000001,7.369,0,0
0.0010909592000000001,0.011406626,-0.0016307740000000002,0.0013596956000000002,0.0020016946000000002,7.37,0,0
0.0015717004000000002,-0.004708253999999999,-0.004725574000000001,0.0011127416000000002,0.0018835389,7.371,0,0
0.0019479878000000003,-0.017493474000000002,-0.010234846000000002,0.0009130136000000002,0.0014732125000000002,7.372,0,0
0.0016931518000000002,-0.025664974,-0.018175866000000002,0.0010978710000000003,0.0010479445000000003,7.373,0,0
0.0007176438,-0.028302604,-0.02539902,0.0010138694,7.886049999999994e-05,7.374,0,0
-0.0007882640000000002,-0.016040343999999998,-0.025322840000000006,0.0006351072000000001,-0.0006538855,7.375,0,0
-0.0025045220000000003,0.008887395999999999,-0.0182128,0.0002756714,-0.0007858908000000002,7.376,0,0
-0.0031638706000000003,0.026038316,-0.010151799999999999,-6.210860000000005e-05,-0.0015905844,7.377,0,0
-0.0024601526,0.033328336,0.001105560000000002,-0.0009668446,-0.0020203144,7.378,0,0
-0.0011569786000000001,0.029769340000000002,0.01647632,-0.001977908,-0.0015990658,7.379,0,0
0.0006304974,0.003836260000000001,0.023976160000000003,-0.0024768998,-0.0013996524,7.38,0,0
0.0028460274,-0.03635544,0.023247260000000002,-0.0026488780000000003,-0.0013495821999999998,7.381,0,0
0.004244126,-0.07200882,0.019160450000000002,-0.0026596159999999996,-0.00034364420000000006,7.382,0,0
0.0022472080000000005,-0.0939166,0.00570071,-0.0024170980000000003,0.0005222578,7.383,0,0
-0.001540186,-0.09466324,-0.00790503,-0.0017572800000000004,0.0006433792000000001,7.384,0,0
-0.0038263740000000004,-0.06684446,-0.0123525302,-0.0011442302,0.0009791574000000002,7.385,0,0
-0.005669208,-0.013890060000000003,-0.0107072702,-0.0009752500000000002,0.0012906436000000002,7.386,0,0
-0.0070868344,0.04509014,-0.004288380200000001,-0.0008884850000000002,0.0011846906,7.387,0,0
-0.0049932524,0.08339964,0.0039131018,-0.00029423860000000004,0.0006060678,7.388,0,0
-7.409439999999995e-05,0.09644088,0.0086769298,0.00042984140000000006,0.00045903998000000005,7.389,0,0
0.0038588216000000003,0.08674588600000001,0.00891638,0.0008286156,0.00025905238,7.39,0,0
0.005912875600000001,0.053766146,0.00706654,0.0012930974000000001,-0.0005227116199999999,7.391,0,0
0.0060289440000000005,0.020651166,0.003967974000000001,0.0017588264000000001,-0.00112916462,7.392,0,0
0.004627114,0.006194166,0.0027860186000000006,0.0016497438000000002,-0.0011973618199999998,7.393,0,0
0.0027792446000000004,0.0025920459999999998,0.0012269306,0.001139327,-0.00140326,7.394,0,0
0.0012351206,-0.0011183800000000004,0.0016047926000000003,0.000417477,-0.0016729660000000001,7.395,0,0
0.0008852226000000002,-0.00022432000000000007,0.0039383326,-0.0005164309999999999,-0.0012371516000000001,7.396,0,0
0.0009871178,0.00225196,0.0005489825999999995,-0.0009535012,-0.0013403736,7.397,0,0
0.00043317980000000017,-0.004076306,-0.0048136640000000005,-0.0011956732000000002,-0.0014771516,7.398,0,0
-7.0907999999998e-06,-0.009598184,-0.0027475760000000007,-0.0020882704,-0.0008106296,7.399,0,0
-0.0008539968000000002,-0.007075486,-0.0011870080000000002,-0.0027947164,-8.76355999999999e-05,7.4,0,0
-0.0029560908,-0.006345386,-0.008098988000000001,-0.0028330004,0.0006139720000000002,7.401,0,0
-0.004156760000000001,-0.010775046,-0.007068686000000001,-0.0034264222,0.0016861660000000002,7.402,0,0
-0.003980382,-0.011903539999999999,0.0005213740000000002,-0.004068648,0.0026327380000000004,7.403,0,0
-0.003621496800000001,-0.011157192,0.00023068200000000007,-0.0033229600000000002,0.002742532,7.404,0,0
-0.0026216908000000006,-0.011943716,-0.004002226,-0.0023778780000000004,0.0025438440000000004,7.405,0,0
-0.0011732029000000002,-0.011339816000000003,0.00034355600000000007,-0.0017267068,0.001572468,7.406,0,0
-0.00043342490000000005,-0.009428696000000002,0.0038370300000000004,-0.00034351079999999994,0.00012378400000000005,7.407,0,0
0.0005565591000000001,-0.008980476000000001,-0.0011925500000000003,0.0013221052000000001,-0.001102144,7.408,0,0
0.0015383979000000002,-0.010843666000000002,-0.0009436559999999997,0.0024784312,-0.00217089,7.409,0,0
0.0013906219000000002,-0.009627075600000002,0.002147814,0.0033457872,-0.0029455580000000005,7.41,0,0
0.0017418660000000001,-0.0047096355999999995,0.0008429159999999999,0.00403516,-0.0032632200000000003,7.411,0,0
0.0022781192000000004,-0.0001405756000000002,-0.0009998919999999996,0.004244458,-0.002599438,7.412,0,0
0.0016783752,0.0040189504000000004,0.0009988180000000003,0.004318654,-0.0019089626000000001,7.413,0,0
0.0008104432,0.0071150504,0.0015580320000000002,0.004289294000000001,-0.0016700246,7.414,0,0
0.0009182192000000001,0.007336717600000001,0.0015894220000000003,0.003707728,-0.0010541914,7.415,0,0
0.0009423232,0.005300239600000001,0.003377258,0.002818058,-6.128939999999999e-05,7.416,0,0
0.0008377238000000001,0.0033751316,0.00400747,0.001752104,0.0006212546,7.417,0,0
0.0015131838000000002,0.0013822956000000002,0.00783822,0.00043031199999999986,0.0012824232,7.418,0,0
0.0015380368000000003,-0.0012320444,0.00982731,-0.0008776720000000001,0.0025088772,7.419,0,0
0.0006794808,-0.003560636,0.0031308180000000005,-0.001796106,0.003233768,7.42,0,0
0.00023129419999999993,-0.00569895,-0.003964922000000001,-0.002418892,0.00331333,7.421,0,0
0.00037752839999999994,-0.007414796,-0.007165336000000001,-0.0028278319999999997,0.003146982,7.422,0,0
0.0001898884,-0.006776738000000001,-0.011824146,-0.003160336,0.0024919392000000004,7.423,0,0
0.0005059994,-0.0033083259999999995,-0.014209534000000003,-0.0036048380000000004,0.0012738792000000002,7.424,0,0
0.0010984814,-0.0013610440000000003,-0.007604672000000001,-0.0035420700000000005,0.0002473412,7.425,0,0
0.0009788848,-0.0014632459999999999,0.0019086479999999998,-0.0032056700000000003,-0.0002278232,7.426,0,0
0.0007013945999999999,-0.0013812759999999999,0.005451318,-0.0026428678000000004,-0.0009806912,7.427,0,0
0.0007766746,-0.00234511,0.004769688000000001,-0.0017085338000000002,-0.0016655104,7.428,0,0
0.0010278646,-0.004183452,0.00457351,-0.0007938134,-0.0019433084,7.429,0,0
0.0008218578000000001,-0.005578522,0.004662514000000001,-6.334520000000001e-05,-0.0020602424,7.43,0,0
0.000517223,-0.006107368,0.0009653060000000004,0.00028238060000000003,-0.0021201652,7.431,0,0
5.744520000000011e-05,-0.00383332,-0.003309954,0.00044373640000000005,-0.0017693505999999998,7.432,0,0
-0.0007131868,-0.0001506140000000003,-0.003253574,0.0006763204,-0.00112069018,7.433,0,0
-0.0017784448,0.0020388859999999993,-0.0032843259999999997,0.001081512,-0.00049169658,7.434,0,0
-0.0017822486000000002,0.010566414,-0.006444344,0.0012293878,0.00024461742000000004,7.435,0,0
-0.0006755765999999999,0.022077914,-0.010041116000000001,0.0014880358,0.00085206662,7.436,0,0
-5.030799999999945e-06,0.020188646,-0.008906446,0.0018250198,0.0011803338200000002,7.437,0,0
0.0005628722000000001,0.010758506000000001,-0.00601803,0.0017111158000000003,0.0012848828,7.438,0,0
0.0007918570000000001,0.004241156,-0.004790006800000001,0.0013881586000000002,0.0014618172000000003,7.439,0,0
-0.00022048040000000003,-0.007834444000000001,-0.0024130908,0.0010648124,0.0010377792000000002,7.44,0,0
-0.0017735464000000001,-0.022274584000000004,-0.00035305080000000005,0.0012547366,7.265719999999991e-05,7.441,0,0
-0.0023601182000000005,-0.023172572,0.0003221812,0.0015692006,-0.0003771066,7.442,0,0
-0.0026394242,-0.015115486,0.0013554872,0.0014243750000000003,-0.000727008,7.443,0,0
-0.002669499,-0.007343465999999999,0.002966896,0.0015454942000000002,-0.001383352,7.444,0,0
-0.001150959,0.0033246740000000006,0.004719712,0.0021934044000000005,-0.0016656680000000001,7.445,0,0
0.0013501569999999998,0.015678774,0.008019092,0.0016843456000000003,-0.0015499180000000002,7.446,0,0
0.003237211,0.024909646,0.01086199,0.0001627776,-0.0017364540000000001,7.447,0,0
0.003939796,0.027447020000000003,0.013026888,-0.0006569468000000001,-0.0017601840000000001,7.448,0,0
0.0041554281399999995,0.025557164000000004,0.01486024,-0.0017893648000000002,-0.001059222,7.449,0,0
0.0033518381399999997,0.023355844000000004,0.010802616000000001,-0.0032334208000000006,-0.000397568,7.45,0,0
0.00091530614,0.014698046000000001,0.0034353360000000015,-0.0036505120000000007,5.750780000000003e-05,7.451,0,0
-0.0015041738600000002,1.0845999999999252e-05,-0.0011358799999999984,-0.0035564260000000006,0.0010370558,7.452,0,0
-0.00289969786,-0.009457914000000001,-0.0048442146,-0.0033173240000000004,0.0019818938,7.453,0,0
-0.004057196,-0.014385378,-0.008621278999999999,-0.002511693,0.0021157338,7.454,0,0
-0.0047522020000000005,-0.020818338000000002,-0.0067672076,-0.0015176796000000003,0.0021262017999999997,7.455,0,0
-0.0032532859999999998,-0.020488606000000003,-0.0006528336,-0.0005986536,0.0022672920000000006,7.456,0,0
-0.0014980539999999997,-0.013944164,-0.0010301775999999997,0.0006050884000000001,0.0018133716,7.457,0,0
-0.001452774,-0.011108444000000002,-0.0062681429999999995,0.0015827724,0.0010376291999999998,7.458,0,0
-0.0003155239999999999,-0.009049972,-0.0065922786,0.0024630074,0.00047277059999999995,7.459,0,0
0.0009963640000000002,-0.006422508,-0.004898275999999999,0.003250554,-9.51462e-05,7.46,0,0
0.0001911544000000001,-0.0046768880000000014,-0.004838259999999999,0.003598894,-0.0006608382,7.461,0,0
-0.00044003079999999995,-0.0025666280000000014,-0.0004427799999999994,0.0035289680000000004,-0.0010755798,7.462,0,0
0.0008213192000000001,-0.001212,0.006147832000000001,0.0030854073999999998,-0.0013260054,7.463,0,0
0.0020847312,-0.002830832,0.0075453360000000014,0.0026050774,-0.0015399328,7.464,0,0
0.0020378392,-0.004143244000000001,0.007890086000000001,0.0019742174000000005,-0.0015203264,7.465,0,0
0.0019175368000000001,-0.0024573380000000003,0.009608716,0.0012562754,-0.0009807172000000002,7.466,0,0
0.0026664719999999996,0.0003833999999999999,0.005291156,0.0005060934000000001,-0.00023848320000000007,7.467,0,0
0.0031846900000000004,0.003164824000000001,-0.0029243560000000012,-0.0002211619999999999,0.00045542280000000003,7.468,0,0
0.001569468,0.001070064,-0.00628272,-0.001361208,0.0013744808000000002,7.469,0,0
0.000673862,-0.0037400679999999983,-0.007215908,-0.00256658,0.0020514492000000004,7.47,0,0
0.001586762,-0.003980322,-0.007699668,-0.0031695340000000003,0.0018032652000000001,7.471,0,0
0.0005046698,-0.0029150220000000006,-0.00434828,-0.0035712720000000003,0.0012608746000000001,7.472,0,0
-0.0010479781999999998,0.0003323660000000006,0.0006643100000000004,-0.003692096,0.0007556112,7.473,0,0
-0.0007444550000000001,0.013271226,0.002585476000000001,-0.0031439360000000004,-7.13028e-05,7.474,0,0
-0.001026539,0.025261146,0.001974202000000001,-0.002472904,-0.0005240006,7.475,0,0
-0.0023745650000000004,0.023462132400000002,0.0008206540000000005,-0.0021442600000000003,1.5772199999999957e-05,7.476,0,0
-0.002293971,0.0170867404,0.0001603340000000002,-0.0011131680000000003,0.0005088988000000001,7.477,0,0
-0.001520967,0.013952498400000003,0.0011391500000000002,0.000179322,0.0007834538000000001,7.478,0,0
-0.0007942382,0.009431278400000001,0.0017818156000000004,0.0007692980000000001,0.0011777416000000001,7.479,0,0
0.0005677017999999999,0.0067524184000000015,0.0006283996000000003,0.001448332,0.0010486172,7.48,0,0
0.0015897898000000001,0.008342210000000001,-0.0032264324,0.0021826799999999998,0.0002020972,7.481,0,0
0.0020811140000000002,0.006422042000000001,-0.0050605824,0.002127528,-0.0004556288000000001,7.482,0,0
0.0014709160000000005,-0.0006696759999999993,-0.0029200844,0.0017265738,-0.0005457394000000001,7.483,0,0
-4.0797999999999876e-05,-0.009468976,-0.0013227519999999997,0.0015334876,-0.0007128630000000001,7.484,0,0
-0.0009492379999999999,-0.015474816,0.0007682160000000002,0.0011644598,-0.0006732756000000001,7.485,0,0
-0.00185162,-0.016725796000000005,0.004309584,0.0008139632,-0.00034763980000000007,7.486,0,0
-0.00320301,-0.0140464068,0.0063348680000000004,0.0007800912,-5.5229800000000004e-05,7.487,0,0
-0.0038604980000000004,-0.0127220068,0.005540714,0.0008934754000000002,1.204199999999999e-05,7.488,0,0
-0.004623574,-0.0159863668,0.0046312079999999995,0.0010503696,-0.000127723,7.489,0,0
-0.005743908000000001,-0.0239092268,0.001138578,0.0014407454000000001,-0.0002318256,7.49,0,0
-0.005884414000000001,-0.0347212908,-0.00094348,0.0019146660000000002,-0.00045659739999999997,7.491,0,0
-0.004953958800000001,-0.03726202000000001,0.0014601980000000002,0.0017853090000000001,-0.0007617034,7.492,0,0
-0.0038857682,-0.025635619999999998,-0.004488752,0.001197599,-0.0011192302,7.493,0,0
-0.0027787122,-0.0017319799999999975,-0.013933470000000002,0.00038485099999999996,-0.0016349234,7.494,0,0
-0.0003945501999999999,0.021923860000000003,-0.012326150000000001,-0.000858129,-0.001983372,7.495,0,0
0.0023777518000000003,0.038228820000000004,-0.009181120000000001,-0.002286461,-0.0018418528,7.496,0,0
0.0042489046,0.0479833,-0.009504960000000002,-0.003017474,-0.0017817707999999999,7.497,0,0
0.006484192,0.044252120000000006,-0.002102504,-0.0032182340000000004,-0.0019889268,7.498,0,0
0.009024044,0.029325421200000003,0.006388517800000001,-0.0035625340000000004,-0.0015149590000000002,7.499,0,0
0.009183696,0.017173979800000003,0.007746143800000002,-0.0032897280000000004,-0.0011646928,7.5,0,0
0.007567528,0.0121002838,0.007111291800000001,-0.0026974160000000002,-0.001320828,7.501,0,0
0.006072416000000001,0.0035851358,0.006594271800000001,-0.0023328980000000003,-0.000766588,7.502,0,0
0.0038836978,-0.006164584200000001,0.0062862658,-0.001544444,-5.474199999999993e-05,7.503,0,0
0.0013177778000000003,-0.010859405400000001,0.005967818,-0.000155388,0.0002117300000000001,7.504,0,0
-0.0004737062,-0.013459784,0.004709988000000001,0.000983312,0.0007358758000000001,7.505,0,0
-0.0016697802000000001,-0.014853572,0.00253393,0.001928678,0.0015859678,7.506,0,0
-0.0026233382000000003,-0.012298479999999999,9.467600000000008e-05,0.003063426,0.0015151038000000001,7.507,0,0
-0.0028585881999999996,-0.005640614,0.0013490060000000003,0.0034146820000000005,0.0011572624000000002,7.508,0,0
-0.0020597822,-0.002901074,0.005657832,0.0032356780000000005,0.0012082866,7.509,0,0
-0.0008344602,-0.0045772140000000005,0.004373906,0.0029674620000000006,0.0010170586000000001,7.51,0,0
0.0003100918,-0.0050743260000000005,0.003808934,0.0023299756,0.0009214346,7.511,0,0
0.0014040278,-0.005358682,0.005792564,0.0012344095999999999,0.0013887766000000002,7.512,0,0
0.0020821040000000004,-0.0062429994,0.0012712219999999996,0.000556749,0.00209815,7.513,0,0
0.0020591760000000002,-0.0034557554,-0.004583178,0.000584181,0.002637232,7.514,0,0
0.0014513626000000003,0.0008524326,-0.0050475680000000005,0.0003840478,0.003318282,7.515,0,0
0.0005832926000000001,0.0015626346,-0.005385732000000001,0.0001585008,0.003643528,7.516,0,0
-0.00020065940000000003,0.0009323366000000001,-0.006811588,0.00019828339999999995,0.0033968780000000003,7.517,0,0
-0.0012330994000000002,0.000524328,-0.0035517860000000004,0.00035684540000000003,0.003067184,7.518,0,0
-0.0027303894000000003,0.0005689880000000002,-0.0011510739999999995,-0.00015323780000000003,0.002961408,7.519,0,0
-0.00376168,0.0025394600000000003,-0.001077734,-0.0006282106,0.0025812100000000004,7.52,0,0
-0.004126628,0.00460914,-0.0007081880000000001,-0.00044800520000000003,0.0019635188000000003,7.521,0,0
-0.004932594,0.005395128000000001,-0.0012892040000000004,-0.0008402138000000001,0.0018804788000000002,7.522,0,0
-0.005210966,0.004482692000000001,-0.0018599400000000002,-0.0013213332000000001,0.0016319584000000003,7.523,0,0
-0.0038108274000000003,-0.00040451199999999923,-0.0016035940000000005,-0.0010069612,0.0005860044,7.524,0,0
-0.0028295362000000006,-0.008303432,-0.001545334,-0.0005967746000000001,-0.00028575759999999997,7.525,0,0
-0.0019586282,-0.019109878,-0.002778854,-0.00054239,-0.0007665184,7.526,0,0
0.0002945957999999999,-0.027017616,-0.003738346,-2.8865199999999982e-05,-0.0018032884000000002,7.527,0,0
0.0017909858,-0.02829384,-0.00474074194,8.67528e-05,-0.0023889700000000002,7.528,0,0
0.0016927548,-0.022940618000000003,-0.0052870895400000005,-0.0009007460000000001,-0.002531544,7.529,0,0
0.0019696406,-0.006571358000000003,-0.00353317354,-0.0020748206,-0.0032550140000000005,7.53,0,0
0.0024875686,0.013700881999999998,-0.0009984715400000001,-0.0031448132000000003,-0.0041257740000000005,7.531,0,0
0.0020331346,0.027068142,0.0018630404600000002,-0.0038370600000000006,-0.004540486000000001,7.532,0,0
0.0029614786000000002,0.033680862,0.0051572124000000006,-0.004061274,-0.004868782,7.533,0,0
0.004749417000000001,0.03363787,0.006489316000000001,-0.003641964000000001,-0.005255106,7.534,0,0
0.0046444954,0.022779214,0.006576911,-0.002875546,-0.00484023,7.535,0,0
0.003354627400000001,0.009136054,0.005829311000000001,-0.002142582,-0.004046704,7.536,0,0
0.0023368293999999996,-0.0007790260000000008,0.0026911450000000007,-0.0016106240000000004,-0.0034998320000000005,7.537,0,0
0.0012210174000000002,-0.008758606,-0.0017759569999999999,-0.0009825056000000003,-0.0029032840000000003,7.538,0,0
-0.000574107,-0.014287856,-0.004228927,8.902400000000005e-06,-0.0017513352000000002,7.539,0,0
-0.0012788983999999998,-0.009566320000000003,-0.0035258760000000003,0.0009586204,-0.0007765832000000002,7.54,0,0
-0.0008819063999999999,0.005317120000000001,-0.0013577560000000003,0.0015021024,-0.00024108660000000013,7.541,0,0
-0.0007309771999999999,0.014147359999999998,0.0014362980000000003,0.0011974344000000002,0.00037633119999999995,7.542,0,0
-0.0013893765999999999,0.01650634,0.004504772000000001,0.0002461219999999999,0.0003301891999999999,7.543,0,0
-0.0019915222,0.0174494,0.005791788000000001,-0.000972388,-0.0007000235999999999,7.544,0,0
-0.0018950462000000001,0.008429980000000004,0.004696302,-0.002138816,-0.0018750776,7.545,0,0
-0.0021757402000000003,-0.0084259,0.0020450880000000005,-0.00309845,-0.0028028782,7.546,0,0
-0.0025754114000000002,-0.01784108,-0.00030273600000000006,-0.00327726,-0.0037913960000000003,7.547,0,0
-0.0024545400000000003,-0.02139102,-0.00033242199999999997,-0.002759524,-0.003947366,7.548,0,0
-0.0021401840000000003,-0.0252461,-0.0008268379999999999,-0.0015010840000000002,-0.00265452,7.549,0,0
-0.002693814,-0.0278674,-0.001682484,0.0007933200000000001,-0.0012469900000000003,7.55,0,0
-0.003379492,-0.02764372,-0.0003719559999999999,0.0036894960000000004,-0.0004972244,7.551,0,0
-0.0026317496000000003,-0.024004382000000005,0.0003472680000000003,0.006650364000000001,0.00010733360000000008,7.552,0,0
-0.0020178976000000005,-0.017290794,-0.002531482,0.008735804000000002,2.3163600000000078e-05,7.553,0,0
-0.0018072306000000002,-0.004331254,-0.0032912339999999997,0.009514762000000001,-0.0014534843999999998,7.554,0,0
-0.0007954086,0.008695006000000002,-0.003465182,0.008183622000000002,-0.0031876123999999995,7.555,0,0
-0.00015497060000000003,0.018815446,-0.010346238,0.0059226978000000005,-0.003635272,7.556,0,0
-0.001090887,0.029651908000000005,-0.01673923,0.0040433418,-0.002207844,7.557,0,0
-0.0009676169999999999,0.03449398,-0.01573340972,0.0030912798,0.0012066600000000005,7.558,0,0
0.0019660560000000003,0.028027120000000003,-0.010199941720000001,0.0041176178,0.005385396000000001,7.559,0,0
0.004798532,0.019668500000000005,-0.0019066437200000001,0.0073518917999999996,0.009489598,7.56,0,0
0.007107556000000001,0.0137969054,0.00906937628,0.011548936000000001,0.01379244,7.561,0,0
0.009629902000000001,0.005017595399999999,0.01577601208,0.014077892000000002,0.01676356,7.562,0,0
0.010262264,-0.0032710286,0.013788543799999999,0.014030608,0.01760426,7.563,0,0
0.0075448742,-0.0134506886,0.0068515438,0.010625198000000002,0.01764518,7.564,0,0
0.0047145804000000005,-0.0178305086,0.001107523799999999,0.004473097999999999,0.016727984,7.565,0,0
0.0027404684000000004,-0.006168413999999997,-0.0006892562000000006,-0.001996302,0.014389480000000001,7.566,0,0
-0.00030139760000000033,0.009393216000000003,0.004241307999999999,-0.007098242,0.011156000000000001,7.567,0,0
-0.0040009516,0.021753280000000007,0.00942178,-0.009779474,0.007485210300000001,7.568,0,0
-0.0086179818,0.034570896000000004,0.00721706,-0.010204294000000001,0.004643482300000001,7.569,0,0
-0.012711528,0.033889776,0.006144959799999999,-0.009459374000000001,0.0017713743000000001,7.57,0,0
-0.014485638,0.005469296000000002,0.0084756798,-0.00847135,-0.0017051357000000002,7.571,0,0
-0.014106274,-0.022443864,0.010003599800000002,-0.00839761,-0.0047375157,7.572,0,0
-0.011761734000000001,-0.038560484,0.010289839800000002,-0.010432026,-0.008811326000000001,7.573,0,0
-0.006731956,-0.047549820000000007,0.011217179800000001,-0.013047596,-0.014004877999999998,7.574,0,0
-0.0009792279999999995,-0.03617872,0.006360620000000001,-0.014266356,-0.017485414,7.575,0,0
0.003912972000000001,-0.014159940000000001,-0.00683132,-0.01495128,-0.019903840000000003,7.576,0,0
0.008138106,0.00036206,-0.020121160000000003,-0.01484146,-0.022150080000000003,7.577,0,0
0.010083776000000001,0.01005304,-0.02547314,-0.012747562,-0.021478040000000004,7.578,0,0
0.010016146,0.016759082,-0.02254729,-0.010086952,-0.017716834,7.579,0,0
0.009210754000000002,0.012625304,-0.016186154,-0.006363988,-0.011447338000000001,7.58,0,0
0.008407422,0.010436284,-0.003632333999999999,-0.00018296799999999863,-0.002071258000000001,7.581,0,0
0.006861614,0.009746004,0.005401546,0.007048832000000001,0.009566982,7.582,0,0
0.00366338,0.006885948,0.004528725999999999,0.014416674,0.020301022000000002,7.583,0,0
0.00042507199999999943,0.003858366000000001,0.0007241759999999991,0.020480804000000005,0.026762716000000002,7.584,0,0
-0.003496644000000001,-0.013689936,-0.00630754,0.022670680000000002,0.028877060000000003,7.585,0,0
-0.010145492,-0.035542576,-0.013852240000000002,0.0217591,0.027267580000000003,7.586,0,0
-0.015223164,-0.044997556,-0.01203908,0.01928194,0.020270262000000004,7.587,0,0
-0.01477236,-0.045389504,-0.0023001600000000007,0.014629274000000003,0.009424022,7.588,0,0
-0.013112600000000002,-0.03858662399999999,0.00849968,0.011149482,0.0004253020000000011,7.589,0,0
-0.011133754000000003,-0.018817682000000002,0.018348780000000002,0.011910102,-0.004741347999999999,7.59,0,0
-0.005768688000000001,0.004998777999999999,0.020689906000000004,0.013412562000000001,-0.006833106,7.591,0,0
-0.0017371420000000001,0.024034678000000004,0.017441568,0.013216422,-0.005478428,7.592,0,0
-0.0009210128279999999,0.037293322000000004,0.014119428000000002,0.011176378,-0.0016998019999999994,7.593,0,0
0.001226901172,0.044350222,0.009093188,0.00468901,-0.0006917020000000002,7.594,0,0
0.0035323811720000004,0.05082336,0.005744412,-0.00787523,-0.006753732,7.595,0,0
0.004168657172,0.050858860000000006,0.0066775886,-0.02263789,-0.017490914,7.596,0,0
0.006247351172,0.040280140000000006,0.0054059646,-0.03553303,-0.028341314,7.597,0,0
0.010702262,0.028586220000000002,0.0009235265999999996,-0.04635458,-0.03805248,7.598,0,0
0.016582227999999997,0.015508240000000001,-0.0033219934000000002,-0.05477646,-0.0455401,7.599,0,0
0.024270042,-0.005221420000000001,-0.0071756574,-0.05895652,-0.04808092,7.6,0,0
0.032278379999999995,-0.02575284,-0.008358046000000001,-0.05912618,-0.0471649,7.601,0,0
0.03785396,-0.04190604,-0.007352956,-0.05596348,-0.044017780000000006,7.602,0,0
0.03855638,-0.053015940000000004,-0.007036864,-0.045788212,-0.03598094400000001,7.603,0,0
0.0342543,-0.04439228,-0.006701044000000001,-0.028061391999999998,-0.024310960000000003,7.604,0,0
0.026560433999999997,-0.016715639999999997,-0.004864852,-0.0075284520000000014,-0.011150300000000002,7.605,0,0
0.016011723999999998,0.007395760000000001,-0.003559366,0.013216468,0.0035925999999999996,7.606,0,0
0.004985584000000001,0.021621688,-0.005561966000000001,0.03275594800000001,0.017411700000000002,7.607,0,0
-0.005123816,0.026295228,-0.006959730000000001,0.04877604000000001,0.029011364,7.608,0,0
-0.017453816,0.012646428000000001,-0.005645708000000001,0.06121684000000001,0.04126476,7.609,0,0
-0.03150813,-0.010026971999999999,-0.00798252,0.07050848000000001,0.05367344,7.61,0,0
-0.0437739,-0.021635091999999998,-0.010904940000000002,0.07577994,0.06415758,7.611,0,0
-0.053710600000000004,-0.01740386,-0.006807328000000001,0.07694804,0.07240470000000002,7.612,0,0
-0.05906728000000001,-0.003219439999999997,0.00041034200000000017,0.07197530000000002,0.07472916,7.613,0,0
-0.05720356,0.014763420000000003,0.00510274,0.05957078,0.06881922,7.614,0,0
-0.05019992,0.029179660000000003,0.008301840000000001,0.042819000600000004,0.05788342,7.615,0,0
-0.04022196,0.034336040000000005,0.011966364,0.0234388406,0.043763920000000005,7.616,0,0
-0.02695289,0.029925008800000003,0.011706703999999998,0.0018474206,0.02558964,7.617,0,0
-0.01233619,0.0170426288,0.004563960000000001,-0.019114859400000003,0.005344059999999999,7.618,0,0
0.0024847100000000002,-0.0011933112,-0.0013219800000000004,-0.039127279400000006,-0.0160823,7.619,0,0
0.019378690000000004,-0.0130051512,-0.0018223960000000002,-0.05824916,-0.03987624000000001,7.62,0,0
0.03552695,-0.011063351200000002,-0.0023453980000000003,-0.07289796,-0.06146120000000001,7.621,0,0
0.0464159,-0.00608646,-0.0016939379999999999,-0.08053843999999999,-0.07562426,7.622,0,0
0.05276492,-0.0021329060000000004,0.0012779760000000001,-0.08013522000000001,-0.081461,7.623,0,0
0.0553846,0.004803156,0.0030613339999999998,-0.07149014,-0.0774299,7.624,0,0
0.053101100000000005,0.009172852,0.005274848,-0.05718632,-0.06434632000000001,7.625,0,0
0.04537726,0.005233776,0.006688695999999999,-0.03739513800000001,-0.04591352,7.626,0,0
0.033843798200000004,-0.007741484000000001,0.006214315999999999,-0.011621498000000001,-0.024572080000000003,7.627,0,0
0.0225488602,-0.023793398,0.008475646,0.014144502,-0.004897560000000002,7.628,0,0
0.012199216200000002,-0.032734620000000006,0.010730548000000001,0.035951062,0.01062826,7.629,0,0
0.0012708162000000002,-0.034355654,0.007598836000000001,0.054169962,0.023816820000000002,7.63,0,0
-0.0089438638,-0.034680274000000004,0.0020773260000000004,0.06574,0.03302836,7.631,0,0
-0.018925482,-0.028429590000000005,-0.0014185639999999998,0.06818540000000001,0.03729168,7.632,0,0
-0.031306604,-0.013717198400000002,-0.004002156,0.06560686000000002,0.04069094,7.633,0,0
-0.04484624,-0.0021319024,-0.006556364,0.061123260000000006,0.04555256,7.634,0,0
-0.0551112,0.0011776275999999999,-0.0064745720000000005,0.0543757,0.049983980000000004,7.635,0,0
-0.059620360000000004,0.0025233955999999997,-0.0030063984,0.046498840000000013,0.0509964,7.636,0,0
-0.05770516,0.0064080116,-0.0022919484,0.038141480000000005,0.04796176,7.637,0,0
-0.05024262,0.0095484,-0.0046604304,0.027389126,0.04321792,7.638,0,0
-0.0385316,0.011793643999999999,-0.0089517624,0.012744746000000001,0.035043780000000004,7.639,0,0
-0.024732120000000003,0.015836512,-0.019635320400000003,-0.003597754,0.021640232,7.64,0,0
-0.011857820000000002,0.02063152,-0.032997414,-0.019421714,0.007923372,7.641,0,0
0.0016512999999999996,0.02363578,-0.043399094,-0.033926474000000005,-0.003550208000000001,7.642,0,0
0.01740782,0.020952366,-0.0440907,-0.04480104,-0.014424648000000002,7.643,0,0
0.031384680000000005,0.013563846000000003,-0.03305542,-0.04829242,-0.022423168,7.644,0,0
0.03896994,0.006134585999999999,-0.00722652,-0.04555348000000001,-0.02516074,7.645,0,0
0.0411667,-0.00033567999999999955,0.02478094,-0.042662,-0.027568360000000004,7.646,0,0
0.038491000000000004,-0.004397481999999999,0.04128122,-0.04163672,-0.03276002,7.647,0,0
0.03030164,-0.003564165999999999,0.042246134,-0.041817940000000005,-0.038049040000000006,7.648,0,0
0.020861059999999997,-2.925939999999973e-05,0.035302476,-0.04347564000000001,-0.04264192000000001,7.649,0,0
0.015585860000000002,0.0025803866000000007,0.020376348000000002,-0.04462586,-0.04582162000000001,7.65,0,0
0.01599924,0.0048068646,0.005115528,-0.04176702,-0.0435271,7.651,0,0
0.018612160000000003,0.0070936866,0.005557368,-0.035645640000000006,-0.035841200000000004,7.652,0,0
0.021087540000000002,0.0100494246,0.013333334,-0.02952576,-0.02914762,7.653,0,0
0.022727140000000003,0.012070658000000001,0.017800772,-0.02338998,-0.02540192,7.654,0,0
0.021728860000000003,0.009900587999999998,0.020124947999999997,-0.016829482,-0.02165988,7.655,0,0
0.017768555999999998,0.005471016,0.016127428,-0.008746042000000002,-0.017430423200000003,7.656,0,0
0.012575695999999999,-0.0015583639999999996,0.008740204000000001,0.003430357999999998,-0.0132423452,7.657,0,0
0.007021849999999999,-0.011175344,0.0009327880000000004,0.017712138000000002,-0.0071247752,7.658,0,0
0.0037269780000000006,-0.017431464,-0.005120952,0.030413497999999997,0.0014946648,7.659,0,0
0.003475758,-0.0192713,-0.00856474,0.040439459999999997,0.009424864800000002,7.66,0,0
0.002158488,-0.019230580000000004,-0.01092456,0.04482874,0.014372608000000002,7.661,0,0
-8.783200000000014e-05,-0.014152260000000002,-0.012614576,0.041906,0.017392050000000003,7.662,0,0
-0.0027477860000000003,-0.0031155800000000015,-0.011607002,0.036818699999999996,0.019528160000000003,7.663,0,0
-0.008987134,0.007802260000000001,-0.0085517632,0.033287620000000004,0.021131080000000003,7.664,0,0
-0.019580873999999998,0.0159823,-0.005947905000000002,0.0302919,0.02347374,7.665,0,0
-0.032214820000000005,0.0186598556,-0.0038006430000000003,0.02829838,0.026411420000000005,7.666,0,0
-0.0450858,0.011093815600000001,-0.004604723,0.02821834,0.02978962,7.667,0,0
-0.05519288,-4.262439999999819e-05,-0.006674861000000001,0.0281898,0.0342932,7.668,0,0
-0.06037668,-0.008000318400000001,-0.0056930218,0.02629754,0.03825538,7.669,0,0
-0.05987664,-0.013344494400000002,-0.0037043799999999997,0.022364944,0.038478580000000005,7.67,0,0
-0.05110176,-0.013688886,-0.0017949579999999997,0.015828866,0.03438356,7.671,0,0
-0.036560028,-0.007910160000000001,0.0016882106000000003,0.006597525999999999,0.027172906000000004,7.672,0,0
-0.021227689999999997,-0.00233526766,0.0037751826000000004,-0.003252814,0.018285396000000002,7.673,0,0
-0.0058385500000000005,-0.00187781166,0.0036640066000000002,-0.012117834000000001,0.009392666000000001,7.674,0,0
0.00975643,-0.00362639566,0.0024389386,-0.019969918,0.00022346599999999986,7.675,0,0
0.02374731,-0.00575293966,4.867460000000006e-05,-0.02630428,-0.008698834,7.676,0,0
0.034193278,-0.00778558566,-0.001369586,-0.03132178,-0.017322340000000002,7.677,0,0
0.04083888,-0.0082482,-0.0033449779999999993,-0.03532994,-0.026674290000000003,7.678,0,0
0.0443498,-0.0035146219999999994,-0.006332664,-0.03607068,-0.03454986,7.679,0,0
0.04310234,0.005400298,-0.0068514479999999996,-0.03225966,-0.03846026,7.68,0,0
0.03652300000000001,0.012192838000000001,-0.00494856,-0.025577458,-0.03794554,7.681,0,0
0.02911876,0.016010528,-0.0027161239999999994,-0.01628995,-0.03221728,7.682,0,0
0.022385956000000002,0.013376470000000001,-0.0007932860000000001,-0.005333730000000002,-0.022382804,7.683,0,0
0.015444662,0.0021283100000000013,0.0012410458000000001,0.0036964899999999998,-0.012949187999999999,7.684,0,0
0.0086309,-0.009552470000000002,0.0023186138,0.00976501,-0.004948262,7.685,0,0
0.002606479999999999,-0.014440108,0.0029379978,0.014402548000000001,0.0031886380000000006,7.686,0,0
-0.001259672,-0.010391318,0.0050730738,0.017722599999999998,0.010133618,7.687,0,0
-0.002782516,0.00031670200000000117,0.0063014838,0.01900732,0.015448882,7.688,0,0
-0.0029445960000000003,0.005977640000000001,0.004449888000000001,0.01866108,0.020128046000000004,7.689,0,0
-0.0012820560000000006,0.002924320000000001,0.003527766,0.01674859,0.0230706,7.69,0,0
0.0011620360000000002,0.0033551380000000023,0.004359190000000001,0.012814490400000001,0.022164160000000002,7.691,0,0
0.0006685820000000002,0.004200978,0.0023616260000000003,0.007083442399999999,0.0179447,7.692,0,0
-0.00174175,0.0044367780000000015,0.0006324340000000003,0.0010390823999999995,0.011610466000000002,7.693,0,0
-0.004525716000000001,0.019222120000000002,0.0006875700000000002,-0.004888897600000001,0.002621206000000001,7.694,0,0
-0.006828318,0.03404548,-0.001966084,-0.0106121676,-0.007008914000000001,7.695,0,0
-0.0074843800000000005,0.025968280000000003,-0.005060628,-0.014127108000000001,-0.014176494000000001,7.696,0,0
-0.007005142,0.011874140000000002,-0.005281780000000001,-0.014676358,-0.018055014,7.697,0,0
-0.005045576,0.003289191999999999,-0.0036049840000000003,-0.0131778,-0.019158920000000003,7.698,0,0
-0.002478636,-0.00961768,-0.001259274,-0.009974185600000001,-0.01802258,7.699,0,0
-3.089000000000043e-05,-0.02142904,0.0015082380000000003,-0.0045560055999999995,-0.014628768000000002,7.7,0,0
0.0014373559999999999,-0.032365420000000006,0.0025171312,0.0018306544000000007,-0.009518680000000002,7.701,0,0
0.0022389499999999995,-0.0468798,0.0019121748000000003,0.0073849324000000004,-0.0035195400000000007,7.702,0,0
0.003340358,-0.056016692,0.0018783168000000004,0.0120914744,0.00269142,7.703,0,0
0.003115488,-0.05682996400000001,0.0012542658000000001,0.01571594,0.00900972,7.704,0,0
0.00064338,-0.046962424,0.0007328555999999999,0.01689252,0.014860808,7.705,0,0
-0.0019008360000000001,-0.012102124000000006,0.0008499149999999999,0.015334674,0.01874448,7.706,0,0
-0.00262495,0.034723276000000004,-0.0014976126000000004,0.012933515999999999,0.020717020000000003,7.707,0,0
-0.0049774,0.059521896000000005,-0.004781646600000001,0.009876968,0.02132204,7.708,0,0
-0.01033999,0.061404434,-0.0031540156000000007,0.005817182,0.020785579999999998,7.709,0,0
-0.015267184000000001,0.055855128000000004,-0.0012390434000000006,0.001717742,0.018208945999999997,7.71,0,0
-0.018848144,0.04049502400000001,-0.005048748000000002,-0.002277652,0.012726201999999999,7.711,0,0
-0.021936016000000003,0.011081963999999998,-0.0064287480000000015,-0.006238194000000001,0.005512161999999998,7.712,0,0
-0.022865740000000006,-0.012923176000000001,-0.000374848000000001,-0.009602506,-0.002224978,7.713,0,0
-0.019591592000000005,-0.017500230000000002,0.0038808339999999992,-0.011160036000000002,-0.009104018,7.714,0,0
-0.015088480000000001,-0.016191216,0.0037558879999999998,-0.010559141999999999,-0.013966524000000001,7.715,0,0
-0.011410492000000001,-0.017574298,0.007601008000000001,-0.007824232,-0.01541814,7.716,0,0
-0.006965768000000001,-0.010200578000000002,0.010965106,-0.003971056,-0.013930284000000001,7.717,0,0
-0.0003634280000000003,0.005641462,0.005544334000000001,-0.00030061599999999964,-0.011479352,7.718,0,0
0.0076546240000000005,0.015162202,-0.0023889060000000005,0.0022913420000000005,-0.008846668000000002,7.719,0,0
0.014661112,0.018305234,-0.005249800000000001,0.0022161360000000005,-0.007604548000000001,7.72,0,0
0.020968584000000002,0.018547752,-0.004303656,0.00063177,-0.0073366479999999994,7.721,0,0
0.025067200000000005,0.013984152,-0.0019222500000000003,-0.0012480540000000002,-0.005546842,7.722,0,0
0.024229560000000004,0.007983792,0.002116602,-0.00271916,-0.0021390339999999997,7.723,0,0
0.020968160000000003,0.002098512,0.007009082000000001,-0.0011368020000000001,0.0018795420000000005,7.724,0,0
0.01773088,-0.003922648000000001,0.010010468,0.0033906900000000005,0.007146742000000001,7.725,0,0
0.012761394000000002,-0.008299760000000002,0.008498568000000001,0.007385806,0.01107752,7.726,0,0
0.006087094000000001,-0.01325894,0.006398993,0.009524560000000001,0.00959838,7.727,0,0
-0.0006855059999999998,-0.01984436,0.0043827093999999995,0.0097369042,0.005152814,7.728,0,0
-0.008214206,-0.024226240000000003,-0.0006546905999999996,0.0061959662,0.0008184799999999993,7.729,0,0
-0.015645966,-0.025132400000000003,-0.0046620706,0.0007706062000000004,-0.0030116740000000006,7.73,0,0
-0.02072056,-0.02246852,-0.0055663506000000005,-0.0037973538,-0.005419698000000001,7.731,0,0
-0.02209396,-0.015007264000000001,-0.0069011196,-0.007363779800000001,-0.005631272000000001,7.732,0,0
-0.019395009999999997,-0.0050017440000000015,-0.008392782000000001,-0.009067806000000001,-0.0035712908000000002,7.733,0,0
-0.012843791999999998,0.0035007959999999996,-0.008352662,-0.008957580000000001,-0.0008918587999999998,7.734,0,0
-0.004097811999999999,0.009704755999999998,-0.009129742,-0.008889782,0.0006736612000000002,7.735,0,0
0.005088108000000001,0.015777176000000004,-0.011291606000000001,-0.010476122000000001,0.0008014612000000002,7.736,0,0
0.013470488,0.015371097399999999,-0.013680126,-0.012552102,-0.0003273667999999998,7.737,0,0
0.019080458,0.0115677354,-0.012980772000000002,-0.014217954000000001,-0.002620062,7.738,0,0
0.02157014,0.0137468354,-0.009094554000000001,-0.016044522000000002,-0.0051054,7.739,0,0
0.022250540000000003,0.0150622354,-0.002413754000000001,-0.015618376,-0.0068386060000000005,7.74,0,0
0.02259784,0.010539565400000003,0.008951886,-0.010347428000000002,-0.0059286420000000005,7.741,0,0
0.021497179999999998,0.004218348000000001,0.019368945999999998,-0.0032025279999999996,-0.0013863220000000006,7.742,0,0
0.017486886,-0.0038163899999999985,0.021064434,0.003080652,0.0028231940000000002,7.743,0,0
0.011103977999999999,-0.01385511,0.019575236,0.009432152000000001,0.004772996,7.744,0,0
0.0026697979999999993,-0.017326970000000004,0.019324136,0.013411948,0.0057116028,7.745,0,0
-0.007459142,-0.016078022000000004,0.011410419400000002,0.01252575,0.0047002348,7.746,0,0
-0.017838502000000003,-0.011357944,0.0013096994000000007,0.0098457508,0.0008612028000000004,7.747,0,0
-0.024490468,-0.004636946,-0.0005971205999999998,0.0074850388,-0.0032730332,7.748,0,0
-0.026190000000000005,-0.003434786,-0.0012931205999999998,0.0049111488,-0.0054466692,7.749,0,0
-0.025582280000000002,-0.0029318160000000007,-0.0079531806,0.0032168628,-0.006056514,7.75,0,0
-0.022379259999999998,0.0017928460000000003,-0.012500464000000001,0.0026500408,-0.006263604,7.751,0,0
-0.015057586,0.008238548,-0.011923884000000001,0.0015425740000000001,-0.006678472000000001,7.752,0,0
-0.006393846,0.013911630000000001,-0.013349000000000001,-9.566000000000023e-05,-0.006793152,7.753,0,0
0.0009319340000000001,0.01900507,-0.014097248000000001,-0.001264348,-0.006921224,7.754,0,0
0.008375834,0.017340686,-0.008555128000000002,-0.002441962,-0.0065151722000000006,7.755,0,0
0.014606334000000002,0.010374048,0.0007333719999999995,-0.003076754,-0.004441544200000001,7.756,0,0
0.01677602,0.004113694,0.006650032,-0.0019662568,-0.0007690542000000004,7.757,0,0
0.015935068000000004,-0.0025796300000000003,0.009725486,-0.0006853808000000001,0.0041607858000000005,7.758,0,0
0.013299932,-0.00795417,0.009920484,-0.0009533968000000001,0.0084570318,7.759,0,0
0.0092202256,-0.008811682000000001,0.0047099640000000005,-0.0012418388000000002,0.010171534000000001,7.76,0,0
0.004614027600000001,-0.0075738920000000005,-0.0009398900000000003,-0.0012835327999999998,0.009164986,7.761,0,0
-0.00013135240000000008,-0.0059034560000000005,-0.004602424000000001,-0.003246722,0.0057704160000000004,7.762,0,0
-0.0048970004000000004,-0.0018982120000000002,-0.007247954000000001,-0.005697092,-0.00016254399999999928,7.763,0,0
-0.007999504400000001,0.0020615400000000006,-0.00797828,-0.0062575239999999996,-0.0071028639999999995,7.764,0,0
-0.008240102000000001,0.001565436,-0.0078805,-0.005937052,-0.01220684,7.765,0,0
-0.007160730000000001,-0.004810016000000001,-0.009221826,-0.005057908,-0.013975671999999998,7.766,0,0
-0.004875666,-0.009427818000000001,-0.010010468000000002,-0.001958094,-0.0123905346,7.767,0,0
-0.0008387620000000003,-0.011526273000000002,-0.007013986000000002,0.002361844,-0.007864358600000001,7.768,0,0
0.0036151580000000003,-0.016605525000000003,-0.00046995000000000023,0.005942790000000001,6.88813999999995e-05,7.769,0,0
0.007002662,-0.019583415,0.0064502299999999995,0.008197040000000001,0.008478521400000001,7.77,0,0
0.009439008000000002,-0.016066875,0.009869942,0.008597788,0.0142203734,7.771,0,0
0.011236944,-0.012819051,0.008895957999999999,0.007063852000000001,0.018026756,7.772,0,0
0.010893528000000003,-0.0077400559999999995,0.005808185999999999,0.0038623420000000004,0.017996442,7.773,0,0
0.008711674000000003,0.005817784,0.002398474,0.0004134080000000005,0.013881324,7.774,0,0
0.005656795019999999,0.020130104,0.0012771739999999994,-0.0024633240000000002,0.00917338,7.775,0,0
0.0014731550200000002,0.030266264,0.003848601999999999,-0.004033898,0.004505452000000001,7.776,0,0
-0.0038088849800000006,0.03360406,0.009185641999999999,-0.003355228,5.978600000000015e-05,7.777,0,0
-0.00904131298,0.026561592000000002,0.012599218,-0.0013292839999999998,-0.001972034,7.778,0,0
-0.01417643898,0.012842852000000002,0.009881328,0.0008881939999999999,-0.002598396,7.779,0,0
-0.019657640000000004,-3.920800000000021e-05,0.0031119080000000005,0.002889,-0.003679182,7.78,0,0
-0.023492940000000004,-0.007635732000000001,-0.002326828,0.004384046000000001,-0.00374558,7.781,0,0
-0.02400932,-0.010361386000000002,-0.0020786679999999992,0.004983744000000001,-0.003133613,7.782,0,0
-0.021011220000000004,-0.010072304000000002,-0.0015024179999999993,0.00544574,-0.0026831470000000003,7.783,0,0
-0.015792034,-0.0062817722,-0.001978162,0.005556864,-0.0018447485999999998,7.784,0,0
-0.008704004,-0.0010785102,0.0020184060000000004,0.004767553999999999,-0.0004797366,7.785,0,0
-0.0003195639999999992,0.0025195938,0.00571621,0.003502582,0.0004945234,7.786,0,0
0.008454616000000002,0.0059624078,0.0025730100000000006,0.001637342,0.0004716000000000001,7.787,0,0
0.017342956,0.0094423838,-0.0012618260000000002,-0.000629216,0.000864271,7.788,0,0
0.02408291,0.009858246000000001,-0.0014773499999999999,-0.00286775,0.0016590986,7.789,0,0
0.02757942,0.007166952,-0.0032105960000000005,-0.0038678340000000005,0.0016948146,7.79,0,0
0.028266680000000002,0.003104216,-0.005563012000000001,-0.0037482220000000003,0.0013667724,7.791,0,0
0.025380939999999998,-0.0011907699999999998,-0.005790000000000001,-0.0034348520000000004,0.0011568508,7.792,0,0
0.017978132,-0.003190252,-0.004745066000000001,-0.003035362,7.713779999999975e-05,7.793,0,0
0.008734932,-0.006007526,-0.0034768420000000004,-0.0026565960000000002,-0.0020808722,7.794,0,0
-0.0005179679999999993,-0.008403714,-0.0033669940000000003,-0.0020761278,-0.0038906482,7.795,0,0
-0.010176768,-0.008730356,-0.005272926000000001,-0.0010118018,-0.004833662,7.796,0,0
-0.018319928000000003,-0.01165849,-0.007482018,0.0012791662000000005,-0.004843732,7.797,0,0
-0.024190080000000003,-0.016163418000000002,-0.009453636000000001,0.004445966200000001,-0.00325613,7.798,0,0
-0.02692786,-0.016557578,-0.009439712000000001,0.007409806200000001,-0.0007058980000000002,7.799,0,0
-0.0256843,-0.011687370000000002,-0.004852502,0.009480858000000002,0.0013874440000000003,7.8,0,0
-0.021153228000000003,-0.004951692000000002,0.00023855800000000026,0.010644354,0.003460444,7.801,0,0
-0.013187530000000001,0.006558667999999999,0.004128414,0.010716924000000001,0.005945398000000001,7.802,0,0
-0.0023789099999999997,0.019401588,0.008341030000000001,0.009375354,0.007351094000000002,7.803,0,0
0.007269770000000001,0.022580000000000003,0.009855792,0.007425172000000001,0.008220206,7.804,0,0
0.012845810000000001,0.016597112000000004,0.0065643286000000006,0.004402220000000001,0.010000382000000002,7.805,0,0
0.016329898000000002,0.009779538000000003,0.0034286106,0.00035005200000000044,0.010442616,7.806,0,0
0.01761688,-0.004108442,0.0038314606000000003,-0.0036936440000000003,0.0081609494,7.807,0,0
0.015321280000000001,-0.027001482,0.0047742046,-0.0077637140000000006,0.0052060814000000006,7.808,0,0
0.011774794000000002,-0.033163834,0.003972189,-0.011017912000000001,0.0017094234000000002,7.809,0,0
0.008749632,-0.023455954,0.0027053924,-0.01187403,-0.0028556806000000004,7.81,0,0
0.004949532,-0.018764480000000004,0.0037087604000000008,-0.010678852,-0.0064951846,7.811,0,0
-0.0017024079999999999,-0.013772484000000002,0.0043761744,-0.0086483998,-0.00783281,7.812,0,0
-0.010361428000000002,-0.002867924000000001,0.0028530544,-0.0052385398,-0.007910160000000001,7.813,0,0
-0.018057042000000002,0.006244696000000001,0.0011228979999999998,-0.0015667217999999997,-0.007693172000000001,7.814,0,0
-0.022662940000000003,0.008296516,-0.002052502000000001,0.0007698841999999999,-0.006517416,7.815,0,0
-0.02353654,0.011103456000000001,-0.008543432,0.0015371642000000002,-0.005239712,7.816,0,0
-0.020931074000000004,0.024732740000000003,-0.016609832,0.000902702,-0.004672764,7.817,0,0
-0.014397974000000001,0.044263659999999996,-0.020409272000000003,0.00012125399999999989,-0.0036831370000000004,7.818,0,0
-0.003660134,0.05088936000000001,-0.014920220000000001,-0.0007354084,-0.0018668710000000004,7.819,0,0
0.009006506,0.04294278200000001,-0.0006878399999999986,-0.0019065804,-0.0006889550000000004,7.82,0,0
0.020174246,0.02961112200000001,0.01395182,-0.0030178324000000004,-0.0005481590000000001,7.821,0,0
0.03004512,0.009082901999999999,0.022960900000000003,-0.0037234544000000003,-0.00048301500000000005,7.822,0,0
0.0377396,-0.012772038,0.026784614,-0.0045768324,-0.0013955100000000002,7.823,0,0
0.03922454,-0.027348718,0.022915177800000002,-0.005660078,-0.003140248000000001,7.824,0,0
0.03493914,-0.029457759999999996,0.009373217800000002,-0.006341096000000001,-0.0037219882000000004,7.825,0,0
0.027315118000000003,-0.021195171999999998,-0.0052937222,-0.005920221999999999,-0.0027211162000000005,7.826,0,0
0.015249078000000001,-0.011835454000000002,-0.0106310582,-0.004492476400000001,-0.0017170886000000003,7.827,0,0
4.6678000000001385e-05,-0.009601194,-0.0099268662,-0.0033022452000000006,-0.0008686466000000001,7.828,0,0
-0.013660422000000002,-0.012711334000000001,-0.008861718000000001,-0.0018778212000000003,-0.0004107326,7.829,0,0
-0.024372162,-0.014479394,-0.0053858282,0.0003876588000000002,-0.0017985944,7.83,0,0
-0.030716680000000003,-0.019585461999999998,-0.0006874542000000001,0.0030569268000000004,-0.0035505404000000006,7.831,0,0
-0.030764220000000002,-0.02440308,-0.00012563620000000022,0.0055016532000000005,-0.0041689280000000006,7.832,0,0
-0.025048866000000003,-0.017257380000000003,-0.0025480982000000004,0.008037728000000001,-0.0038687836000000004,7.833,0,0
-0.016055458,-0.00277612,-0.0033064702,0.010912194,-0.0024369736,7.834,0,0
-0.005557037999999999,0.00874888,-0.0020466340000000003,0.013269008,0.0004888164000000002,7.835,0,0
0.004182361999999999,0.016126380000000003,0.0003015260000000001,0.014376160000000002,0.0043344424,7.836,0,0
0.010780502,0.019160328,0.00235133,0.014406300000000002,0.007596802400000001,7.837,0,0
0.015708668,0.011583268000000002,0.002871444,0.013437360000000002,0.010271378000000001,7.838,0,0
0.01858486,-0.0024213119999999992,0.0008678000000000002,0.010840378000000001,0.012889756,7.839,0,0
0.016032258,-0.008724046000000001,-0.0028462060000000004,0.006908758,0.014620200000000002,7.84,0,0
0.009343758,-0.0031008860000000006,-0.0070114,0.0026238660000000007,0.015186200000000002,7.841,0,0
0.002518897999999999,0.009395905999999999,-0.011581546,-0.001276386,0.015125720000000002,7.842,0,0
-0.005539282,0.023059106,-0.0112935308,-0.005739546,0.013098020000000002,7.843,0,0
-0.015885462000000003,0.033209846,-0.0054881668,-0.010665924,0.008139292,7.844,0,0
-0.02375742,0.031552588,-0.00020800679999999957,-0.014571864,0.0010717720000000003,7.845,0,0
-0.027463900000000003,0.019807808,0.0043561952,-0.017479152,-0.006821948,7.846,0,0
-0.028546960000000003,0.0040575080000000005,0.009023149199999999,-0.0181944,-0.011962688,7.847,0,0
-0.025765346,-0.010930312000000001,0.009474198,-0.015976964,-0.0128637844,7.848,0,0
-0.0191295828,-0.019742212000000002,0.005140058,-0.01244798,-0.011729470399999999,7.849,0,0
-0.010478244800000001,-0.024623160000000005,0.0016657340000000003,-0.008878312000000001,-0.009808938400000002,7.85,0,0
-0.0007828048000000001,-0.024625240000000003,3.451380000000004e-05,-0.005575486,-0.007548238400000001,7.851,0,0
0.0086806752,-0.0203006584,-0.0020271962000000003,-0.003047914,-0.0063905804,7.852,0,0
0.0157519412,-0.0135622664,-0.0046583982,-0.000695544,-0.006439416400000001,7.853,0,0
0.020705658000000002,-0.005949140400000001,-0.0054757082,0.002796992,-0.0052514424,7.854,0,0
0.023674,-0.0006041904000000005,-0.0029115962,0.0068068040000000005,-0.0015602104000000004,7.855,0,0
0.02338532,0.0013700035999999996,-3.081799999999973e-05,0.010571658000000001,0.0026173056,7.856,0,0
0.021231700000000003,-0.0020475380000000002,0.0021854660000000005,0.012656966,0.0048043876,7.857,0,0
0.017675094000000002,-0.00819383,0.004876484,0.012167794000000001,0.005314732,7.858,0,0
0.012998662000000001,-0.011759546000000003,0.005792418000000001,0.009789662000000001,0.004412088,7.859,0,0
0.008947498000000002,-0.012123608000000001,0.002004449999999999,0.006501580000000001,0.00207565,7.86,0,0
0.005160252000000001,-0.01013756,-0.004318590000000001,0.003466428,0.0004096739999999999,7.861,0,0
0.0006925519999999999,-0.0037604400000000003,-0.007804098000000001,0.0012112924,0.000497952,7.862,0,0
-0.003287362,0.00401488,-0.00794162,0.0002725524,0.000758552,7.863,0,0
-0.00703583,0.00696511,-0.007158524,0.00016800320000000005,-1.8048e-05,7.864,0,0
-0.011178826,0.007393368000000001,-0.005772704000000001,-0.00017135080000000007,-0.0018368140000000002,7.865,0,0
-0.01408894,0.00596423,-0.0026590219999999996,-0.0016340768000000002,-0.005687214,7.866,0,0
-0.015952440000000002,0.0048720280000000005,3.743780000000014e-05,-0.004155601200000001,-0.012370052,7.867,0,0
-0.014832132,0.008132908000000001,0.0022391418000000003,-0.0065374352,-0.018500024,7.868,0,0
-0.008370492,0.011884068000000001,0.006455541800000001,-0.007912852000000001,-0.020031200000000002,7.869,0,0
0.00018410800000000054,0.017557022,0.009124601800000002,-0.007673082,-0.0176451216,7.87,0,0
0.008433528,0.025207298000000003,0.0099756678,-0.005631448,-0.012254689600000002,7.871,0,0
0.016610888,0.02459194,0.011981728,-0.003107124,-0.004021169600000001,7.872,0,0
0.02127374,0.015357139999999998,0.012543968,-0.0013047520000000002,0.0039197704,7.873,0,0
0.019984718,0.007986419999999998,0.010287028,-0.00011990540000000004,0.0085515704,7.874,0,0
0.015594884000000002,0.002507651999999999,0.008350806799999999,0.00030481059999999996,0.010852971999999999,7.875,0,0
0.009397052000000001,-0.004216400000000001,0.005310518799999999,0.0005115286000000001,0.012212019999999999,7.876,0,0
0.0016731920000000009,-0.007679320000000002,0.0005120787999999999,0.0014298326,0.012205839999999999,7.877,0,0
-0.005853508,-0.005798464000000001,-0.0024936212000000006,0.0022236166,0.011661798,7.878,0,0
-0.012138906000000001,-0.000755304,-0.006525029200000001,0.0023370178,0.011158524000000001,7.879,0,0
-0.019044472,0.005827584,-0.012747308000000002,0.0023882746,0.0091217872,7.88,0,0
-0.02564336,0.016649496,-0.017918988,0.0020989786,0.0055068912,7.881,0,0
-0.028902,0.025271596,-0.022747988,0.0016015486000000002,0.0024097292,7.882,0,0
-0.03009538,0.019170680000000002,-0.026467948,0.0015308826,-0.0005238787999999999,7.883,0,0
-0.02833296,0.005460360000000001,-0.024311896,0.0021019708,-0.0038678107999999996,7.884,0,0
-0.020289836,-0.00898462,-0.014195515999999998,0.00254656,-0.005575122,7.885,0,0
-0.007516396,-0.02858694,0.0005510040000000008,0.001998362,-0.005746676,7.886,0,0
0.004370804,-0.043991,0.014742683999999999,0.0013326894,-0.006110534,7.887,0,0
0.015815784,-0.04604098,0.023873784,0.0012767453999999998,-0.005861792,7.888,0,0
0.026045404,-0.04199704,0.026621759999999998,0.0008594294,-0.0040523526,7.889,0,0
0.030435860000000002,-0.037349900000000005,0.024321156,0.0004219652,-0.0020655586,7.89,0,0
0.031382320000000005,-0.03300666,0.019134584,0.0011831892000000001,-9.190459999999985e-05,7.891,0,0
0.030333640000000002,-0.027036800000000003,0.014451164,0.0018107898,0.0034251554,7.892,0,0
0.02252267,-0.015647166,0.010676162000000001,0.0025950298,0.007403643400000001,7.893,0,0
0.00763427,-0.0031884459999999993,0.00786895,0.0043819678,0.010039450000000002,7.894,0,0
-0.00704639,0.007157574,0.005669403999999999,0.005669892,0.012270744000000002,7.895,0,0
-0.021268850000000002,0.018420354,0.001797556000000001,0.006288536,0.01373588,7.896,0,0
-0.03466795,0.026159654,-0.004029303999999999,0.006465664,0.012294776,7.897,0,0
-0.041261120000000005,0.02383343,-0.008768921999999998,0.0053847024,0.0092536392,7.898,0,0
-0.03937558000000001,0.016970006,-0.009737784000000001,0.0034755820000000005,0.0068311832,7.899,0,0
-0.0314126,0.012879106000000001,-0.008394114000000001,0.0019284258000000002,0.0037908952000000004,7.9,0,0
