bandpass 1,bandpass 2,bandpass 3,bandpass 4,bandpass 5,time,onset,mark
0.0010423272,-0.0005947886,-0.000251337,0.002946008,-0.003169306,3.852,0,0
0.0008761550000000001,-0.0006667464000000001,-0.00015288540000000004,0.0032398319999999998,-0.0033484826,3.853,0,0
0.0008270600000000001,-0.0006689664000000001,-0.00014182666000000003,0.0038005779999999998,-0.0025630946,3.854,0,0
0.0007094368000000001,-0.00034367180000000015,0.00046708734000000003,0.002723733,-2.6126599999999568e-05,3.855,0,0
0.0003488628000000001,0.0002811142,0.0007549851400000001,0.0010948770000000002,0.0021584814000000004,3.856,0,0
0.00026076880000000004,0.0005871528,0.00062996532,0.00048212419999999997,0.0043824014,3.857,0,0
0.00032812840000000004,0.00039527659999999995,0.0007839077200000001,-0.00041985580000000007,0.00576124,3.858,0,0
0.00011021940000000002,0.0004189216,0.00119448298,-0.0020930078000000003,0.005659244000000001,3.859,0,0
-0.00038356659999999994,0.00037517520000000007,0.0014536949800000002,-0.0030233208,0.004999148,3.86,0,0
-0.0011853405999999998,2.1637200000000017e-05,0.00162105058,-0.0029928388000000005,0.004081069,3.861,0,0
-0.0017610706,-0.00010999099999999998,0.0016768446000000002,-0.003499208,0.002208475,3.862,0,0
-0.0017242254,0.00016249928000000002,0.001337432,-0.003556474000000001,-1.8896999999999707e-05,3.863,0,0
-0.0014595214,0.00040005428,0.0005510480000000001,-0.0021655000000000003,-0.0021523790000000003,3.864,0,0
-0.0009695954,0.00048544468,-0.00017264080000000003,-0.000972168,-0.0045775090000000004,3.865,0,0
-0.00044843934,0.00043931648000000007,-0.0007516388000000001,-0.000253626,-0.006415788,3.866,0,0
-5.262939999999989e-06,0.00033845928,-0.0011068174,0.001335218,-0.006843466000000001,3.867,0,0
0.00025258286000000003,0.0003993390000000001,-0.0010582114,0.0028916500000000004,-0.006194378000000001,3.868,0,0
0.00024522286000000005,0.00020004840000000003,-0.0006164168000000001,0.002842644,-0.004533486000000001,3.869,0,0
0.00040925806,-0.000196949,-0.00018634800000000003,0.0023578904,-0.0016677,3.87,0,0
0.0006796860000000001,-0.000249048,0.000427694,0.0020866806000000007,0.001004054,3.871,0,0
0.0003700176,-0.0001177912,0.001036854,0.0008514188000000001,0.002860486,3.872,0,0
0.00014981259999999997,-0.00010225380000000003,0.0009962326,-0.00046095320000000007,0.004771072,3.873,0,0
0.0009227546000000001,4.9508799999999976e-05,0.00063525,-0.0005380280000000001,0.006178614,3.874,0,0
0.0012931874,0.0004921882,0.0001281594,-0.00027604880000000004,0.0065210500000000005,3.875,0,0
0.0007881874000000001,0.0006914086,-0.0007062426,-0.0003727218,0.006267636000000001,3.876,0,0
0.001171414,0.000842504,-0.0014437286,1.954899999999997e-05,0.005228065086,3.877,0,0
0.0017943406,0.0011391006,-0.0015772206,0.000695251,0.0030216410860000003,3.878,0,0
0.0007438846,0.0008730956,-0.0015729405999999999,0.00034892779999999996,0.00036222308600000037,3.879,0,0
-0.0002548914,0.00038291379999999997,-0.0015574270000000001,0.00019502759999999995,-0.001648414914,3.88,0,0
-6.793820000000004e-05,7.588060000000005e-05,-0.0013383890000000002,0.0010276244000000001,-0.003221652914,3.881,0,0
-0.00023978920000000003,-0.00027235020000000005,-0.0007865201999999999,0.0012882134,-0.0045791,3.882,0,0
-0.0008493492000000001,-0.0006748204,-0.0003845127999999999,0.0013656294,-0.00496193,3.883,0,0
-0.0006113574,-0.0007823014000000001,-0.0003060408,0.0021034194,-0.004803338000000001,3.884,0,0
-0.000165827,-0.0006847324000000001,-0.0002467988,0.002257531,-0.004881562000000001,3.885,0,0
-0.0005426522000000001,-0.0005709672,-7.76664e-05,0.0013143512,-0.0042275198,3.886,0,0
-0.0007105298000000001,-0.0005351080000000001,-0.00011953699999999999,0.0007263696,-0.0023774518000000003,3.887,0,0
-0.0006246756000000001,-0.0007143838,-0.00011774259999999999,0.0003018116,-0.0004987658000000004,3.888,0,0
-0.0008024434,-0.0006738706,0.0005451694,-0.0010700824,0.0012465962,3.889,0,0
-0.0008738828,-0.0006227414,0.0010117304,-0.0020234014,0.0034685802000000007,3.89,0,0
-0.000492525,-0.0004225018,0.001433266,-0.0022748736,0.005388550000000001,3.891,0,0
-0.0002679712,-9.657980000000001e-05,0.0018214658000000002,-0.003032656,0.005683718000000001,3.892,0,0
-0.00044859360000000005,-8.96654e-05,0.0018336320000000002,-0.0038137900000000005,0.00516661,3.893,0,0
-0.0002885502,-0.00013390640000000002,0.0015845320000000003,-0.0033080100000000006,0.004516446,3.894,0,0
-0.00013033420000000003,-0.0002278434,0.0011793612000000001,-0.0023875318000000003,0.002611418,3.895,0,0
-0.00015601460000000002,-0.0005625862,0.0006065672000000001,-0.0023844898000000003,0.00010307199999999995,3.896,0,0
-0.000333093,-0.0008972514000000001,1.4313999999999999e-05,-0.001582658,-0.00148578,3.897,0,0
-0.0004894248,-0.0005874098000000001,-0.0003436224,-8.873999999999991e-05,-0.0031401560000000003,3.898,0,0
-0.000455141,-0.00022867560000000003,-0.0008242864,0.0003953702000000001,-0.0050250600000000005,3.899,0,0
-0.000280558,-0.00014891180000000003,-0.0008597571999999999,0.0009447960000000001,-0.005555780000000001,3.9,0,0
0.0003763046000000001,0.00029114820000000004,-0.00044072800000000004,0.002179504,-0.0055222100000000005,3.901,0,0
0.0008707792,0.0006117286000000001,-0.0001306508,0.0025687242,-0.0054209060000000005,3.902,0,0
0.0011211792000000002,0.0004516428000000001,-1.6983999999999802e-06,0.0022815662,-0.004240140000000001,3.903,0,0
0.0015916340000000002,0.00033801100000000004,0.00020154140000000004,0.0026507720000000005,-0.0023168000000000004,3.904,0,0
0.0017104580000000002,0.0005602826,0.0005728710000000001,0.002202524,-0.00077349,3.905,0,0
0.0009938876,0.0007064886000000001,0.00042961820000000006,0.0013111028,0.0008044280000000002,3.906,0,0
0.0005257619999999999,0.0008545156000000001,7.74324e-05,0.0017411988,0.0026113760000000003,3.907,0,0
0.0006510508,0.0011379994,0.00014434820000000005,0.0017270527999999998,0.00344087,3.908,0,0
0.00032088740000000003,0.0014124387999999999,8.770760000000002e-05,0.0007026587999999999,0.0036446960000000002,3.909,0,0
0.00011530779999999999,0.0016258540000000001,-0.00041685040000000005,0.000367693,0.003869758,3.91,0,0
0.0004162858,0.0013409924,-0.0005735348000000001,0.00024249839999999993,0.0035367120000000004,3.911,0,0
0.00038047440000000003,0.0007435763999999998,-0.00033449320000000007,-0.0011337556,0.002215018,3.912,0,0
-4.56764e-05,2.036839999999991e-05,-0.000617591,-0.0023018876,0.0010862340000000002,3.913,0,0
-0.000257684,-0.0007850336000000001,-0.0008972402,-0.0018167296,0.00042465000000000016,3.914,0,0
-0.0007238564000000001,-0.0014977436,-0.0005048046,-0.0012788677999999998,-0.0009791580000000002,3.915,0,0
-0.0014661540000000001,-0.0018200580000000003,-4.6222599999999993e-05,-0.0010032258,-0.0022926400000000003,3.916,0,0
-0.0014195276,-0.0014078336,6.145560000000007e-05,-2.973380000000005e-05,-0.002591916,3.917,0,0
-0.0010201188,-0.0007850629999999999,0.0002361046000000001,0.000932209,-0.0025274500000000005,3.918,0,0
-0.0013097018000000002,-0.0005148384,0.0004950734,0.0005018350000000002,-0.0024411702000000004,3.919,0,0
-0.0015030358,-0.0003831234,0.00016310160000000012,-0.000484733,-0.0013052502000000005,3.92,0,0
-0.0011452318,-4.788999999999998e-05,-0.000364945,-0.0005991472,0.0006856617999999999,3.921,0,0
-0.0011877966000000003,-3.4758799999999997e-05,-0.0006596612,-0.0012018712,0.0023599058,3.922,0,0
-0.0011579910000000001,-0.00015554622,-0.0008413901999999999,-0.0018368200000000003,0.0040200418000000005,3.923,0,0
-0.000468997,0.00020485718000000003,-0.0009851410000000001,-0.0010656180000000004,0.00524977,3.924,0,0
0.000318723,0.0008201261800000002,-0.0011153828,-0.00027651300000000015,0.005568666000000001,3.925,0,0
0.000887727,0.0012240607800000003,-0.0009655116000000002,-0.00036943460000000007,0.005312756000000001,3.926,0,0
0.0014785064000000002,0.00127048998,-0.0007723544000000001,-8.050978000000009e-05,0.004456404,3.927,0,0
0.001690848,0.0014026894000000003,-0.000371193,0.00011180021999999994,0.0027658560000000006,3.928,0,0
0.0011994862000000001,0.001142823,4.923339999999998e-05,-0.0011609477800000002,0.0008983920000000001,3.929,0,0
0.0006221142000000001,0.0002856490000000001,0.00028703020000000004,-0.0017713107800000003,-0.0005611660000000002,3.93,0,0
0.00023531900000000008,-0.000338777,0.0005779976,-0.00124387718,-0.0020787080000000003,3.931,0,0
-0.0003282516,-0.0006338152,0.0005182632,-0.0011853308000000001,-0.0033401640000000005,3.932,0,0
-0.0006483821199999999,-0.0009039042,0.0006428258,-0.0005840488,-0.0038261760000000006,3.933,0,0
-0.00013946432000000003,-0.0006116358,0.0009702774000000001,0.0008694152000000002,-0.0036123020000000004,3.934,0,0
0.00026874088,2.778020000000005e-05,0.001048962,0.0012487394000000001,-0.0032733960000000005,3.935,0,0
0.00052865208,3.183960000000005e-05,0.0009495190000000001,0.0007152,-0.0027883452000000003,3.936,0,0
0.0008925426800000002,-0.000246441,0.0007799124,0.0008115038,-0.0018840956000000001,3.937,0,0
0.0006983738000000001,-0.0005404406,0.00040317640000000007,0.0007437998,-0.00105467,3.938,0,0
-8.03442e-05,-0.0011193006,1.453599999999997e-05,1.570379999999997e-05,-0.00044851840000000005,3.939,0,0
-0.0006167513999999999,-0.0015350886000000002,-0.00013625380000000003,0.00025936359999999996,0.0003695356,3.94,0,0
-0.0008825346000000001,-0.0013291794,-0.00032176840000000003,0.0012113710000000001,0.0011997268000000002,3.941,0,0
-0.0010486306000000003,-0.0008926868000000001,-0.00011855100000000001,0.0012004668000000001,0.0015316412,3.942,0,0
-0.0008023966,-0.0007921828000000001,4.024760000000001e-05,0.001032526,0.0018437216000000002,3.943,0,0
-0.0005324492,-0.0005299462000000001,-4.056e-05,0.0013969602,0.0016846274,3.944,0,0
-0.0001358842,-7.801620000000005e-05,0.00016536920000000002,0.0010149811999999997,0.0004494073999999999,3.945,0,0
0.000192669,-0.0003438202,0.0005058768,-3.438880000000005e-05,-0.0007674906,3.946,0,0
0.0001693736,-0.0004190302,0.0006629074,-0.0001489546,-0.0016089666,3.947,0,0
0.0002764248,8.05434e-05,0.0007257420000000001,2.9348199999999964e-05,-0.0026797746,3.948,0,0
0.0008311754000000001,0.0001084,0.0007761418000000001,-0.00030906600000000004,-0.0032899400000000003,3.949,0,0
0.0012383604000000001,0.000198164,0.0004191530000000001,-0.00011240774000000002,-0.003421932,3.95,0,0
0.0011064278000000002,0.0010426474,-0.00016413099999999998,0.00015561405999999997,-0.003670658,3.951,0,0
0.0007194132000000002,0.0017801428,-0.000665557,-0.00030808894,-0.003487906,3.952,0,0
-4.021659999999981e-05,0.0023041872,-0.0010672742,-0.0008083489399999999,-0.0027739742,3.953,0,0
-0.0006440185999999999,0.0023908705,-0.0013929320000000002,-0.0006713283400000001,-0.0013699881999999998,3.954,0,0
-0.0009736386000000001,0.0015724085000000001,-0.0013264820000000001,-0.0007824532,7.897979999999991e-05,3.955,0,0
-0.0012669583999999998,0.0008714499000000003,-0.000844306,-0.0011308590000000001,0.0013233878,3.956,0,0
-0.0007781674000000001,0.0002217167000000001,-0.0004128998,-0.000375471,0.0029798798000000002,3.957,0,0
0.0003918086000000001,-0.0006568195,3.833120000000005e-05,0.000401517,0.003834616,3.958,0,0
0.0006909726000000001,-0.0008178377999999999,0.00045030900000000003,0.0004374284,0.003483046,3.959,0,0
0.0003709006000000001,-0.0002229668,0.0007292304,0.0008580320000000001,0.0034926440000000005,3.96,0,0
0.0006321248,-0.0002914886,0.0007703884,0.001630638,0.00338264,3.961,0,0
0.0005773750000000001,-0.0006689574000000001,0.0006688634,0.0014501811999999999,0.001637358,3.962,0,0
0.00014009740000000003,-0.0005561302,0.0007200564,0.0008328696,0.00023828599999999988,3.963,0,0
0.00034383140000000004,-0.0005841284000000001,0.0006472862,0.0010458137999999999,-0.0004439620000000001,3.964,0,0
0.0007812368000000001,-0.0007495703999999999,0.00048593020000000005,0.0007167517999999999,-0.0018159220000000002,3.965,0,0
0.0005466498,-0.0007617668000000001,0.00023883659999999994,-4.942020000000004e-05,-0.002665118,3.966,0,0
0.0003481380000000001,-0.0006904248000000001,-8.018660000000006e-05,-0.00015901940000000002,-0.00264114,3.967,0,0
0.0004673256,-0.0007902122000000002,-0.0005648346,-0.00034052580000000005,-0.00240647,3.968,0,0
3.633759999999999e-05,-0.0009218422,-0.0009178042000000001,-0.0009246,-0.00206793398,3.969,0,0
-0.0004208438,-0.0007995398,-0.0010658836,-0.0011107758,-0.0013207599800000001,3.97,0,0
-0.00013867399999999998,-0.0003645689999999999,-0.0012011572,-0.0006750314,-0.00041113998000000013,3.971,0,0
0.0001628792,-2.2059199999999973e-05,-0.0008192016,-0.0009765534000000001,0.00063711802,3.972,0,0
-0.00024968479999999996,0.0003674872,-0.0003982686,-0.0012062814000000002,0.00200807602,3.973,0,0
-9.232079999999996e-05,0.0009098912,-0.00027066380000000004,-0.00035220740000000013,0.0030814780000000003,3.974,0,0
0.00046772520000000007,0.0010336424000000001,-0.00029612780000000003,0.00017093639999999992,0.0034618979999999997,3.975,0,0
0.00030803480000000005,0.0009208738000000001,-0.0002445186,0.00020704119999999984,0.003238848,3.976,0,0
0.00033767620000000004,0.0008060309999999999,-0.00030298760000000005,0.0008237711999999999,0.0027638914,3.977,0,0
0.0006490138,0.0006568076,-0.0003832896000000001,0.0012992524,0.0016097294000000002,3.978,0,0
0.0003817998,0.0005981742,4.0396000000000485e-06,0.00037005440000000006,-8.849059999999998e-05,3.979,0,0
-8.681619999999999e-05,0.0003958836,0.0003335930000000001,6.627659999999997e-05,-0.0009366726,3.98,0,0
-0.0004129504,0.00023680719999999997,0.0003457992,0.0006247334000000001,-0.0014020886,3.981,0,0
-0.0009596304000000001,0.0002203152,0.0004101132,-3.6524600000000114e-05,-0.0023323960000000005,3.982,0,0
-0.0013067962000000001,-0.00010833340000000001,0.00048456599999999997,-0.00023075580000000002,-0.00243844,3.983,0,0
-0.001153069,-0.0006137800000000001,0.0004346224,0.0007782722000000001,-0.0014479520000000002,3.984,0,0
-0.001053103,-0.001057528,0.000966017,0.0007734182,-0.0008764048000000002,3.985,0,0
-0.0007307183800000001,-0.001458941,0.0019434788,-9.961359999999994e-05,-0.0005350728000000001,3.986,0,0
0.00015687362,-0.001726492,0.0026797421999999998,2.0720200000000046e-05,0.0007196412,3.987,0,0
0.0006251298200000001,-0.0017303040000000002,0.0027826724,-0.0001357318000000001,0.0016569492,3.988,0,0
0.0009564686199999999,-0.001109252,0.0017491159999999998,-0.0011336898,0.0015621952000000002,3.989,0,0
0.00160480062,0.00018515000000000014,-0.0008280080000000003,-0.0011360876,0.001741238,3.99,0,0
0.001811002,0.001102928,-0.0046897,-0.0006821378,0.0018620300000000002,3.991,0,0
0.0009241200000000001,0.001878016,-0.007174746,-0.0007436856000000002,0.001199224,3.992,0,0
-0.00017675199999999996,0.0029022160000000004,-0.005893598,-0.0007848716,0.0004941284,3.993,0,0
-0.000632816,0.0030431020000000002,-0.002642292,-0.000478094,-4.7355999999999755e-06,3.994,0,0
-0.00142821,0.0019712640000000003,0.0008649660000000006,-0.0006861664,-0.0008017016000000001,3.995,0,0
-0.002207428,0.00076544,0.004584798000000001,-0.0015621344,-0.0017606856,3.996,0,0
-0.0018531286,-0.00021910000000000007,0.0062008340000000006,-0.0019318444000000002,-0.0020316196000000003,3.997,0,0
-0.0009201472000000001,-0.0012336740000000001,0.004355442,-0.0016344110000000001,-0.00203685,3.998,0,0
-0.0007437906000000001,-0.0019139180000000001,0.001072968,-0.0016169446000000001,-0.0021439700000000003,3.999,0,0
-0.0005142331999999999,-0.002223688,-0.001175658,-0.0012949232000000002,-0.0018245,4.0,0,0
-0.000121831,-0.001923098,-0.0019309202200000002,1.0250799999999899e-05,-0.001321464,4.001,0,0
-0.0006062904,-0.0014691726,-0.0020778710200000006,0.0009616168,-0.001091688,4.002,0,0
-0.0006894154000000001,-0.0011718920000000001,-0.00183212042,0.0010520890000000002,-0.00112393,4.003,0,0
-3.1086000000000156e-05,-0.00069751,-0.0008001440200000001,0.0016593270000000004,-0.0005845780000000001,4.004,0,0
0.00027761259999999993,-0.00012716379999999996,0.00024688398000000003,0.0020274676000000004,0.00011305999999999995,4.005,0,0
0.00026394999999999994,0.0003520474,0.00037304640000000006,0.0012061498000000002,0.0009162699999999998,4.006,0,0
0.000810224,0.0005723952,0.0005445965,0.0013804698000000003,0.0024524639999999997,4.007,0,0
0.0012092776,0.0005245481799999999,0.0009519738999999999,0.0019314782,0.003451562,4.008,0,0
0.0006854853999999999,0.00028733018,0.0009356703000000001,0.0010579862,0.0034075714,4.009,0,0
0.00047963840000000003,0.00028361366,0.0005067237000000001,0.0004163424,0.0032723854,4.01,0,0
0.0009427628,0.0005184384600000001,0.0005152627000000001,0.0005246838,0.0027490030000000003,4.011,0,0
0.0007566562,0.00082321526,0.0008061414,-0.00012781280000000004,0.001087499,4.012,0,0
-3.5958000000000105e-06,0.00128503568,0.0003276342000000001,-0.00044398460000000007,-0.00017772100000000004,4.013,0,0
4.1172999999999994e-05,0.0018873316800000002,0.00011055460000000001,0.0004621634000000001,-0.0005199788000000001,4.014,0,0
0.00017127799999999997,0.002172942,0.00022253786000000006,0.0009059772000000002,-0.0012077308000000002,4.015,0,0
-0.00034396200000000007,0.0017355462000000002,1.2852600000000033e-06,0.0007617648000000001,-0.0018356964,4.016,0,0
-0.00039988700000000003,0.0010822674000000002,2.429525999999996e-05,0.0011056634000000001,-0.0017590604000000001,4.017,0,0
-0.00013311700000000003,0.0002258454000000001,0.00018075485999999996,0.0013325892,-0.0016745364,4.018,0,0
-0.0003674308,-0.0009175566,0.00019938826,0.0002883012,-0.0017098840000000003,4.019,0,0
-0.0003568428000000002,-0.001396461,0.0003165138,-0.0006696728000000001,-0.001193524,4.02,0,0
0.0003734312,-0.0013047221800000003,0.0002097034,-0.0005033440000000001,-2.94780000000001e-05,4.021,0,0
0.0008014148,-0.00111405338,-0.0003035676,-0.0009490260000000001,0.0007684139999999999,4.022,0,0
0.000931427,-0.0005376543799999999,-0.000289995,-0.0019593220000000003,0.0009694389999999999,4.023,0,0
0.0011620159999999999,0.00010162382000000002,-0.00022534760000000002,-0.0014956108000000001,0.001388569,4.024,0,0
0.0008527228,0.00033341102,-0.00043194020000000003,-0.0007405572,0.0013761970000000002,4.025,0,0
9.262080000000002e-05,0.00018764320000000002,-0.0003048926,-0.0010660792,0.0007572916,4.026,0,0
-0.0004209432,-0.00023156279999999996,-0.0004977716,-0.0009403136,0.0004650516,4.027,0,0
-0.00036078020000000007,-0.0007935398000000001,-0.000710341,-0.000386541,0.0004057784000000001,4.028,0,0
-0.00036415419999999996,-0.0010528032,-0.00067733766,-0.0008167822,-0.0002031276000000001,4.029,0,0
-0.0004657714,-0.0010738672,-0.00067953606,-0.0012139038,-0.0007096436,4.03,0,0
-1.2139600000000029e-05,-0.0008715562000000001,-0.00035356586,-0.0006050118000000001,-0.0008483384,4.031,0,0
9.375860000000001e-05,-0.0004971424,0.00018751494000000002,-0.000533887,-0.0013348504,4.032,0,0
-0.00040785660000000005,-0.00039355039999999997,0.00034476534,-0.0004388269999999999,-0.0014493762000000001,4.033,0,0
-0.0005608996000000001,-0.00015628019999999997,0.00045407140000000004,0.0006825190000000001,-0.0011702346,4.034,0,0
-0.0005258786,0.000283145,0.0008870762000000001,0.0011280724000000003,-0.0008866346000000001,4.035,0,0
-0.0009976564000000001,0.0005665228,0.0010998942000000002,0.0005538204000000001,-0.0007523562000000002,4.036,0,0
-0.0012872886,0.0006270263200000001,0.0013573274,0.00042023380000000006,-0.0006686822000000002,4.037,0,0
-0.0010742663999999999,0.0007281985199999999,0.0015453496,0.0002145430000000001,-0.00028610120000000005,4.038,0,0
-0.001188815,0.00059949232,0.0014792852000000002,-0.000655985,0.00019945519999999998,4.039,0,0
-0.0012144878,0.00013453664,0.0013483092000000003,-0.0005027344,0.0010124192,4.04,0,0
-0.0007776606000000001,-7.514255999999998e-05,0.0009145876000000001,0.0004714916,0.0016336149999999997,4.041,0,0
-0.00043566480000000005,-7.687771999999999e-05,0.00026039360000000003,0.0010861998,0.0018293250000000001,4.042,0,0
-0.0003700296,2.968168000000001e-05,-0.0003027346000000001,0.0018319020000000003,0.0019092573999999998,4.043,0,0
-7.124880000000002e-05,0.00018973008000000002,-0.0007370816000000001,0.0027675119999999997,0.0013956161999999998,4.044,0,0
0.0003132994,0.00024650296,-0.0012372876000000003,0.0028153580000000004,0.00015773619999999997,4.045,0,0
0.00044556619999999996,-1.5162839999999993e-05,-0.0012784247800000001,0.001796302,-0.0006704378,4.046,0,0
0.0009208004,-7.630499999999998e-05,-0.0009617453800000002,0.0013015926,-0.0003484378,4.047,0,0
0.001546797,0.00017467800000000002,-0.00095310938,0.0010036166000000001,-0.0004130360000000001,4.048,0,0
0.0016734120000000002,0.0002675894,-0.00105888138,-0.00028115540000000003,-0.0010224788000000001,4.049,0,0
0.0015642528,0.000202504242,-0.0012351613800000002,-0.0011009994000000002,-0.0009113767999999999,4.05,0,0
0.0015131188,0.00012610124200000005,-0.0016145426000000003,-0.0011233514,-0.0005417695999999999,4.051,0,0
0.001064401,0.00012332964200000002,-0.0015643752,-0.0018012660000000002,-0.0011474215999999998,4.052,0,0
0.0004511210000000001,-0.00017260175800000002,-0.0008369172,-0.0029755320000000004,-0.0016349248000000003,4.053,0,0
0.00031329460000000003,-0.00044426195800000007,-0.00018606740000000007,-0.0029234580000000003,-0.0009072696,4.054,0,0
0.0001278888,-0.0004306668,0.0003745104,-0.0023127226,-0.0005821081800000001,4.055,0,0
-9.623814e-05,-0.00015792380000000003,0.0006504242,-0.0020398686,-0.00063049838,4.056,0,0
0.00019817566000000005,0.00018541579999999997,0.00027711939999999996,-0.0005478666,5.264961999999995e-05,4.057,0,0
0.00033520466000000004,0.00023218219999999998,-8.85986e-05,0.0012476874000000003,0.0008488296200000001,4.058,0,0
-4.380693999999995e-05,0.00017627820000000002,-0.00044986380000000005,0.0018338416,0.00112378042,4.059,0,0
-6.339313999999994e-05,0.00021697939999999996,-0.0008332516000000001,0.0019671602,0.001562935,4.06,0,0
4.832960000000006e-05,0.000167806,-0.0007838964,0.0020157926,0.002039394,4.061,0,0
-0.0003519964,-0.000141322,-0.0006914788000000001,0.0008624646000000003,0.001840938,4.062,0,0
-0.00048239180000000004,-0.00010179560000000001,-0.0011490848000000001,-0.0002779194000000001,0.0016147610000000001,4.063,0,0
-0.0001298914,2.3676000000000005e-05,-0.001069717,-0.00020339760000000011,0.0013110209999999999,4.064,0,0
-4.9986200000000006e-05,-0.0002526384,-0.00025758499999999995,-0.0005399056,0.00018727100000000003,4.065,0,0
-0.00014243420000000003,-0.000693424,-3.2019999999998924e-06,-0.0008714580000000001,-0.001057685,4.066,0,0
0.0001437586,-0.001183676,0.00023588220000000012,-0.000506755,-0.001817833,4.067,0,0
0.00039929,-0.001340259,0.0007059982000000001,-0.0001057788,-0.0025223520000000003,4.068,0,0
0.00018981580000000003,-0.001331399,0.0007918240000000001,-0.00032796,-0.0029131160000000003,4.069,0,0
-0.00024652220000000006,-0.0011759474000000002,0.0003234208000000001,-0.0003281916,-0.0024491060000000004,4.07,0,0
-0.0003964626000000001,-0.0005248714,-5.040680000000001e-05,0.00027757840000000003,-0.0016105202000000003,4.071,0,0
-0.0005141717200000001,0.0002395186,-0.00010016539999999999,5.717739999999997e-05,-0.0010562102000000002,4.072,0,0
-0.00077813152,0.0004595612,-9.38254e-05,-1.4807200000000037e-05,-0.0004620752,4.073,0,0
-0.00027811172,0.0005975565999999999,2.3598800000000015e-05,0.00106678,0.00047626280000000003,4.074,0,0
0.00045483427999999995,0.0008537636,0.000299586,0.0012646572,0.0011483688000000001,4.075,0,0
0.00046859308,0.0005439808000000001,0.0006774156000000001,0.0005378871999999999,0.0013510870000000002,4.076,0,0
0.00042608860000000013,0.00021305739999999998,0.0007285634000000001,0.0010351372,0.0016891010000000001,4.077,0,0
0.000615345,0.0004190538,0.0011525134000000001,0.0012506396000000002,0.0016622364000000004,4.078,0,0
0.00034829839999999995,0.0005988384,0.0017182930000000003,-0.00042861440000000004,0.0009145444000000001,4.079,0,0
6.89264e-05,0.0005668728,0.0016760490000000002,-0.00121164,0.0004074857999999999,4.08,0,0
0.00045858819999999997,0.0008530876,0.00147304288,-0.00045631999999999997,0.00027264579999999996,4.081,0,0
0.0006579347999999999,0.001154119,0.0015269094800000002,-0.0007851787999999999,-0.00014986080000000003,4.082,0,0
0.00031811519999999996,0.0010679742,0.0013581194800000003,-0.0014193688000000001,-0.0006100752000000001,4.083,0,0
0.00018601960000000004,0.0008108847999999999,0.00064214348,-0.0007661136000000001,-0.0006670832,4.084,0,0
-4.39084e-05,0.0006189619999999999,0.00033486148,-0.00032830559999999997,-0.0008712226,4.085,0,0
-0.0009632843999999999,0.000521822,0.00039416120000000004,-0.0011431316000000001,-0.0011580682,4.086,0,0
-0.0016510181999999998,0.0002329024,0.00016267160000000002,-0.0015375008,-0.0007785696000000001,4.087,0,0
-0.0016601382,-0.0001282124,-0.00025582100000000004,-0.00118779252,2.745240000000005e-05,4.088,0,0
-0.001889236,-0.0003028366,-0.00043433500000000005,-0.0013523197199999998,0.0005844444000000001,4.089,0,0
-0.0017717476,-0.0005710588,-0.00040602378000000007,-0.00098280892,0.0013763184,4.09,0,0
-0.0006232556,-0.0009883448,-0.00048075538000000003,0.00016399708000000004,0.0021215360000000003,4.091,0,0
0.0005576304000000001,-0.0009498872,-0.0004776785800000001,0.00086234108,0.002068682,4.092,0,0
0.0013743244000000003,-0.0009021236000000001,-0.00012413278000000002,0.0011842868,0.0017702158,4.093,0,0
0.0019939524000000004,-0.0009613872,0.00013041486,0.0017606108000000002,0.0015660808000000001,4.094,0,0
0.0022806078000000003,-0.0006157552,-0.00010611836000000003,0.001951622,0.0009294128000000002,4.095,0,0
0.0019828418,-0.0003472408,-0.00034070636,0.0013169922000000002,-0.00023187520000000005,4.096,0,0
0.0014667896,-0.0001197464,-0.00050687516,0.0013411582000000001,-0.0008705632,4.097,0,0
0.0009518960000000001,0.0002707516,-0.00067214076,0.0015567182,-0.0012264770000000001,4.098,0,0
0.00028425599999999993,0.00030283240000000003,-0.0007596066,0.0009150542000000001,-0.0016583280000000001,4.099,0,0
-0.0002220958,0.00010516439999999999,-0.0009556685999999999,0.0007403363999999999,-0.0015203222,4.1,0,0
-0.00047170620000000003,0.00013440999999999995,-0.0006721034,0.0009976282,-0.0010001061999999998,4.101,0,0
-0.0008666540000000001,-2.4308400000000013e-05,-0.00016006740000000004,0.0001225102,-0.0008425662,4.102,0,0
-0.0016235644000000002,-7.928659999999996e-05,-0.0003697068000000001,-0.0010478658,-0.0007990382,4.103,0,0
-0.0019542804,0.00030822380000000005,-0.0004990068,-0.000905245,-0.0005081858,4.104,0,0
-0.0019659784000000003,0.0007012738,-2.7432800000000033e-05,-0.0010332860000000002,-0.0006085946000000002,4.105,0,0
-0.002161572,0.0007204072400000001,0.000158014,-0.0016974180000000002,-0.0005767160000000001,4.106,0,0
-0.0018515052,0.00055753564,-8.849842000000001e-05,-0.0009281666,0.000188126,4.107,0,0
-0.0012271710000000002,0.00041762964,0.00019929858,0.0002762733999999999,0.0005284928,4.108,0,0
-0.0009111010000000001,-8.357235999999999e-05,0.00073590878,0.00044946,0.00039401839999999997,4.109,0,0
-0.000664855,-0.00057594836,0.00058052258,0.000521449,0.0007366474000000001,4.11,0,0
-0.000457133,-0.0005964018,0.00020026518,0.0011886169999999999,0.0007409588,4.111,0,0
-0.0007682978000000001,-0.00043952260000000007,0.00011237559999999998,0.00105240612,5.420800000000014e-06,4.112,0,0
-0.00084164,-0.00029815400000000013,-9.396460000000001e-05,-5.643988000000004e-05,-0.000337232,4.113,0,0
-8.01200000000001e-05,8.955199999999996e-05,-0.0006445446000000001,-0.00027027788000000004,-0.00019459480000000003,4.114,0,0
0.000332186,0.0004189886,-0.0009160284000000001,-0.00030318168,-0.0005447968,4.115,0,0
0.0004003766,0.00042909452,-0.001105521,-0.00086859768,-0.0009204528,4.116,0,0
0.0008821826000000001,0.00052832712,-0.001539819,-0.0007581142,-0.0009105668000000002,4.117,0,0
0.0011639002,0.0007054007200000001,-0.0015933905999999999,-0.00023302723999999998,-0.0007989718000000002,4.118,0,0
0.0006144696000000001,0.0005822389800000001,-0.0012800161999999998,-0.00041150664,-0.0007109670000000001,4.119,0,0
0.0002080704,0.00019624638000000007,-0.0009023039,-0.00070104864,-0.0005701942000000001,4.12,0,0
0.0003783338,0.00010128446,-0.0005224613000000001,-0.00036904384,7.292779999999998e-05,4.121,0,0
2.8428399999999994e-05,-0.00016368274000000003,-0.00010179190000000001,-0.00067034724,0.0005018578000000001,4.122,0,0
-0.0003433012,-0.00095887274,0.0002691627,-0.00075993,0.0008448928000000001,4.123,0,0
0.0001133754,-0.0010697766000000001,0.0005359682999999999,0.00012910599999999998,0.0015412348,4.124,0,0
0.0005674446,-0.0006396496000000002,0.0007243222,0.00048360380000000004,0.001934416,4.125,0,0
0.0007316126000000001,-0.0007740856000000001,0.0007860326000000001,0.00038790859999999995,0.001916556,4.126,0,0
0.0013709960000000002,-0.0008684446000000001,0.0009743236,0.00080681,0.002041256,4.127,0,0
0.002002924,-0.0005634392000000001,0.0011446336000000001,0.001032282,0.0018833304000000003,4.128,0,0
0.0018680480000000002,-0.0005468742,0.0012006276,-0.000183378,0.0010099249999999998,4.129,0,0
0.0016904761999999999,-0.0005341734000000001,0.001179435,-0.0009170082,0.0004305166000000001,4.13,0,0
0.0013970254,-0.000201337,0.0011378692,-0.0005170018,-0.00012610140000000002,4.131,0,0
0.0005814974,0.00010750380000000003,0.0011759096,-0.0007486581999999999,-0.0010628794,4.132,0,0
0.0001377814,0.0004999904,0.0007595842000000001,-0.0004928763999999999,-0.0015421998,4.133,0,0
0.0001283174,0.000803583,7.295019999999997e-05,0.0008685916000000001,-0.001399004,4.134,0,0
-0.00023409680000000002,0.000670698476,-0.00034733339999999994,0.001504801,-0.0012150144,4.135,0,0
-0.000585888,0.0004999516759999999,-0.0004955866,0.001012748,-0.0011083412,4.136,0,0
-0.00033305320000000005,0.00045196547599999997,-0.00047443280000000006,0.0005280923999999999,-0.000615948,4.137,0,0
-0.00027393208,2.8975875999999955e-05,-0.0004636300000000001,-0.0001932336,-8.29262e-05,4.138,0,0
-0.00053390208,-0.00043376012400000004,-0.00013019160000000003,-0.0014125076000000001,-0.00023154740000000003,4.139,0,0
-0.00023256908000000002,-0.0002409482,0.0004324704,-0.001708749,-8.058660000000005e-05,4.14,0,0
0.00040409692000000007,4.259419999999998e-05,0.0004753684,-0.001264658,0.0007429242000000001,4.141,0,0
0.0006443349200000001,7.2515999999999815e-06,0.00029590180000000005,-0.0008365320000000001,0.0010476090000000001,4.142,0,0
0.00063951065,0.00034992140000000003,0.00044431820000000004,-3.283200000000011e-05,0.0010482554,4.143,0,0
0.00083626545,0.0008336334000000001,0.0003445974,0.0012783960000000002,0.0011225602000000002,4.144,0,0
0.0004828504500000001,0.000585264,-0.0001039954,0.002072912,0.0007214744000000002,4.145,0,0
-0.00043498754999999993,0.00018365500000000004,-0.00022709340000000002,0.0016111246,-0.0001382088,4.146,0,0
-0.0008929743500000001,0.00025267540000000003,-0.0002823198,0.0015287158000000002,-0.0005661728,4.147,0,0
-0.0009747595999999999,0.0003218272,-0.0004685636,0.0015899338000000002,-0.0007985838000000001,4.148,0,0
-0.0014450904000000001,0.000261462,-0.0004485912,0.0008206909,-0.0012045417999999998,4.149,0,0
-0.0016508004000000001,0.0005665082,-0.00022850399999999998,0.0004195409,-0.0011276838,4.15,0,0
-0.0010034956,0.0010709372000000002,3.168360000000003e-05,0.0006665181,-0.0009937012000000001,4.151,0,0
-0.0007010748000000002,0.0010336218,0.0002607484,0.00023015890000000004,-0.0014079492,4.152,0,0
-0.0008543024000000002,0.0003934638,0.0005417364,-0.0008244971,-0.0015151244,4.153,0,0
-0.00047631160000000003,-0.0001136729999999999,0.0006968784000000001,-0.0012154762000000001,-0.0006655704000000001,4.154,0,0
0.0002677084,-0.00031812220000000007,0.0008703860000000001,-0.0019547422000000003,-0.00010342059999999994,4.155,0,0
0.000308487,-0.0007719656,0.0008700315999999999,-0.002817346,0.00040242000000000007,4.156,0,0
0.00028710688000000003,-0.0011928026,0.0003685172,-0.00223480832,0.0016239520000000001,4.157,0,0
0.0007817968800000001,-0.0012351126,6.83123999999999e-05,-0.00152546232,0.002169556,4.158,0,0
0.0006369922799999999,-0.0011138986,-0.00010974080000000005,-0.00160564232,0.0020126370000000003,4.159,0,0
8.865828000000005e-05,-0.0008159034000000001,-0.0006118148000000001,-0.0012249363199999998,0.001802701,4.16,0,0
-6.553312e-05,-0.00023019200000000016,-0.0008912430000000001,-0.0006171281199999999,0.001234635,4.161,0,0
-0.00021959099999999996,0.00012280859999999998,-0.000764235,-0.0008123180000000001,0.000340865,4.162,0,0
-0.000686601,0.0002451506,-0.0008507298000000001,-0.0007988860000000001,-0.00011074700000000006,4.163,0,0
-0.0006632656000000001,0.0003076312,-0.0011911186000000001,0.00040530800000000006,3.5099999999999986e-05,4.164,0,0
-9.577359999999994e-05,-0.00023918880000000002,-0.0013912566000000002,0.0011853319999999999,-0.00013855199999999996,4.165,0,0
7.319480000000006e-05,-0.0006618802000000001,-0.0012748812000000001,0.0013302218000000002,-0.00020668540000000005,4.166,0,0
0.0001332592,-0.000645168,-0.0008750297999999999,0.0019241800000000002,7.035779999999998e-05,4.167,0,0
0.0004502858,-0.000607302,-0.0004169202,0.00197045,-0.00012648220000000001,4.168,0,0
0.000421652,-0.0006840246000000001,0.0001733038,0.001040818,-0.00060466,4.169,0,0
6.756739999999996e-05,-0.0006628302000000001,0.0004620046,7.238000000000009e-05,-0.0006677428000000001,4.17,0,0
0.000202793,-0.0004435768000000001,0.00016795820000000002,0.00020725420000000013,-0.00032318139999999994,4.171,0,0
0.0005729778,-0.00011965960000000003,-0.00013899820000000003,-0.00010963639999999995,2.98214e-05,4.172,0,0
0.0007446152,0.0006812903999999999,-0.000395825,-0.0007007624000000001,0.0006788854000000001,4.173,0,0
0.0011362914,0.0016276543999999998,-0.0003417590000000001,0.0003296556,0.0011417672,4.174,0,0
0.0012295822,0.002236474,0.0001117642,0.0011632676000000002,0.000745992,4.175,0,0
0.000859576,0.0022032080000000003,0.0006002432,0.0010107497999999999,-0.00021540000000000003,4.176,0,0
0.0004559468,0.0017613268000000002,0.0010190342,0.0011533044,-0.0010305300000000004,4.177,0,0
-0.00014679120000000003,0.0003571768,0.0014207090000000003,0.00130323,-0.0016392260000000004,4.178,0,0
-0.0005995146000000001,-0.0011140352,0.001525847,-6.605e-05,-0.0023443340000000004,4.179,0,0
-0.0006777196000000001,-0.0013087032,0.0012595126000000002,-0.0006919170000000001,-0.0020046824000000004,4.18,0,0
-0.00047003780000000014,-0.0014312504000000001,0.0011885676,1.450059999999996e-05,-0.0011778418000000003,4.181,0,0
-0.0003802706000000001,-0.0013068472,0.0011607036000000001,-0.00021857484000000008,-0.0010757058,4.182,0,0
-0.00041978260000000004,-0.0005110275999999999,0.0009113624000000001,0.00011825755999999996,-0.0007461802000000001,4.183,0,0
-0.00020155660000000002,0.00018151600000000003,0.0005255144000000001,0.00115650956,-0.0001054242,4.184,0,0
-0.0002189068,0.000156728,0.0004954687940000001,0.0008829205600000001,-8.056780000000002e-05,4.185,0,0
-0.0006725043999999999,5.3771199999999984e-05,0.000475361794,-0.00050520344,-0.0002842914,4.186,0,0
-0.0007972812,6.904159999999998e-05,-1.7272205999999997e-05,-0.001239024,-5.151319999999998e-05,4.187,0,0
-0.00037182100000000004,0.0002898792,-0.00041657300600000003,-0.00181715,3.256000000000038e-06,4.188,0,0
-0.00035880259999999996,0.0005657915999999999,-0.0007066530060000001,-0.002688638,-0.000364616,4.189,0,0
-0.00035234059999999997,0.0004622228,-0.001141511,-0.0022774316,-0.00045955359999999996,4.19,0,0
0.0002822914000000001,0.0004194992,-0.0012850708,-0.0008675016000000001,-0.000336562,4.191,0,0
0.00048743520000000005,8.583479999999997e-05,-0.0011073174,0.00026039639999999995,-0.00019936620000000002,4.192,0,0
9.398700000000002e-05,-8.253240000000007e-05,-0.0013905514,0.0010328444000000001,-9.660300000000004e-05,4.193,0,0
0.000114621,-0.00023833640000000004,-0.0014789354000000002,0.0020608184,6.233580000000001e-05,4.194,0,0
9.439720000000001e-05,-0.0005191324000000001,-0.0009840678000000002,0.002334174,0.00041280140000000005,4.195,0,0
-0.0004051882000000001,-0.00031759980000000006,-0.0007007325999999999,0.0010960860000000002,0.00043747420000000005,4.196,0,0
-0.0003233724,-2.547299999999999e-05,-0.000500701,0.0005384092000000001,0.0005537582,4.197,0,0
0.00028050760000000003,-7.417039999999999e-05,0.00022012500000000008,0.0005270812000000001,0.0006918862000000001,4.198,0,0
0.0005724446000000001,-0.000214123,0.000884063,-0.00041840679999999997,0.0005147164,4.199,0,0
0.0008645834000000001,-0.00025775820000000004,0.000932509,-0.000676654,0.0004888304000000001,4.2,0,0
0.0011656904,-0.0004020839,0.0010136086,-0.00020745999999999997,0.000878787,4.201,0,0
0.0005596156000000001,-0.0004073373,0.0012698536,-0.0005613572,0.001082763,4.202,0,0
-0.00032649039999999995,-0.0005898459,0.0010969744,-0.0011359592,0.000870875,4.203,0,0
-0.0009617304,-0.0007288013,0.0005699863999999999,-0.0007932630000000001,0.001079253,4.204,0,0
-0.0012363318,-0.00019531129999999998,0.00027244100000000006,-0.000728365,0.0009221324000000001,4.205,0,0
-0.0011610932,0.00023649940000000007,-1.0050799999999941e-05,-0.0010019270000000001,0.0005546779779999999,4.206,0,0
-0.0006762070000000001,0.000414752,-0.00028346860000000003,-0.00033668580000000004,0.000699921978,4.207,0,0
0.00013473700000000006,0.0009242380000000001,-0.0002970648,0.00016610619999999997,0.0008678979780000001,4.208,0,0
0.000594073,0.001353912,-0.00015464100000000004,7.188000000000002e-05,0.000925380378,4.209,0,0
0.0008601904,0.001283484,3.2721999999999786e-06,0.0001262428,0.000772534378,4.21,0,0
0.0009362802,0.001198194,6.001219999999998e-05,0.0008916728,0.00042205079999999993,4.211,0,0
0.001053413,0.0011123146,-8.430000000000002e-05,0.0012381356,-0.0004249932,4.212,0,0
0.0007236732,0.0004616086,-0.0003298366,0.0009720336,-0.0012029232000000001,4.213,0,0
0.00046602359999999997,6.39654e-05,-0.0005023304,0.0014457316,-0.0011439880000000003,4.214,0,0
0.0005918496,-4.0260800000000026e-05,-0.000551355,0.001351866,-0.0010818978,4.215,0,0
7.758360000000003e-05,-0.0004917374,-0.0008197872000000001,0.00035770600000000006,-0.0008682646,4.216,0,0
-0.0004778194,-0.0005988361999999999,-0.0011325072000000001,5.9144599999999976e-05,-9.904660000000008e-05,4.217,0,0
-0.00045294920000000003,-0.00020990020000000002,-0.0009660726,-2.6276800000000006e-05,0.00034911340000000004,4.218,0,0
-0.0007053236000000001,-0.0001372642,-0.0006416006000000001,-0.0010320688,-6.372919999999999e-05,4.219,0,0
-0.0012227728,-0.0006478440000000001,-0.0005179312,-0.0017413328000000002,-0.0002296158,4.22,0,0
-0.001128729,-0.0008752714000000001,-0.0006503392000000001,-0.0014793248000000002,2.5540600000000018e-05,4.221,0,0
-0.001051813,-0.0008302452,-0.0005675492,-0.0016489620000000003,-0.00042929240000000004,4.222,0,0
-0.001053005,-0.0011341192,-0.0005917416,-0.0018646286000000003,-0.0005566072,4.223,0,0
-0.0005027850000000002,-0.001079469,-0.0007120322000000001,-0.0006913486000000001,-0.0003718636,4.224,0,0
0.0001447821999999999,-0.0006430730000000001,-0.0003098604,0.0007751934,-0.0006055366,4.225,0,0
0.00035890379999999994,-0.000588697,0.0002517849999999999,0.0013225354,-0.0009613162,4.226,0,0
0.0006797237999999999,-0.0006721898,0.0004040906,0.001997496,-0.0009318028000000001,4.227,0,0
0.0009894353999999998,-0.0003916158,0.00033747019999999994,0.0028108280000000005,-0.0007380102,4.228,0,0
0.0007805834,-4.210679999999998e-05,0.00022215039999999998,0.0021634326,-0.0005585446,4.229,0,0
-1.625859999999994e-05,0.00020350120000000004,-0.0004856136,0.00137952,0.0003563354000000001,4.23,0,0
-0.00022832579999999995,0.0009077692000000001,-0.0009185370000000001,0.001630292,0.0013532814000000002,4.231,0,0
-9.593819999999995e-05,0.001369528,-0.0008206460400000001,0.0010485184,0.001981375,4.232,0,0
-0.0005667122,0.0013724534,-0.00063796564,0.000497358,0.0023643892000000002,4.233,0,0
-0.0005146996,0.0012169566,-4.895124e-05,0.0008948714000000001,0.0027115760000000003,4.234,0,0
-0.00035723600000000003,0.0009830712000000001,0.00055324876,0.000646358,0.0021396162000000005,4.235,0,0
-0.00038388880000000004,0.0007075888000000002,0.00096816076,-0.00082558,0.0006666242000000003,4.236,0,0
-2.2218400000000038e-05,0.0005014392000000001,0.0012057822000000001,-0.0021213984,-4.609360000000002e-05,4.237,0,0
0.0004821996,0.0005915988000000001,0.0012352804000000002,-0.0027694900000000003,-0.0002569776,4.238,0,0
0.000661305,0.0004508376,0.0010917044000000001,-0.0038798500000000002,-0.000560969,4.239,0,0
0.0012265633999999999,0.0007064910000000001,0.0008720164,-0.004113596,-0.00022137319999999987,4.24,0,0
0.0016829640000000001,0.0016495474,0.0007883292,-0.0028705700000000002,0.0005567786000000001,4.241,0,0
0.0013679300000000003,0.0026096490000000003,0.000651668,-0.001643276,0.00029185840000000007,4.242,0,0
0.0010050635999999998,0.0021981960000000004,0.0008786396000000001,-0.0009940989999999998,-0.0003887656,4.243,0,0
0.0002998215999999999,0.0005837020000000002,0.0015542156,-1.1342999999999895e-05,-0.0007530342,4.244,0,0
-0.0007122524,-0.001107708,0.0017894016000000001,0.0007387110000000001,-0.0011723424,4.245,0,0
-0.0012961264,-0.0031636740000000004,0.00171283968,0.00019295500000000008,-0.0013531482000000003,4.246,0,0
-0.0015314808,-0.004791038,0.00157537048,0.0005020090000000001,-0.0011305028,4.247,0,0
-0.0015830132,-0.004473866999999999,0.0007927904800000001,0.001284128,-0.0008462108000000001,4.248,0,0
-0.0010921837999999999,-0.0027904058000000004,-0.00047093152000000004,0.0010266336,-0.0007879810000000001,4.249,0,0
-0.0006433122000000001,-0.0012454718000000002,-0.00111804352,0.0011888176,-0.000561301,4.25,0,0
-0.00047482320000000005,-6.407579999999995e-05,-0.0013851664,0.0018559776,-0.0003114284,4.251,0,0
-0.000525443,0.00030145980000000007,-0.0015452554000000003,0.0012685955999999997,-0.0005355758000000001,4.252,0,0
-0.0005069468,0.00034442256000000003,-0.0013571114000000004,7.14396e-05,-0.0007219978000000001,4.253,0,0
-0.0004885884,0.00032400816,-0.0011672126000000001,-2.6383000000000076e-05,-0.00036089960000000007,4.254,0,0
-0.0003327804999999999,0.00015072730000000002,-0.0008501752000000001,-0.0006542650000000001,-0.00046174500000000006,4.255,0,0
-0.0001541583,9.68575e-05,-0.0005246622,-0.0019613810000000003,-0.0008211996000000001,4.256,0,0
4.2568300000000024e-05,0.0003024487,-0.0002590586,-0.0016418014,-0.00015440760000000006,4.257,0,0
0.0007776269000000001,0.00066255294,-3.30674e-05,-0.0005985874000000001,0.0005022644,4.258,0,0
0.0009738191000000002,0.00074002374,0.0002286726,-0.00039745679999999997,0.0003787498,4.259,0,0
0.0009285552000000001,0.0007549816,0.0004278072,0.00011049519999999994,0.0003247326000000001,4.26,0,0
0.0010474262,0.0007753078000000001,0.0003237646,0.0014083111999999998,0.0003490966000000001,4.261,0,0
0.0008212032,0.0006800746,0.000278238,0.0016176156,-0.0003387154,4.262,0,0
0.00010235460000000002,0.00016246479999999994,0.0002042496,0.0011081468,-0.0010131094,4.263,0,0
-0.00022129660000000002,8.70852e-05,-0.00015836520000000003,0.0014940992,-0.0009215456000000001,4.264,0,0
-9.993600000000003e-05,0.00037662819999999996,-0.000285626,0.0016583152000000001,-0.0007581854,4.265,0,0
-0.00041928180000000003,0.0002150352,-0.0002478064,0.0012347230000000003,-0.0007454240000000002,4.266,0,0
2.878799999999997e-06,0.000252120926,-0.0004165726,0.001273249,-0.00015950140000000002,4.267,0,0
0.0008250974,0.0005668491260000001,-0.00034066179999999997,0.0015259378,0.0005363766000000001,4.268,0,0
0.0006425866,0.000419139126,-0.00021473960000000002,0.0008345618000000001,0.00024560580000000003,4.269,0,0
0.0002429343999999999,-8.452707400000003e-05,-3.669680000000002e-05,-0.00019453220000000004,-7.883959999999997e-05,4.27,0,0
0.000548553,-0.00011895847400000004,0.0003047132,-0.000671466,0.00022274740000000006,4.271,0,0
0.00030456179999999996,-0.00018631120000000005,0.0005703896,-0.001819162,-1.8104599999999962e-05,4.272,0,0
-0.0006669562000000001,-0.00045262720000000006,0.0007440410000000002,-0.002966086,-0.0004886276,4.273,0,0
-0.00045491220000000004,-0.0005296854,0.0007476146000000002,-0.0025829122,0.00012316599999999997,4.274,0,0
0.0001447278,-0.0007240412,0.000633256,-0.0018895822,0.000756424,4.275,0,0
3.042799999999998e-05,-0.0008227753999999999,0.0005684780000000001,-0.0016867482,0.0008453935999999999,4.276,0,0
0.0003529672,-0.0005370080000000001,0.0004606350000000001,-0.0006195322000000001,0.001296715,4.277,0,0
0.0008380802,-0.00020371840000000003,0.00025059900000000006,0.0007238877999999999,0.0016608740000000001,4.278,0,0
0.0006262382000000001,8.781220000000002e-05,0.00020448640000000003,0.0006865177999999999,0.0011392160000000002,4.279,0,0
0.0005451776000000001,0.0004161244,-8.242380000000001e-05,0.0011128058,0.0005757890000000002,4.28,0,0
0.0005623984000000001,0.0006144222,-0.0005346060000000001,0.0025984918,0.0005719726000000001,4.281,0,0
-4.765599999999987e-06,0.0005277264,-0.0007427276000000001,0.0027073678000000003,0.0005691786,4.282,0,0
-0.00040419460000000007,5.098040000000006e-05,-0.0008108438000000001,0.0021399232000000002,0.00046035140000000004,4.283,0,0
-0.0003986466000000001,-0.000333684,-0.000921963,0.0023617874,0.0005075868,4.284,0,0
-0.0008403960000000001,1.1838000000000343e-06,-0.0008853952,0.0015755193999999998,0.0005932260000000001,4.285,0,0
-0.00117216,0.0002465842,-0.000707876306,-0.00026519459999999994,5.891439999999989e-05,4.286,0,0
-0.0008881024,-0.000131986,-0.000806721506,-0.0011712226,-0.00036659100000000004,4.287,0,0
-0.0007177150000000001,-0.000306372,-0.0006941463060000001,-0.001587792,-0.0002805498,4.288,0,0
-0.00037268580000000004,-0.00023527999999999998,-0.00023215190600000003,-0.00240918,-0.00039065920000000003,4.289,0,0
0.0001254802,-0.000301208,-0.00010321550600000002,-0.0023497532,-0.00018412160000000005,4.29,0,0
0.0005564488,-0.00021097199999999997,9.536859999999999e-05,-0.0014146532,0.00033692,4.291,0,0
0.0008809192000000001,0.0002290373999999999,0.0006926006,-0.0012359792000000002,0.0002707132000000001,4.292,0,0
0.0010841346000000003,0.0006593592,0.0006157854,-0.0009240682000000002,8.647514000000004e-05,4.293,0,0
0.001115915,0.0010647852,0.00015572099999999994,0.0001190578,0.00038160314000000004,4.294,0,0
0.0007479102000000001,0.0011138072,5.188300000000003e-05,0.000619981,0.0004293787400000001,4.295,0,0
0.0003080936,0.0006756272,-0.00012993163999999998,0.00023181800000000004,0.00014762874000000004,4.296,0,0
0.00010826100000000001,0.00041337419999999995,-0.0004785642400000001,0.0006365716,7.855513999999999e-05,4.297,0,0
0.00032230020000000004,0.000474466,-0.00061873104,0.0016076046,-0.00012741080000000006,4.298,0,0
6.479319999999999e-05,0.0003416604,-0.00040144424,0.0012856926000000002,-0.0006796088,4.299,0,0
-0.000110152,-0.0001323756,-0.00017310904000000004,0.001013528,-0.0009572432,4.3,0,0
0.00037701720000000007,-0.00019861,-0.0001249108,0.0012626694,-0.0008546462,4.301,0,0
5.9592000000000076e-05,-0.0001758902,0.00019240780000000002,0.0007892618000000003,-0.0010800744,4.302,0,0
-0.00083339,-0.0007080938000000001,0.0007473478,-0.0003431142,-0.0010986004,4.303,0,0
-0.0011741386,-0.0011506602,0.0007476122,-0.0006639748000000001,-0.0003850264,4.304,0,0
-0.0010985006,-0.0008687498,0.00058955952,-0.0008773718000000001,-0.0002952711999999999,4.305,0,0
-0.0013606058,-0.0006103042000000001,0.00078275712,-0.0015923322000000002,-0.0005867197999999999,4.306,0,0
-0.0011951568,-0.0005483107600000001,0.00077763512,-0.0008789882000000001,6.404620000000002e-05,4.307,0,0
-0.00036136279999999995,-3.796855999999995e-05,0.0006663925200000001,-0.00019622220000000003,0.0005019082,4.308,0,0
9.432040000000003e-05,0.0004437294400000001,0.0007957835200000001,-0.00044043359999999994,0.0001159782,4.309,0,0
0.0002657456000000001,0.00080522704,0.0008081351200000001,6.62400000000005e-06,0.0002504778,4.31,0,0
0.0003333334000000001,0.00110539184,0.00054917712,0.0008806120000000001,0.0005961124,4.311,0,0
8.413420000000005e-05,0.0009837749999999999,0.00015836552000000003,0.0005485632,0.000251653,4.312,0,0
-0.000428633,0.0006095807999999998,-0.00021747987999999998,-0.00024762479999999995,-2.6440800000000013e-05,4.313,0,0
-0.0003057758,0.0005101437599999999,-0.00050358608,0.00019757820000000008,0.0002745712,4.314,0,0
0.00013705900000000003,0.00014324396,-0.0007409756,0.0003706562000000001,0.0001660014,4.315,0,0
0.000193417,-0.00047405384,-0.0009309752,-0.00010540459999999993,-0.0002590432,4.316,0,0
0.00046679320000000003,-0.00039423103999999994,-0.0008891664,6.129780000000009e-05,-0.00016877059999999999,4.317,0,0
0.0005228012000000001,-4.759204e-05,-0.000548144,0.0006533908000000002,-1.4868199999999954e-05,4.318,0,0
-0.00021565720000000003,-9.664020000000001e-05,-0.00021115840000000003,0.00037469420000000014,-0.0005137561999999999,4.319,0,0
-0.0006589478000000001,-0.0004643024,0.00019562000000000003,-0.00015196399999999998,-0.0009625082,4.32,0,0
-0.0003007376000000001,-0.00039827080000000005,0.00036365340000000005,0.00013967880000000002,-0.0007065643999999999,4.321,0,0
-0.00021852500000000004,-0.0004423592000000001,8.368020000000005e-05,-0.00027592880000000005,-0.0006796590399999999,4.322,0,0
-0.00018082480000000003,-0.0009535002000000001,-0.00021081300000000002,-0.0008031718,-0.0006943158399999999,4.323,0,0
0.0003887312000000001,-0.0009241410000000002,-0.00033210306,-0.00046674440000000014,0.0002781821600000001,4.324,0,0
0.0007582138,-0.0005215598000000001,-0.00034457486000000003,-0.0004244340000000001,0.00141953416,4.325,0,0
0.0004571212,-0.00023232559999999998,-0.00034010866000000006,-0.0006690158000000002,0.00152935481,4.326,0,0
0.0004538068,0.00022048520000000001,-9.719066e-05,-0.00013427380000000005,0.00162325185,4.327,0,0
0.0008127178000000001,0.0007470206,0.00021194334000000002,0.0007726902,0.00143262345,4.328,0,0
0.00044386179999999993,0.0007396406,0.0004330578000000001,0.0008926424,9.491945e-05,4.329,0,0
-0.00020126220000000008,0.0007580379999999999,0.0005314832,0.001097182,-0.00095646255,4.33,0,0
-0.0004160328000000001,0.0005220740000000001,0.0007875692000000001,0.0015587117999999998,-0.0014187029999999999,4.331,0,0
-0.0008180472000000001,-6.645200000000002e-05,0.001064796,0.0010584598,-0.0018806945999999998,4.332,0,0
-0.0013046952000000003,-0.00016294760000000003,0.0006338888,0.00029707180000000004,-0.001350658,4.333,0,0
-0.0010996512000000002,4.6143599999999996e-05,0.0001225488000000001,0.0003425918,-0.000272248,4.334,0,0
-0.0012085352000000002,0.00034160900000000004,-0.00018371839999999995,4.492799999999999e-05,1.5671999999999914e-05,4.335,0,0
-0.0012517534000000001,0.00025121880000000005,-0.0006703164,-0.000816348,0.0005482329999999999,4.336,0,0
-0.0008677826,3.102280000000007e-05,-0.0011837772,-0.0007778300000000001,0.001322659,4.337,0,0
-0.0007095168,-0.000246505,-0.0011122792,-0.0007696620000000001,0.0011508489999999998,4.338,0,0
-0.00031304220000000004,-0.0008298862,-0.0008062314,-0.0017916960000000002,0.0003744469999999999,4.339,0,0
0.0004135698,-0.0012731608,-0.0007857201999999999,-0.0019989480000000004,0.00027171560000000005,4.34,0,0
0.0009141212,-0.0011530422600000002,-0.0005503082,-0.001190324,0.0003127752,4.341,0,0
0.0008379632000000001,-0.0008300912600000001,-0.00020643343000000002,-0.001048803,-0.0001979726,4.342,0,0
0.0009542698,-0.00080142726,0.00027895657000000007,-0.001123461,-0.00029257539999999997,4.343,0,0
0.0010468752000000001,-0.0005988752600000001,0.00058415677,-0.0002722088,0.00015946880000000004,4.344,0,0
0.0007355492000000001,-0.00040440265999999996,0.00067162217,0.00042539920000000004,0.0002844474000000001,4.345,0,0
0.00024408480000000005,-0.0003112956,0.0008674905700000001,9.488500000000002e-05,-7.097719999999994e-05,4.346,0,0
7.260020000000002e-05,-4.834919999999998e-05,0.0009484174000000001,0.000520632,-0.0002141934,4.347,0,0
0.000123441,0.00046240680000000006,0.0007427718000000001,0.0013174740000000001,-0.0005691406000000001,4.348,0,0
-7.459940000000004e-05,0.0007971546000000001,0.000514405,0.0007339637999999999,-0.0009122492000000001,4.349,0,0
9.119799999999996e-05,0.0006957218,0.0006767776,2.9199799999999937e-05,-0.00035760040000000005,4.35,0,0
0.0005604844,0.0008350104000000001,0.0006940672000000001,0.00010174799999999996,0.00027148159999999995,4.351,0,0
0.0006580275999999999,0.0007215224000000001,0.0006772254000000001,-0.0002182418000000001,0.00018557359999999995,4.352,0,0
0.00024100239999999995,0.00038669039999999995,0.000782942,-0.00071974594,0.00021563219999999996,4.353,0,0
6.775899999999995e-05,0.0005259706,0.0005768184,-0.00026378394,0.0006903565999999999,4.354,0,0
-5.781960000000005e-05,0.0005575727999999999,0.00019385980000000008,-0.00018400594000000004,0.00019380259999999993,4.355,0,0
-0.00040393560000000006,0.0001679926,4.915180000000022e-06,-0.0009151019400000001,-0.0005286514000000001,4.356,0,0
-0.00016819500000000005,0.000187314,-0.00045370062,-0.0009144937400000001,0.00026631859999999997,4.357,0,0
0.000447237,0.0005048336,-0.00124455962,-0.0005591076000000001,0.0010790180000000002,4.358,0,0
0.0005790891999999999,0.00032412040000000004,-0.0014638532199999998,-0.0005009272,0.0007023388000000001,4.359,0,0
0.000622002,0.00033476140000000007,-0.00166745862,0.0003936767999999999,0.0006690238000000002,4.36,0,0
0.001009324,0.0008344756000000001,-0.00191171,0.0018382148000000002,0.0011531959999999998,4.361,0,0
0.0009059550000000001,0.0009512543999999999,-0.0015666646000000002,0.0019644078,0.0006711260000000002,4.362,0,0
0.000603165,0.00038671080000000007,-0.001063399,0.0014339292,4.230140000000001e-05,4.363,0,0
0.0007638365999999999,-1.4877999999999962e-05,-0.0007113044000000001,0.0015250117999999998,0.00030956060000000005,4.364,0,0
0.0008818902,-3.0198399999999945e-05,-0.0006152264,0.0011584858,0.0002991806,4.365,0,0
0.00041262100000000006,-0.0001751544,-0.0005650168000000001,0.0004386578,8.897760000000004e-05,4.366,0,0
0.00016876780000000003,-0.00043677019999999997,-0.00041593260000000003,0.0006241524,0.0005301396000000001,4.367,0,0
0.00010303160000000004,-0.0005685562000000001,-0.00029957394000000007,0.0008619153999999999,0.0005716368000000001,4.368,0,0
-0.0006302564000000001,-0.0005311242000000001,-0.00012644274000000007,0.0001938103999999999,0.00010371680000000012,4.369,0,0
-0.0010358036,-0.0007111214,0.00040929726,-0.00038507760000000004,6.856160000000008e-05,4.37,0,0
-0.000901188,-0.0010735988,0.00071800966,-0.0002807686,-7.177599999999909e-06,4.371,0,0
-0.0008286736,-0.0011567724,0.00052556446,-0.0006177429000000001,-0.0008919176,4.372,0,0
-0.0007008802000000001,-0.0009248364000000001,0.0006231696,-0.0010958513000000002,-0.0015957602,4.373,0,0
-0.00016777788,-0.0008050722000000001,0.0007251218000000001,-0.0005156418999999999,-0.0012420738,4.374,0,0
0.00010850231999999998,-0.0008738498000000001,0.0007978938000000001,-4.808749999999997e-05,-0.0011213438000000002,4.375,0,0
-0.00010617408000000001,-0.0009068510000000001,0.0008650433999999999,-0.0006131684999999999,-0.0013911038000000004,4.376,0,0
-0.00022331248,-0.0007078186,0.0006930850000000001,-0.0008007952,-0.0010307410000000002,4.377,0,0
-0.00056820168,-4.937460000000002e-05,0.00046323740000000005,-0.00026847359999999996,-0.0003265282000000001,4.378,0,0
-0.0009038380000000001,0.0003990832,0.00024228060000000003,-0.000575935,-0.00044028500000000006,4.379,0,0
-0.0008778938,0.0005880776,-0.00013663580000000002,-0.0010533794,-0.0004438470000000001,4.38,0,0
-0.0005058298,0.0010762822,-0.0003377094,-0.00048267519999999997,0.00021472100000000005,4.381,0,0
-4.433559999999999e-05,0.0014005056000000002,1.9571999999999995e-05,-0.0004980142,-0.00011325779999999996,4.382,0,0
0.0001620666,0.0015408036,-3.7860600000000035e-05,-0.0009555658000000001,-0.0005835866000000001,4.383,0,0
0.0005314998,0.0017707116000000003,-0.0005225818000000001,-0.0005721734,-0.00042739160000000004,4.384,0,0
0.0009644834000000001,0.002194888,-0.0007552294000000001,-0.00010921559999999998,-0.0006098786,4.385,0,0
0.0008981258000000001,0.0020028550000000004,-0.0008033600000000001,-0.00020841928,-0.0012541726000000002,4.386,0,0
0.0004637128000000001,0.0008442790000000002,-0.0006021414000000001,0.00020496072000000004,-0.0011926826,4.387,0,0
0.00024540460000000005,-0.00017631099999999996,-0.0001316186,0.00105577872,-0.0006193615999999999,4.388,0,0
1.3740000000007089e-07,-0.00069823518,0.00046981120000000006,0.0006027823200000001,-0.0004805882,4.389,0,0
-0.00044400780000000006,-0.00108611738,0.0012405752000000001,0.00039376792000000006,0.00014258700000000006,4.39,0,0
-0.0002894962,-0.0012301665799999998,0.0017330838000000003,0.0011463794,0.0010193329999999999,4.391,0,0
-0.00016711340000000007,-0.00064877858,0.0019163998000000003,0.0013428534,0.0014070689799999998,4.392,0,0
-0.0001754174,-0.00032631098,0.0021903298000000002,0.0012214474,0.00148376398,4.393,0,0
0.00013570360000000003,-0.0004361034,0.0021195234,0.0018136934,0.00135657278,4.394,0,0
-0.00013910979999999997,-0.0004635073999999999,0.0016755892000000002,0.0020873112,0.0010062381800000002,4.395,0,0
-0.0011601478,-0.0005065698,0.0012168392,0.0008319871999999999,0.00064599438,4.396,0,0
-0.0016278236000000002,-0.000127841,0.0006584248000000001,-5.007280000000002e-05,0.0006862980000000001,4.397,0,0
-0.0010833956,0.0001609066,-2.701920000000002e-05,-0.00047280479999999996,0.0006498278,4.398,0,0
-0.0010084214000000001,0.00013407240000000003,-0.0002865008,-0.0010483028,0.0004906550000000001,4.399,0,0
-0.0008428748000000001,0.00010766208,-0.0002509428,-0.0011124852000000001,0.0005066402,4.4,0,0
0.00033978319999999993,0.00010322627999999998,-0.00021854077999999998,-0.0007205849999999999,0.000366122,4.401,0,0
0.0009155104,-0.00029566052000000003,-0.00024135718,-0.0007049570000000001,-6.937360000000006e-05,4.402,0,0
0.0005961898000000001,-0.0009063597200000001,-0.00043216118,-0.0009351550000000001,-0.00041250560000000006,4.403,0,0
0.00052534,-0.00099955092,-0.0008017109800000001,-0.000299461,-0.00014366160000000005,4.404,0,0
0.0006427194000000001,-0.0011462628,-0.0014096047800000002,-0.0002696816,-0.0003354400000000001,4.405,0,0
0.0004996634,-0.0015934164,-0.0016950608000000002,-0.0008921858,-0.000686028,4.406,0,0
0.0007833922,-0.0018151144000000002,-0.0018598640000000001,-0.0002249398,-6.542799999999997e-05,4.407,0,0
0.0014183747999999999,-0.0012766604,-0.0018964180000000002,0.0007114322000000001,0.0001638536,4.408,0,0
0.0015952053999999998,-0.0007640124,-0.0015410494000000002,0.00020880260000000003,-0.0003321124,4.409,0,0
0.0015179766400000001,-0.0004666586000000001,-0.0012938934,-0.00020439160000000002,-0.0004074638,4.41,0,0
0.00111920064,0.0006028314,-0.0009298904,0.0003876106,-0.0002898918,4.411,0,0
0.00064535284,0.0013147013999999999,-0.00024070439999999992,-0.0001368674,-0.0007183584,4.412,0,0
0.00015188803999999998,0.0011964171999999998,0.00015956180000000007,-0.0012102094,-0.0006566166000000002,4.413,0,0
-0.00025718576,0.0011870712000000001,0.0002632052000000001,-0.0009156090000000001,-3.36626000000001e-05,4.414,0,0
-0.0002195726,0.001120495,0.0004482172000000001,-0.0006957226000000001,-5.134480000000007e-05,4.415,0,0
-0.0002701852,0.0005019798,0.0001447482000000001,-0.0009125448000000001,9.69044e-05,4.416,0,0
-0.0005011754,7.031000000000005e-05,-0.00042274660000000004,-0.00017533880000000004,0.0008117570000000001,4.417,0,0
-0.0006477108000000001,0.00015695768000000004,-0.00034012720000000003,0.00048196720000000004,0.0006510358000000001,4.418,0,0
-0.0007973050000000001,-0.00017322412,-9.701360000000006e-05,-8.593360000000005e-05,-1.1910199999999973e-05,4.419,0,0
-0.0012688508,-0.00044300792000000005,-9.254780000000005e-05,-0.0006921560000000001,0.00019346940000000001,4.42,0,0
-0.0013289241999999998,2.9437280000000016e-05,0.00031622299999999997,-0.00025192300000000003,0.000482965,4.421,0,0
-0.0009942541999999998,0.00056945308,0.0007876858,-0.00048261660000000015,-0.00014071939999999995,4.422,0,0
-0.001010084,0.000623869,0.0005489578,-0.0009828866,-0.00031924060000000003,4.423,0,0
-0.0006744202,0.0007400362,0.00040093240000000003,0.00027088540000000003,9.266760000000004e-05,4.424,0,0
-0.00014893840000000002,0.0011553988,0.0006403922000000001,0.0018205074000000002,-0.0002823466,4.425,0,0
-0.0001575604,0.0007683379199999999,0.00033167100000000007,0.0019695644,-0.0007477434000000001,4.426,0,0
-0.0003157036,5.208992000000002e-05,0.0001023596,0.00177011,-0.0005135360000000001,4.427,0,0
-0.000180846,6.355719999999985e-06,0.00022946299999999998,0.0021322300000000006,6.330719999999998e-05,4.428,0,0
-0.00030646379999999993,-1.1559480000000002e-05,-6.719600000000016e-06,0.0011837304,4.338000000000432e-07,4.429,0,0
-0.0006721056,-0.00026845948,-0.00026857780000000004,-0.00011050360000000012,0.0002239766,4.43,0,0
-0.0005117446,-8.022859999999999e-05,-0.00015793540000000003,0.0001887764,0.0008960845999999999,4.431,0,0
-0.0003962906000000001,0.0002935318,-0.00013387620000000002,0.00028311579999999996,0.0005594154,4.432,0,0
-0.00048392660000000007,0.00011444019999999998,-0.00026792300000000004,-0.0004556922,0.00011207559999999996,4.433,0,0
3.834739999999991e-05,8.533579999999997e-05,-0.00012808779999999998,-0.00046642739999999997,0.0003248408,4.434,0,0
0.0007287274,1.447079999999999e-05,0.00016775680000000003,-0.0002452316,0.00013087599999999993,4.435,0,0
0.0007290395999999999,-0.0005434032000000001,0.00023978000000000004,-0.0014322096,-0.000701398,4.436,0,0
0.0007480108,-0.0006049002000000001,9.420660000000003e-05,-0.002203357,-0.0006295986,4.437,0,0
0.0010970812,-0.00021491980000000005,0.0003870674000000001,-0.0016110570000000002,-0.00046758499999999996,4.438,0,0
0.0008184402,-0.00021761680000000007,0.00048071880000000004,-0.0016726994,-0.0008478544,4.439,0,0
0.00047713500000000006,-0.00038337780000000007,0.00024833980000000004,-0.0016196568000000002,-0.00021076839999999999,4.44,0,0
0.0005691794,-0.0002131092,0.0003933946,-0.00041438079999999984,0.0007554076,4.441,0,0
0.0005729172,9.518140000000004e-05,0.00033924300000000003,0.0005025012000000001,0.0008447948,4.442,0,0
0.00037708420000000004,0.00017479940000000003,-9.828000000000001e-05,0.0006531686000000002,0.0007837386000000001,4.443,0,0
0.00027758000000000004,0.00023758880000000003,-0.0003742962,0.0012312398000000001,0.001160942,4.444,0,0
6.116920000000004e-05,0.0008343908,-0.0005483212,0.0018079634,0.0008933806,4.445,0,0
-0.0004046284,0.0012854062,-0.0009542632,0.0011398702,0.0002069332,4.446,0,0
-0.0005245304,0.0008739622,-0.0010309496,0.0007867250000000001,0.00040446739999999996,4.447,0,0
-0.0008477194000000001,0.0006140214000000001,-0.0007368142000000001,0.0008050016000000001,0.00037876990000000003,4.448,0,0
-0.0014976902,0.0009113532000000002,-0.0006017146,-0.00024740639999999996,-0.0005768181000000001,4.449,0,0
-0.0014137636,0.0008294912,-0.0006692525999999999,-0.0011658844,-0.0008343883,4.45,0,0
-0.0005023476,0.0006171180000000002,-0.00044649220000000006,-0.0009498810000000001,-0.0005586543,4.451,0,0
-5.973339999999999e-05,0.0006126980000000001,0.00019955740000000003,-0.0011635998,-0.0011949889,4.452,0,0
-3.454679999999999e-05,0.00013752680000000012,0.00073762,-0.0019279878,-0.0013768542,4.453,0,0
0.0005776136,-0.0005026492,0.0012133824000000002,-0.001231899,-0.00030858620000000003,4.454,0,0
0.0008906730000000002,-0.0007725832,0.0020006744,-0.0004888890000000001,0.00012007339999999997,4.455,0,0
0.00038454700000000006,-0.0007303134,0.002472008,-0.000739995,-0.00018394499999999997,4.456,0,0
0.00044653900000000003,-0.000580554438,0.0019421514,6.764299999999999e-05,0.000213503,4.457,0,0
0.0012116064000000002,-0.000405776438,0.0012425626,0.001490015,0.0002876794,4.458,0,0
0.0013775780000000002,-0.00033008103800000004,0.0008311686,0.0018481622,-0.0005185486,4.459,0,0
0.00120038,-0.000593427038,3.735259999999998e-05,0.0018461042000000002,-0.0007108638000000001,4.46,0,0
0.0011911278,-0.0009700576380000001,-0.0005798280000000001,0.0024602919999999998,-0.00040941100000000004,4.461,0,0
0.0008787208000000001,-0.0013678366,-0.0005904710000000001,0.002540752,-0.0004032058,4.462,0,0
0.0003858034000000001,-0.0014005446,-0.0008626682000000001,0.0017887202,-0.0002637916,4.463,0,0
0.00023629900000000004,-0.0010794412,-0.0009889788,0.0016645762,0.000335438,4.464,0,0
8.224220000000002e-05,-0.0006796062,-0.0006420852,0.0016174642000000002,0.00038592140000000004,4.465,0,0
-0.00028267760000000005,-0.0001385401999999999,-0.0006311610000000001,0.0007992582,0.00011441940000000002,4.466,0,0
-0.0005365086,0.0005567018,-0.0005561289999999999,0.0003064368,0.00018873688,4.467,0,0
-0.0004592488,0.0013396098000000001,9.731099999999999e-05,0.00026834280000000003,0.00023319008,4.468,0,0
-0.0006490298,0.0016222330000000003,0.00045593360000000004,-0.0009007952,8.801388e-05,4.469,0,0
-0.0010996130000000002,0.0016188824000000002,0.00047534560000000005,-0.0022136131999999998,-1.4713840000000013e-05,4.47,0,0
-0.0007741244,0.0015678544000000004,0.0005367282000000002,-0.0020399998,0.00045816716,4.471,0,0
-0.0004529944,0.0011192352000000002,0.0003031598000000001,-0.0023372604,0.00053637968,4.472,0,0
-0.0007380142,0.00013072719999999998,0.00011093600000000005,-0.0028049146,-0.00011169492000000003,4.473,0,0
-0.00037620479999999994,-0.0008337088,-5.6614799999999985e-05,-0.0013109066000000001,-9.976412000000005e-05,4.474,0,0
0.0006445012000000001,-0.0013953412,-0.00026034319999999997,0.0005054934000000001,0.00032252340000000004,4.475,0,0
0.0008049818000000001,-0.0021902692,-0.00020138111999999997,0.0009261200000000002,6.627400000000004e-05,4.476,0,0
0.0004569878000000001,-0.002405396,-8.750032e-05,0.0013716080000000003,0.00011632440000000003,4.477,0,0
0.000591814634,-0.0018982298,-1.681751999999998e-05,0.0021184140000000003,0.0007354916000000001,4.478,0,0
0.0003550354340000001,-0.0017955518,-0.00011639751999999999,0.0013748656000000003,0.00041533540000000005,4.479,0,0
-0.00016517456600000004,-0.0018694178000000002,-0.00041477471999999997,0.00025699360000000005,-0.0001853616,4.48,0,0
-6.075156600000002e-05,-0.0016414278,-0.000722171,0.00033582960000000004,-0.0001060584,4.481,0,0
0.000103108034,-0.00127308758,-0.0007014861999999999,9.627600000000002e-05,-4.891960000000001e-05,4.482,0,0
2.347339999999997e-05,-0.00107779778,-0.0007445698,-0.00057377,0.0001296272,4.483,0,0
0.00011536399999999999,-0.00031211978000000005,-0.0009568950000000001,-0.00020704960000000002,0.0005498966,4.484,0,0
-0.00018261200000000002,0.0008322382200000001,-0.0007308408000000001,-0.00022704360000000003,0.0005769808,4.485,0,0
-0.0009389482000000001,0.0017304962200000002,-0.0002457358,-0.0014011536,0.00026590679999999995,4.486,0,0
-0.0009439404,0.00211306,-9.390180000000008e-05,-0.001600054,-0.0002193596000000001,4.487,0,0
-0.0006806303999999999,0.0017293468,-0.00019448320000000006,-0.001001546,-0.0006298494,4.488,0,0
-0.0007446594,0.0012438314,0.00019569839999999998,-0.0014633280000000003,-0.00091834,4.489,0,0
-0.0003246181999999999,0.0006421789999999999,0.0003926399,-0.0014263700000000002,-0.0008526562000000001,4.49,0,0
0.00028881260000000004,0.0002085196,0.0003076141,2.5492000000000006e-05,-0.000493594,4.491,0,0
0.0005542216000000001,0.0001544116,0.0005950565,0.0002949346,-0.00039321860000000007,4.492,0,0
0.0007096748,0.0005526448,0.0006347537000000001,-0.00021076540000000005,-0.0004593608000000001,4.493,0,0
0.0010153864,0.0014766722000000001,0.0002037581,0.0003961186000000001,-0.0005631236,4.494,0,0
0.0010075262,0.0019215626000000003,-0.0001448676,0.0011687846000000002,-0.0007843906,4.495,0,0
0.0003463334,0.0011071040000000002,-0.00021627580000000004,0.000642559,-0.0013260086,4.496,0,0
-0.0002320950000000001,0.00010874600000000017,-0.00037400180000000006,0.0007116080000000001,-0.00112078332,4.497,0,0
-0.000589991,-0.00023415460000000002,-0.00030577160000000013,0.0016139280000000002,-0.0004799133199999999,4.498,0,0
-0.001314885,-0.0011164468,5.960399999999968e-06,0.0013182992,-0.00044421732000000003,4.499,0,0
-0.0017649739999999999,-0.0016015627999999998,6.184239999999991e-05,0.0010611876,-4.5423920000000026e-05,4.5,0,0
-0.0010111058,-0.0006270148,-0.00011416540000000006,0.0010338272,0.0006502760800000001,4.501,0,0
-0.00030200980000000006,0.00028604119999999997,-0.0003807928000000001,0.00018713759999999997,0.0008145620000000001,4.502,0,0
-0.00019204720000000008,0.0005978478,-0.0006873662000000001,-0.0010436324,0.0007999020000000001,4.503,0,0
0.000288105,0.000707522,-0.0007487114000000001,-0.0013069796000000002,0.0016546800000000002,4.504,0,0
0.00042786500000000015,0.000491736,-0.00046796508000000004,-0.001862664,0.0022008986,4.505,0,0
-1.9199199999999923e-05,5.445119999999997e-05,-0.0005938262800000001,-0.0028330580000000003,0.0021811286000000003,4.506,0,0
-0.000384051,-0.00019296080000000002,-0.00093728088,-0.0023648420000000002,0.0027851300000000002,4.507,0,0
-0.0005210776,-0.00030175540000000004,-0.00093828288,-0.0017517196600000003,0.0030118280000000002,4.508,0,0
-0.0009101398,-0.00029242704000000005,-0.00098354928,-0.00154361786,0.0022379372,4.509,0,0
-0.0009705078000000001,-0.00017968984000000003,-0.0010701464,-0.00080494186,0.0014874,4.51,0,0
-0.0004092998,0.00015098696,-0.0007551033999999999,0.00038624414,0.0013571366,4.511,0,0
-0.00033459900000000004,0.00027285476,0.0001235446000000001,0.00077400714,0.0005562653999999999,4.512,0,0
-0.00017097300000000005,3.8725760000000005e-05,0.0008852346,0.0005888666,-0.0001828346,4.513,0,0
0.0005110589999999999,0.00012925140000000001,0.0012720282,0.0010709128,0.00018489020000000001,4.514,0,0
0.0009677338,0.00038194800000000006,0.001736231,0.0014285148,0.0003059498,4.515,0,0
0.0007395850000000001,0.00045113400000000006,0.0017935792,0.0011811432600000002,9.409880000000003e-05,4.516,0,0
0.000871391,0.0004968574,0.0011628884,0.00138417826,0.00028728360000000004,4.517,0,0
0.001208055,0.000634085,0.0006311966,0.0016603174600000002,0.00039266100000000004,4.518,0,0
0.0009966774,0.0004466882,0.0002491926,0.0005503154599999999,-1.5326399999999996e-05,4.519,0,0
0.0007875156000000001,0.0001792416,-9.056239999999999e-05,-0.0009836625400000002,-0.00015041200000000005,4.52,0,0
0.000589777,-0.00018987660000000002,-6.539399999999998e-05,-0.0016675770000000004,-0.00042851560000000007,4.521,0,0
0.0005378502,-0.0008727618000000001,0.00025189980000000004,-0.0023662550000000003,-0.0013315372000000001,4.522,0,0
0.00027877900000000005,-0.0014554038,0.0005412056,-0.0023923228,-0.0020602226,4.523,0,0
0.0003813406000000001,-0.0017307330000000001,0.0007512088,-0.0011144407999999998,-0.0023065392,4.524,0,0
0.0007268816000000001,-0.0018415082,0.0008748258,-3.3724800000000115e-05,-0.0025329360000000004,4.525,0,0
0.0006102990000000001,-0.0017873534000000001,0.0006695456000000001,0.0004438616,-0.002789884,4.526,0,0
0.0007563748000000001,-0.0008959254,0.0004987746000000001,0.0011136936,-0.0025078680000000003,4.527,0,0
0.0006979174000000001,7.187859999999998e-05,0.000335446,0.0017055284000000001,-0.002146024,4.528,0,0
-7.025459999999994e-05,0.00040901900000000005,8.57578e-05,0.0013051144000000002,-0.0021828340000000002,4.529,0,0
-0.0006654706,0.0007462250000000001,-0.00012959440000000002,0.0012283378000000002,-0.001596348,4.53,0,0
-0.0005547116,0.0013555364000000002,-0.00011306920000000003,0.0020290774,-0.00048622999999999993,4.531,0,0
-0.0010662436,0.0014792564000000001,1.6358399999999982e-05,0.0018411282,-6.115999999999984e-05,4.532,0,0
-0.0017486389999999997,0.0011542236,-9.87060000000004e-06,0.001195876,0.0006598100000000001,4.533,0,0
-0.0015705210000000003,0.0014600012000000001,0.000292963,0.0014175120000000001,0.0015728520000000002,4.534,0,0
-0.0014212034000000001,0.0017009352,0.0006182372000000001,0.00125669952,0.0012751614,4.535,0,0
-0.0015047844000000002,0.001232677,0.000489052,0.00022908952,0.0006955548000000001,4.536,0,0
-0.0012992612,0.0005820966,8.221439999999997e-05,-0.00036055928000000006,0.0006114910000000001,4.537,0,0
-0.00036063519999999995,0.00025264340000000007,-0.00018759300000000006,-0.0007392190800000001,0.0002490014000000001,4.538,0,0
0.0002819488,-8.476799999999999e-05,-0.00044154440000000007,-0.00196740308,-0.0004392786000000001,4.539,0,0
0.0008512252,-0.000490648,-0.0009897544000000002,-0.002680468,-0.001008432,4.54,0,0
0.0019338352000000001,-0.0005006990000000001,-0.0011123358000000002,-0.002168783,-0.0016487414000000001,4.541,0,0
0.002279028,-0.0005733045999999999,-0.0007262002,-0.00182052,-0.0021710696,4.542,0,0
0.0019259516,-0.0007250166,-0.0005499644,-0.0016237516,-0.002699196,4.543,0,0
0.0019027456,-0.0008012758,-0.00035017740000000005,-0.00047042760000000003,-0.0027843060000000003,4.544,0,0
0.0013530122,-0.0010276878,-4.0025400000000025e-05,0.0009230864000000001,-0.0019545180000000006,4.545,0,0
-2.2771799999999937e-05,-0.0011751052000000001,-7.62394e-05,0.0011503874000000002,-0.0011923804000000002,4.546,0,0
-0.0005411758,-0.0007052631999999999,-0.0002913658,0.0017547764000000001,-0.00010828840000000009,4.547,0,0
-0.0006085188,0.00017661880000000002,-1.711659999999995e-05,0.0027560960000000004,0.0015690576,4.548,0,0
-0.0011822628,0.0008219814,2.8855200000000035e-05,0.0024910074,0.0024989996,4.549,0,0
-0.001121918,0.0011673,-0.00021786679999999997,0.0017925994000000003,0.0033031735999999997,4.55,0,0
-0.000372384,0.0011813753999999998,0.0003588512,0.0014943686000000002,0.004250442,4.551,0,0
-0.000332845,0.0008534358,0.0008121580000000001,0.0006217586000000002,0.003756042,4.552,0,0
-0.00031619360000000003,0.00033958359999999995,0.0005242258599999999,-0.0009427754,0.00269396,4.553,0,0
0.00010224699999999997,3.9925599999999996e-05,0.00026185486,-0.0015165068000000002,0.002067996,4.554,0,0
0.0001942788,-8.786839999999993e-06,0.0003541978600000001,-0.0018241828000000002,0.0004894360000000001,4.555,0,0
0.0001235814,2.1503600000000232e-06,8.029145999999997e-05,-0.002365746,-0.0015073460000000001,4.556,0,0
0.00017775540000000004,0.00018121776000000004,-0.00037872294000000005,-0.001656888,-0.002284798,4.557,0,0
0.0004545654,0.00011701636000000002,-0.00021492960000000003,-0.0003949420000000001,-0.0030794,4.558,0,0
0.0007465048000000001,-0.00017296704,0.00036537340000000003,0.00012988680000000007,-0.00391589,4.559,0,0
0.0008525064000000002,-0.0002298882,0.0008560364,0.0008823428000000001,-0.003662344,4.56,0,0
0.0009646518000000001,-0.00025110020000000005,0.0010346342,0.0020180988,-0.003067112,4.561,0,0
0.0012189708,-0.00041927060000000006,0.0009580804000000001,0.0020138668000000003,-0.00247816,4.562,0,0
0.0007781244000000002,-0.00035780760000000007,0.0005019092000000001,0.0012284608,-0.001235776,4.563,0,0
0.0001910318000000001,-0.00013780940000000005,-1.1211399999999986e-05,0.0011612928000000002,0.00089003,4.564,0,0
0.00024905900000000004,5.244039999999998e-05,-0.00039311340000000003,0.0010387648,0.002712776,4.565,0,0
4.86584e-05,0.0004155364,-0.0006267612,-1.9211200000000003e-05,0.0043377680000000005,4.566,0,0
-0.00017647179999999999,0.000873767,-0.0005260344,-0.0006560492,0.005787818,4.567,0,0
-0.00020299740000000004,0.0011780216,-0.000322113,-0.0005381708,0.005804258000000001,4.568,0,0
-0.00042421479999999996,0.0013241428,-0.0005461784,-0.0009748656000000001,0.004631507400000001,4.569,0,0
-0.0010141068,0.0009936376000000001,-0.0008149544,-0.0020358796,0.0031842624000000003,4.57,0,0
-0.0013994762,-0.0005509224,-0.0005345402,-0.0019635536,0.0018023578000000004,4.571,0,0
-0.001515646,-0.0021533784,-0.00037718119999999994,-0.0018261290000000001,0.00016484380000000002,4.572,0,0
-0.00151772,-0.0031025864,-0.0007249006000000001,-0.0019143794,-0.0007803202,4.573,0,0
-0.000757862,-0.0036571964000000003,-0.0007878466,-0.0004653354,-0.0012304456000000001,4.574,0,0
-0.00011416199999999995,-0.0032044580000000003,-0.0007155926000000001,0.0008337506,-0.0020966006000000003,4.575,0,0
-0.00018016599999999994,-0.0019622100000000003,-0.0012828084,0.0009258565999999998,-0.002649306,4.576,0,0
-0.00012827139999999995,-0.0008837648,-0.00176195,0.0012828428,-0.002556712,4.577,0,0
0.00017691700000000012,-0.000342913,-0.0014524382000000002,0.0018446708,-0.0021194337000000002,4.578,0,0
-0.000497297,-4.560119999999999e-05,-0.0010296344,0.0007005638,-0.0021892077,4.579,0,0
-0.001050055,-0.000214189,-0.0007677152,-0.0003663602,-0.0015135692999999999,4.58,0,0
-0.000347411,-7.276499999999999e-05,5.2172800000000017e-05,-5.1544999999999995e-05,-0.00016258130000000007,4.581,0,0
-8.584599999999996e-05,0.00041113780000000006,0.0011648208,-0.00044460180000000004,0.0004475087,4.582,0,0
-0.0004099084000000001,0.0007434868000000001,0.001924209,-0.0012054078000000002,0.0010976724,4.583,0,0
-0.00022047520000000005,0.001236545,0.0027654852000000003,-0.0010139438,0.0019347444,4.584,0,0
0.00030519680000000004,0.0015909928000000001,0.0037197080000000004,-0.000527454,0.002043884,4.585,0,0
6.892620000000001e-05,0.0018163108,0.0038155240000000003,-0.0008789252000000001,0.0013659231800000002,4.586,0,0
-4.626159999999996e-05,0.0021038467999999998,0.0030949862,-0.0009966052,0.0009238201799999999,4.587,0,0
0.0003946184000000001,0.002458798,0.0016042182000000002,-0.0006198642000000001,0.00019455077999999996,4.588,0,0
0.00037869540000000016,0.00219941,-0.0013836757999999998,-0.0007996100000000001,-0.00057239322,4.589,0,0
0.00010705480000000006,0.0018910508,-0.005357175800000001,-0.0006850870000000002,-0.00067905282,4.59,0,0
0.0002469784000000001,0.0014582442,-0.007013243800000001,6.023699999999993e-05,-0.00047701800000000006,4.591,0,0
0.00029782280000000005,0.00028162020000000007,-0.004901736,0.0005597746,-0.00040995220000000006,4.592,0,0
-0.0001285012,-0.0010806698,-0.0023639060000000007,0.0009374396,-0.0006684248,4.593,0,0
7.206520000000002e-05,-0.0022727638,0.0002952479999999997,0.0016739584,-0.0004490868,4.594,0,0
0.00013002480000000002,-0.0028616746,0.0038219100000000004,0.0018454976000000002,-0.0005843252,4.595,0,0
-0.0005218262,-0.0028432094000000003,0.004856474600000001,0.0008302016000000001,-0.0011529552,4.596,0,0
-0.0007055124000000001,-0.0021334896000000003,0.0025711826000000006,0.00014498400000000002,-0.0009470840000000001,4.597,0,0
-0.0004928560000000001,-0.0011361244000000002,0.0005751306000000002,-8.131119999999994e-05,-0.000637192,4.598,0,0
-0.0009787166000000001,-6.713259999999998e-05,-0.00033666139999999995,-0.0008783654,-0.0007059236,4.599,0,0
-0.0013091136,0.0007250074000000001,-0.0011701674,-0.0011598374,-0.0002751088,4.6,0,0
-0.0007493808,0.0009318396,-0.0013812,-0.00039278139999999995,0.00031025720000000005,4.601,0,0
-0.0006352206,0.0006872858,-0.00139959,-0.00015503140000000003,7.309380000000004e-05,4.602,0,0
-0.0005782527999999999,0.00025161860000000004,-0.0012479348,-0.0007107622,1.4915000000000043e-05,4.603,0,0
-0.0001874268,7.598840000000003e-05,-0.0009668786000000001,-0.0004463714,0.00043317660000000006,4.604,0,0
0.0001587276,-0.0002274596,-0.0005556980000000002,0.00011333459999999997,0.0004973718,4.605,0,0
0.0002312054,-0.0003904672,3.5159999999999955e-05,5.6752400000000057e-05,0.0005248958000000001,4.606,0,0
0.0004134664,-0.0001896336,0.00016514440000000002,0.0008087464000000001,0.0010136852,4.607,0,0
0.0010096642,-3.199399999999995e-06,0.0005245012,0.0021574924,0.001357832,4.608,0,0
0.0014490782,-0.0001236594,0.0011626870000000001,0.0022259846,0.00133946,4.609,0,0
0.0016293117999999999,-0.00024294920000000002,0.001196664,0.0016613860000000002,0.001462742,4.61,0,0
0.0016909792,-8.542780000000001e-05,0.0010668054,0.0018385462,0.0013093801999999998,4.611,0,0
0.0016044890000000002,-6.180300000000003e-05,0.0013123231999999999,0.0012199326000000002,0.0007352562,4.612,0,0
0.0008590262,0.0003305568,0.0010029370000000002,-0.00043008740000000014,0.00013120220000000004,4.613,0,0
5.274419999999998e-05,0.0011359372000000001,-9.5335e-05,-0.0007132352000000001,-0.0006098218,4.614,0,0
-0.00031673780000000004,0.0016358850000000001,-0.0006016926,-0.0007668944000000001,-0.0017279658,4.615,0,0
-0.00045948380000000006,0.0016504190000000002,-0.000658213,-0.0018867304000000002,-0.0026717980000000004,4.616,0,0
-0.000561252,0.0016081592000000001,-0.0006218362,-0.0020149568000000003,-0.0031310280000000005,4.617,0,0
-0.00041363860000000007,0.0014203590000000004,-0.00018409000000000003,-0.0015182448,-0.003239028,4.618,0,0
2.554360000000001e-05,0.0007012390000000001,0.0004715184,-0.0020134678,-0.002915836,4.619,0,0
0.00013565540000000002,3.080999999999939e-06,0.0009100786,-0.002275436,-0.001860108,4.62,0,0
0.00020201920000000002,-0.00031478880000000004,0.0007567292000000001,-0.001702356,-0.000327294,4.621,0,0
0.00027009874,-0.0005386842000000001,0.0006300930000000001,-0.001702098,0.0006709680000000001,4.622,0,0
0.00026705374000000003,-0.0006466019600000001,0.0003734184,-0.0014066122,0.0013826340000000002,4.623,0,0
0.00070522754,-0.0003909969600000001,5.3709600000000025e-05,-0.00011490019999999988,0.00218027,4.624,0,0
0.00109328974,0.00016443103999999996,3.732900000000001e-05,0.0007519598,0.002206954,4.625,0,0
0.00076726774,0.0008252402400000001,-5.2312799999999985e-05,0.0015430778000000002,0.0014828062000000002,4.626,0,0
0.0007385934,0.00094325104,-6.26402e-05,0.0027924998,0.0011714798,4.627,0,0
0.0008825838,0.000382373,2.605999999999995e-06,0.00333478,0.0007104031999999999,4.628,0,0
0.0004545056,-0.0006372020000000002,0.0001429744,0.0026809331999999996,-0.0003021988,4.629,0,0
0.0001515974,-0.0017199180000000004,3.26188e-05,0.0020901358,-0.0009238528,4.63,0,0
0.000377968,-0.0024003320000000002,-0.000324031,0.0015996712,-0.001188885,4.631,0,0
0.000326643,-0.0024274112000000005,-0.0007656904,0.00024354719999999995,-0.0013842782000000001,4.632,0,0
-0.00029766699999999994,-0.0017039024000000003,-0.0008560474000000001,-0.0009881568,-0.0014551476000000002,4.633,0,0
-0.0005128022,-0.0005873024000000002,0.0001523046,-0.0013070820000000002,-0.0014479236,4.634,0,0
-0.000348166,0.0008051156000000001,0.0018761926000000003,-0.0016448386,-0.0014488576000000002,4.635,0,0
-0.00022345280000000002,0.0021967236,0.0036578006000000003,-0.0022651700000000004,-0.0011784924,4.636,0,0
0.00023317820000000008,0.0037066808000000002,0.004663262600000001,-0.0020238076,-0.0006722828,4.637,0,0
0.0011476502000000001,0.005091152000000001,0.004463405800000001,-0.0011241216,5.047719999999996e-05,4.638,0,0
0.0016641956,0.006029070000000001,0.0018036638000000005,-0.0007258020000000001,0.0010925252,4.639,0,0
0.0014480116,0.0059399660000000005,-0.0022723841999999998,-1.420000000000132e-07,0.0022423032,4.64,0,0
0.0011556490000000001,0.003940504000000001,-0.0032572902,0.001184778,0.0030816180000000004,4.641,0,0
0.0005043929999999999,0.0013853860000000004,-0.0031461602000000003,0.0015526196,0.003357168,4.642,0,0
-0.000980243,-0.0010101900000000002,-0.00452219,0.0015198016,0.0035335420000000006,4.643,0,0
-0.0024954090000000005,-0.003968464,-0.00308781,0.0018863580000000003,0.0034188520000000004,4.644,0,0
-0.0033306350000000006,-0.006385254,3.851799999999997e-05,0.0017852960000000002,0.00255322,4.645,0,0
-0.003451362000000001,-0.006852078,-0.0001767834,0.000715954,0.0012880100000000002,4.646,0,0
-0.0028522260000000002,-0.0062282299999999995,-0.0010470128000000002,0.00022142,0.00037852599999999985,4.647,0,0
-0.001570182,-0.0055198966,6.704719999999994e-05,0.00028745400000000003,-0.0005474640000000001,4.648,0,0
-0.0003801196,-0.0039590422,-9.335679999999995e-05,-0.00038047860000000005,-0.002015052,4.649,0,0
0.00021120040000000007,-0.0019252632000000003,-0.0012656628000000001,-0.0008513545999999999,-0.002790868,4.65,0,0
0.0005240460000000001,-0.0004839676,-0.0014525628000000002,-0.00042835919999999997,-0.0026527879999999997,4.651,0,0
4.014880000000005e-05,-5.891619999999999e-05,-0.001203047,-0.0005785452,-0.002861854,4.652,0,0
-0.0008935312,-0.00045598559999999994,-0.0007845045000000001,-0.0012352052000000001,-0.0031345139999999997,4.653,0,0
-0.001051592,-0.0007354600000000001,-0.0002669555000000001,-0.0010803446,-0.002144375,4.654,0,0
-0.0007467947999999999,-0.0009371852,0.0007862965,-0.00082287986,-0.0008893530000000001,4.655,0,0
-0.0007286435999999999,-0.0007185108,0.0014654798999999999,-0.00072581066,-0.00011462499999999982,4.656,0,0
-0.0003534504,-0.00011128019999999991,0.0014931719,-4.074660000000035e-06,0.0011860330000000002,4.657,0,0
0.0005576676,0.0009467458,0.0018985133999999998,0.00068836534,0.002277751,4.658,0,0
0.0007211362,0.0022425658,0.0021241464,0.0007070830000000001,0.0023690382,4.659,0,0
0.0007399932,0.0027638999999999997,0.0016675806,0.00084119706,0.0020331512,4.66,0,0
0.0012710564000000001,0.002878414,0.0010275508000000002,0.00126107446,0.0014228714000000002,4.661,0,0
0.0014800404,0.002724682,0.0006143224000000002,0.00113106826,0.0005316542000000001,4.662,0,0
0.001276403,0.0023026114,-0.0004234456,0.0005639922600000002,8.249399999999986e-06,4.663,0,0
0.0013017673999999998,0.0017823974,-0.0024284716,0.0007958225999999999,-0.00024273600000000002,4.664,0,0
0.0015317631999999999,0.0015632274,-0.004382791800000001,0.0006088736000000001,-0.000822633,4.665,0,0
0.00090769572,0.0012939174,-0.005992076,-0.0007747764000000002,-0.0012000212,4.666,0,0
0.0002639877200000001,0.0007413810000000002,-0.007047792000000001,-0.0011033998000000002,-0.0012777786,4.667,0,0
0.00012784652000000005,0.00040110359999999997,-0.007040724000000001,-0.0006936420000000002,-0.0015292478000000001,4.668,0,0
-0.00032431808,7.68076e-05,-0.005306620400000002,-0.001301316,-0.0017054246000000003,4.669,0,0
-0.00099324808,-0.0005788384000000001,-0.0008444884000000001,-0.0018818538,-0.0013230142,4.67,0,0
-0.0013736886,-0.0012982004,0.0044793476,-0.0009552864000000001,-0.0005139922000000001,4.671,0,0
-0.0014223226000000002,-0.0016300440000000002,0.0076353736,-0.0006618430000000001,6.851839999999992e-05,4.672,0,0
-0.001435659,-0.001728186,0.0089799356,-0.0013459448000000002,0.0007167104,4.673,0,0
-0.0009240203999999999,-0.001303942,0.009019106800000001,-0.0005164587999999999,0.0016053864,4.674,0,0
-0.00028743839999999986,-0.0005069320000000001,0.0062536028,0.0008283832000000001,0.0021526040000000002,4.675,0,0
0.0001619842,5.075240000000001e-05,0.0024689131999999997,0.0010020318,0.002211092,4.676,0,0
0.0006393642,0.0005291646,0.0008842692000000001,0.00127129,0.002072856,4.677,0,0
0.0007276620999999999,0.0010465318000000001,0.0006595752,0.0020438440000000004,0.001698,4.678,0,0
0.0004187533000000001,0.0008672318,0.0007610004,0.0014430930000000003,0.0007078100000000001,4.679,0,0
0.00019806710000000002,0.00022652980000000005,0.0012220704,0.0005475872000000001,-0.00014500199999999998,4.68,0,0
0.00024806510000000004,-9.946459999999994e-05,0.001613644,0.0004016596,-0.0004474956,4.681,0,0
0.0002960291,-0.0001871558,0.001679096,-0.0003356724,-0.0011656536,4.682,0,0
0.0006189202000000001,-0.00032937740000000003,0.0010936604000000001,-0.0008256063999999999,-0.0019033456,4.683,0,0
0.0012281544,-0.00012754139999999998,-0.0003933036000000001,-0.0005703969999999999,-0.0019088396000000003,4.684,0,0
0.0014379906,0.0006144206000000001,-0.0022612616000000003,-0.0005659503999999999,-0.0022552396000000002,4.685,0,0
0.00108018,0.0005031586,-0.0041877036,-0.0009955228,-0.0027854480000000003,4.686,1,1
0.000736316,-4.4568400000000066e-05,-0.0061349076,-0.0010887588,-0.002148924,4.687,0,0
0.00034464479999999996,-0.00015761680000000002,-0.006772358000000001,-0.0008816276,-0.0011074880000000002,4.688,0,0
-0.0004588312,-0.00023895680000000002,-0.0054858812,-0.0011647622000000002,-0.0005130400000000001,4.689,0,0
-0.0006866606000000001,-5.7728799999999894e-05,-0.0045284952000000005,-0.0009490944000000002,0.00043466200000000005,4.69,0,0
-7.298860000000006e-05,0.0010550812,-0.0035500092000000007,3.356559999999993e-05,0.0014892500000000001,4.691,0,0
-2.9983800000000026e-05,0.0024039512,-0.0017091354000000002,0.0005517582,0.0019255639999999998,4.692,0,0
-0.00039499860000000007,0.0024502216,-0.0031940194000000003,0.0004811022000000001,0.00227934,4.693,0,0
7.185119999999997e-05,0.0016410436,-0.0075876142,0.0006540592600000001,0.0025402420000000003,4.694,0,0
0.0004140906,0.0008868142000000002,-0.0115610682,0.0006359472599999999,0.0020734900000000003,4.695,0,0
-1.1095800000000071e-05,-4.9249800000000045e-05,-0.0106871956,-0.00032646074,0.0010904099999999998,4.696,0,0
0.00019540579999999995,-0.0011230938000000002,-0.003378239399999999,-0.0005112091400000001,0.0002830885999999999,4.697,0,0
0.0008388558,-0.0018551714000000002,0.004836860600000002,6.924165999999996e-05,-0.0005494352000000001,4.698,0,0
0.0002691939999999999,-0.0029467234,0.013176980600000002,-0.00016412920000000001,-0.0014707772,4.699,0,0
-0.000923374,-0.004124096000000001,0.021069380600000003,-0.00030239260000000006,-0.0017370812,4.7,0,0
-0.0012718496,-0.0042151720000000005,0.021834468000000003,0.0005414473999999999,-0.0016430811999999999,4.701,0,0
-0.0013922428,-0.0039482038,0.0144569142,0.00083825,-0.0017785957999999998,4.702,0,0
-0.0017373064,-0.0034567697999999996,0.0074674882,-0.00010318400000000009,-0.0018204654,4.703,0,0
-0.0015130624,-0.0017515918,0.002705382200000001,-2.662520000000005e-05,-0.0014486444,4.704,0,0
-0.0005857251999999999,0.00018402620000000007,-0.0009117537999999999,0.00029303559999999996,-0.0010465080000000002,4.705,0,0
-0.00012923699999999998,0.0014856502,-0.0018807018,-0.0005237024,-0.00044068,4.706,0,0
-0.00043160019999999993,0.002670502,-0.0020886112,-4.0703199999999966e-05,0.000656022,4.707,0,0
-0.0004987106000000001,0.0027476806000000004,-0.0016030512000000002,0.0015382068000000001,0.0013372894000000003,4.708,0,0
-0.0005678986,0.0013573886,-0.0011550472,0.0018809612,0.0015890072,4.709,0,0
-0.0005526138,0.00017464659999999954,-0.0011399712,0.0019007532000000003,0.0020540488000000004,4.71,0,0
-0.00024100200000000003,-0.0007610720000000002,-0.0008327032,0.0024538772,0.0021458088,4.711,0,0
-3.399999999999943e-07,-0.0020115148000000005,-0.0007008830000000001,0.0017095428000000001,0.0012483174,4.712,0,0
0.000188464,-0.0015347634000000003,-0.0008738970000000001,0.00015028079999999998,0.0006555088,4.713,0,0
0.0004672973999999999,0.0007796966000000001,-0.001157561,-0.00021375839999999998,0.001070254,4.714,0,0
0.000455065,0.0029116806,-0.0015081450000000002,-0.0007037804000000001,0.0008832492,4.715,0,0
-0.0001279006,0.005550685200000001,-0.0017694038,-0.0018576564000000002,0.0001690992,4.716,0,0
-0.0003266406,0.009370482,-0.0011094788,-0.002058526,0.00020631280000000006,4.717,0,0
-0.000474405,0.011875224000000002,-0.00048678480000000004,-0.0019211700000000003,0.0001548958,4.718,0,0
-0.0010952724000000001,0.010350524000000002,-0.0013000668000000002,-0.0022872360000000002,-0.0006970522,4.719,0,0
-0.0014613719999999998,0.005325156,-0.0026690748000000003,-0.0021603244,-0.0011548574000000002,4.72,0,0
-0.0011569714000000003,-0.0010071839999999995,-0.005461404,-0.0011180413999999999,-0.0005027994000000001,4.721,0,0
-0.0008124386,-0.006459772000000001,-0.009414446,-0.00035934740000000007,6.7024000000000055e-06,4.722,0,0
-3.947819999999998e-05,-0.009897410000000002,-0.010281246,0.0004784026,0.00022156480000000008,4.723,0,0
0.0017534738,-0.010739790000000003,-0.005019558,0.0017424886000000001,0.0010862508,4.724,0,0
0.0030841658,-0.008486450000000001,0.004790654,0.0020671574,0.0016755288000000002,4.725,0,0
0.0038818468000000003,-0.005467514,0.014026654000000001,0.0016132924,0.0011809206000000002,4.726,0,0
0.0050428320000000006,-0.0040058820000000005,0.018762878,0.0011955548,0.00036453860000000007,4.727,0,0
0.00602978,-0.0028840120000000005,0.015582904000000002,0.0007854784000000002,-0.0004414181999999999,4.728,0,0
0.005457638,-0.0006750940000000004,0.003226343999999999,-0.00035960760000000006,-0.0020072942000000002,4.729,0,0
0.004102234000000001,0.0023857820000000004,-0.016101256,-0.0011681360000000002,-0.0035707362000000006,4.73,0,0
0.0030878066,0.006353046,-0.035374076000000004,-0.000802575,-0.00438554,4.731,0,0
0.0011742506000000002,0.009502442,-0.04143902000000001,-0.0010113148,-0.005085914,4.732,0,0
-0.0019917874,0.009051272400000001,-0.028154119999999998,-0.0013893224000000003,-0.005008856000000001,4.733,0,0
-0.0048030594,0.0068294104,-0.005757919999999998,-0.0007179044,-0.003736760000000001,4.734,0,0
-0.006052047400000001,0.0047127044,0.014210440000000001,-0.00010562240000000001,-0.0020086360000000003,4.735,0,0
-0.006758030000000001,0.0005344044000000003,0.028844228,-0.0001678558,-9.546400000000007e-05,4.736,0,0
-0.006164648,-0.0043880556,0.030549388000000004,-0.00012180240000000004,0.002058238,4.737,0,0
-0.003455332,-0.006105124,0.015715048000000002,-7.221800000000047e-06,0.0035153560000000003,4.738,0,0
-0.00021701000000000034,-0.006027908000000001,-0.005394352,-0.0006653578,0.003685626,4.739,0,0
0.002382286,-0.006829728000000001,-0.019597172000000003,-0.0008234630000000001,0.0038131080000000004,4.74,0,0
0.003884648,-0.007367654000000001,-0.0180061,-8.680600000000047e-06,0.004076238,4.741,0,0
0.0040597112,-0.0063944480000000005,-0.0037929200000000034,0.0006602953999999999,0.003908402,4.742,0,0
0.0021477632,-0.004898255400000001,0.012180660000000001,0.0014256168,0.0037737760000000004,4.743,0,0
-0.0002467888,-0.0027382974,0.0238943,0.0023483648,0.0038955160000000003,4.744,0,0
-0.0019053308,-0.00012909940000000006,0.028592160000000002,0.0027159140000000003,0.003669822,4.745,0,0
-0.0028135208,0.0016422246000000003,0.022254080000000002,0.0015891260000000004,0.002368822,4.746,0,0
-0.0030771832000000003,0.0033111086000000003,0.007644460000000004,0.0005903560000000002,0.0010452600000000001,4.747,0,0
-0.0026978212000000005,0.00444483,-0.00609756,0.000336972,0.00010972400000000001,4.748,0,0
-0.0013860916,0.003815254,-0.010849974,-0.0003568794000000001,-0.0010605560000000003,4.749,0,0
-0.0005929816,0.002478036,-0.006919214000000001,-0.00041378080000000015,-0.0018989220000000002,4.75,0,0
-4.758160000000009e-05,0.001813892,-0.0021428640000000004,0.00030767519999999994,-0.0020200260000000003,4.751,0,0
0.0003110336,0.0009853219999999998,0.0010147824,0.00028029320000000005,-0.0019517360000000001,4.752,0,0
0.0004240496000000001,0.0001775366,0.0036904783999999998,-0.00041636879999999997,-0.0019990880000000004,4.753,0,0
0.00032467220000000004,-0.000169518,0.0021818044,-0.00043477239999999996,-0.0018355580000000002,4.754,0,0
-0.00020697179999999997,-0.00137539,-0.0028016756000000006,-0.001051345,-0.00183514,4.755,0,0
-0.0008424718000000001,-0.0026755620000000003,-0.0042184076,-0.0022159750000000002,-0.0016885052000000004,4.756,0,0
-0.0011940818,-0.0028282880000000004,-0.003311724,-0.0018395990000000001,-0.0010001872,4.757,0,0
-0.0006884758000000001,-0.0022774186,-0.0038733920000000007,-0.000904827,-0.0009882812000000002,4.758,0,0
-0.0003464968,-0.00168429,-0.005000344000000001,-0.0007034488,-0.0015672412,4.759,0,0
-0.00014890120000000007,-0.0004448619999999997,-0.0045201980000000004,-0.0005687768,-0.0017213092000000001,4.76,0,0
0.0003560854,0.0015000420000000003,-0.0022247360000000006,0.0001014158,-0.0021528780000000004,4.761,0,0
0.000585791,0.0020105166,0.00034393399999999887,-0.00014161620000000002,-0.0029472800000000005,4.762,0,0
0.00023050279999999997,0.0007043626000000001,0.003031923999999999,-0.0015763642,-0.002891312,4.763,0,0
0.0003419736,-0.0003437814,0.005751612,-0.001728818,-0.0019825872,4.764,0,0
0.001173412,-0.0005683136,0.0061697919999999995,-0.0012522065999999998,-0.0016128692,4.765,0,0
0.0016858454,-0.00013651560000000002,0.0027429239999999994,-0.0017841011999999998,-0.0019202272000000001,4.766,0,0
0.0023610118,0.0013359738,-0.0025891380000000004,-0.0018627071999999998,-0.0021094852,4.767,0,0
0.00313227,0.0036271057999999997,-0.008317516,-0.0012418494,-0.002016521,4.768,0,0
0.0033477579999999997,0.0059907058,-0.012664544000000002,-0.0015448488000000002,-0.0015385298,4.769,0,0
0.003408426,0.00746606,-0.01623465,-0.0015724124000000002,-0.00021081179999999982,4.77,0,0
0.003763358,0.007636540000000001,-0.020285762000000002,0.0013974295999999997,0.0031070802000000004,4.771,0,0
0.00378536,0.006788324,-0.0216767,0.0053087956,0.0070702202,4.772,0,0
0.002709354,0.004881884,-0.018265122,0.0077589478,0.009714328,4.773,0,0
0.0006932020000000002,0.0020156139999999998,-0.010263982000000001,0.0093198958,0.010588672,4.774,0,0
-0.001948718,-0.00110362,0.002328697999999999,0.009028080999999999,0.008817726,4.775,0,0
-0.00511913,-0.004382064,0.015352058,0.005514103,0.004785965999999999,4.776,0,0
-0.007558822,-0.007176185999999999,0.023737638,0.0010682789999999997,0.0005593999999999998,4.777,0,0
-0.007862978,-0.008506974,0.02707828,-0.0016173150000000002,-0.0025420160000000002,4.778,0,0
-0.0062944204,-0.00875624,0.02459229,-0.003328633,-0.004585634,4.779,0,0
-0.0037432004,-0.008027972000000001,0.01670121,-0.003719804,-0.004352288,4.78,0,0
-0.0011779084,-0.006594264,0.007875886,-0.0026940866,-0.002721851,4.781,0,0
0.0008005436000000001,-0.005249084,0.002782445,-0.0025696826000000004,-0.002382991,4.782,0,0
0.0023051716,-0.004111938,0.0009605150000000001,-0.0032806746,-0.002354637,4.783,0,0
0.0027567679999999997,-0.0032181479999999997,0.000932855,-0.0032135126,-0.0017861130000000002,4.784,0,0
0.001740352,-0.0014700399999999997,0.001994757,-0.0029071926000000005,-0.0017652170000000001,4.785,0,0
0.000896782,0.0019032319999999997,0.0020120330000000003,-0.0033070820000000003,-0.002346884,4.786,0,0
0.0004486805999999998,0.004579826,0.0009183399999999999,-0.003297936,-0.0024590320000000003,4.787,0,0
-0.0005423674000000001,0.005812940000000001,-0.0005914220000000004,-0.0022421386,-0.0025327860000000004,4.788,0,0
-0.0014711014000000002,0.006438874,-0.002185016,-0.0020446466,-0.0029677040000000003,4.789,0,0
-0.001233289,0.0055452439999999995,-0.0038330720000000007,-0.0021298185999999997,-0.0026319032000000006,4.79,0,0
-0.0001729250000000001,0.0037297240000000002,-0.00464614,-0.0006409266000000001,-0.0015339932,4.791,0,0
0.00035772639999999997,0.003190046,-0.005501766,0.0010693134,0.0002679608000000002,4.792,0,0
0.0007440986,0.0035765140000000003,-0.006914034000000001,0.002040522,0.0024867728,4.793,0,0
0.0016875246,0.003772454,-0.007562728,0.003167308,0.0042417668,4.794,0,0
0.0022978862,0.004254493999999999,-0.007524066000000001,0.003982106,0.004787106,4.795,0,0
0.0019311202000000002,0.0032912479999999997,-0.006642236,0.0032213262,0.0042445246,4.796,0,0
0.0019445882,0.0005536320000000003,-0.0046082294,0.0029125922,0.0037875286000000003,4.797,0,0
0.002544034,-0.0011779959999999997,-0.0016282314000000005,0.0028747762,0.0030855766000000002,4.798,0,0
0.002281356,-0.0017473982000000001,0.00048003459999999983,0.0016360142,0.0019782026000000003,4.799,0,0
0.0015271100000000001,-0.0030818122,0.0017166386000000001,0.0009141881999999999,0.0015157050000000002,4.8,0,0
0.0011827245999999998,-0.004211254199999999,0.0027785965999999997,0.0005328539999999999,0.0010035584,4.801,0,0
0.00035997859999999994,-0.0036817602,0.00318942,-0.0009377960000000002,-0.0009543676000000002,4.802,0,0
-0.0008797754000000001,-0.0034595002,0.0030435239999999997,-0.00290918,-0.0030767916,4.803,0,0
-0.0012996870000000003,-0.0037309920000000002,0.00274315,-0.003591154,-0.0043831776000000005,4.804,0,0
-0.0012187276000000002,-0.0030159092,0.002328516,-0.004208648000000001,-0.005897698,4.805,0,0
-0.0012389008000000003,-0.0018456472000000002,0.001646103,-0.005087024000000001,-0.006510142,4.806,0,0
-0.0010288286,-0.001189859,0.00121709554,-0.004350698,-0.005331471400000001,4.807,0,0
-0.00039369620000000003,-0.0007951156000000001,0.0007587213399999999,-0.0024564620000000004,-0.003766273400000001,4.808,0,0
-0.00019802688000000005,-0.00026135240000000004,0.00012093134000000004,-0.001005326,-0.0020899614,4.809,0,0
-0.00026751428,0.0003921808,-0.0008564626600000001,0.00022070399999999984,0.0003675926000000001,4.81,0,0
6.332831999999997e-05,0.0013716808000000002,-0.00283470166,0.00183585,0.0028412706,4.811,0,0
0.00041476412000000004,0.0024702326000000004,-0.0057818042,0.0018726657999999998,0.00423688,4.812,0,0
0.00039779832,0.0031998472000000005,-0.008751112,0.0008817298,0.004851674,4.813,0,0
0.00037802459999999996,0.0037982660000000007,-0.010908456,0.0006882962000000001,0.005179774,4.814,0,0
0.0004228084,0.0034414548000000003,-0.01079204,0.0010359062000000001,0.005067664,4.815,0,0
0.0004069704,0.0009719768000000001,-0.0066612,-0.00012057379999999985,0.00389504,4.816,0,0
0.0007578224,-0.0017286352000000001,0.0005066199999999993,-5.8047599999999786e-05,0.0031006,4.817,0,0
0.0009855918,-0.0028144072,0.007461500000000001,0.0046419324,0.00374758,4.818,0,0
0.0013361758,-0.0033953184,0.012144860000000002,0.009785198,0.0036479159999999997,4.819,0,0
0.0012674640000000003,-0.0031642992000000003,0.014059460000000001,0.013968148,0.002694219,4.82,0,0
0.0005655400000000002,-0.00020355520000000008,0.012821584000000002,0.01839331,0.0015785870000000002,4.821,0,0
0.0003414640000000001,0.0033658208000000005,0.00893496,0.019813168,-0.0007110549999999999,4.822,0,0
-0.0001379,0.0047185808,0.004467516,0.0152768292,-0.0037550409999999998,4.823,0,0
-0.0013546180000000001,0.003646204,0.0015356280000000003,0.0073451692,-0.006113353,4.824,0,0
-0.00266154,0.001519286,-0.0006996079999999999,-0.0028830308000000002,-0.007519385999999999,4.825,0,0
-0.00368557,-0.00034882599999999956,-0.002968992,-0.0136042308,-0.00751859,4.826,0,0
-0.005227602,-0.00262463,-0.00417583,-0.0222913788,-0.006057252000000001,4.827,0,0
-0.00681844,-0.0044003,-0.004362148,-0.0294166,-0.0042205820000000005,4.828,0,0
-0.00701123,-0.0035630294000000002,-0.004570106,-0.032455540000000005,-0.001335244,4.829,0,0
-0.0053306762,-0.0016548802,-0.004178168,-0.030006400000000003,0.0018187280000000004,4.83,0,0
-0.0028134622,-0.0010161134,-0.0027413531200000006,-0.023672088,0.004002488,4.831,0,0
-0.00012322820000000003,-0.0005040226,-0.00177646652,-0.014523394,0.005740914000000001,4.832,0,0
0.0036541878,-3.832600000000015e-06,-0.0007187925199999999,-0.002766854000000001,0.006578664000000001,4.833,0,0
0.0070559318,-4.373300000000004e-05,0.0008014654800000002,0.008769906000000001,0.00611257,4.834,0,0
0.008928968,0.00016675379999999998,0.0016939054800000001,0.017450386000000002,0.004572102200000001,4.835,0,0
0.00977541,0.00023481639999999997,0.0021619206,0.023936214,0.0029002202000000003,4.836,0,0
0.009680572,0.00048519559999999994,0.0026520700000000003,0.02760444,0.0009868402,4.837,0,0
0.008049576,0.0016215015999999998,0.002426698,0.026793400000000002,-0.0014221838000000003,4.838,0,0
0.005093581999999999,0.0026482014,0.0015288612000000004,0.022522234,-0.0035548078000000004,4.839,0,0
0.002007852,0.0032233454,0.0011044654000000001,0.0165661142,-0.005136552000000001,4.84,0,0
-0.001360444,0.0034642760000000005,0.00032463939999999997,0.0084300942,-0.006462820000000001,4.841,0,0
-0.004753324,0.001597144,-0.0011073546,-0.0014749458000000008,-0.007417484,4.842,0,0
-0.0073545880000000004,-0.00137083,-0.0019639546,-0.010551125800000002,-0.007218342,4.843,0,0
-0.008998174000000001,-0.002702724,-0.0025126958000000004,-0.0175931798,-0.006074662000000001,4.844,0,0
-0.010072867999999999,-0.0024633660000000003,-0.003218818,-0.02335574,-0.004044942000000001,4.845,0,0
-0.009182222,-0.001611986,-0.0030342722,-0.02615208,-0.001263386,4.846,0,0
-0.005912498,-0.00010983299999999999,-0.0014419462,-0.02423862,0.00154855,4.847,0,0
-0.002066034,0.0018930994000000004,0.00015184780000000004,-0.019465054000000002,0.003991734,4.848,0,0
0.0024679260000000005,0.0024670506,0.0011550278000000001,-0.012304168000000002,0.005895895999999999,4.849,0,0
0.007001046000000001,0.0005497646000000002,0.001969506,-0.0026880280000000016,0.0068670300000000005,4.85,0,0
0.009582466000000001,-0.0014268554,0.0016276442000000004,0.006779892,0.0065879,4.851,0,0
0.010372202,-0.0007525024000000001,0.0009152170000000002,0.014185052,0.005484546000000001,4.852,0,0
0.010205834,0.0007045952,0.001611885,0.019576286000000002,0.0037952380000000007,4.853,0,0
0.008548852,0.00210054,0.0024261530000000003,0.021987480000000004,0.0014516059999999996,4.854,0,0
0.006140698,0.0035902380000000004,0.0021153368000000005,0.020980940000000003,-0.0013523,4.855,0,0
0.0034760060000000007,0.0031803580000000003,0.0012663827999999998,0.01865028,-0.00366927,4.856,0,0
-0.00017840800000000034,0.0016699240000000004,-0.0009593760000000001,0.015262212000000004,-0.005068328,4.857,0,0
-0.003988444000000001,-0.0009699420000000001,-0.005710178,0.010098112000000001,-0.005776552,4.858,0,0
-0.007018922,-0.005534382000000001,-0.00888854,0.004644276000000001,-0.0055702,4.859,0,0
-0.009452268,-0.008545584,-0.006067666000000001,-4.168399999999973e-05,-0.003911484000000001,4.86,0,0
-0.011048214,-0.007724674000000001,-0.00016287999999999893,-0.005056764,-0.00136016,4.861,0,0
-0.011065588000000001,-0.005487767999999999,0.005006420000000001,-0.009740176000000001,0.0014440480000000003,4.862,0,0
-0.009305672000000001,-0.0011922319999999997,0.009908006,-0.011484116000000003,0.005234532,4.863,0,0
-0.006429800000000001,0.0053440480000000005,0.013150206,-0.010290437600000002,0.0089017,4.864,0,0
-0.003239454000000001,0.009331754000000001,0.0103902076,-0.0070572656,0.011626264,4.865,0,0
0.0002973119999999999,0.009379177999999998,0.003513667599999999,-0.0017324056000000004,0.013527528,4.866,0,0
0.00373135,0.007159733999999999,-0.0034491324,0.0047825544,0.013688108000000001,4.867,0,0
0.006067696000000001,0.003382606,-0.0115365584,0.009628594400000001,0.011229198000000001,4.868,0,0
0.006795824,-0.0016247840000000002,-0.0188188584,0.011407184,0.006682248000000001,4.869,0,0
0.006188086400000001,-0.005053366,-0.019575644,0.01167234,0.0019365040000000004,4.87,0,0
0.004103992400000001,-0.005317626000000001,-0.011134604000000003,0.0094355292,-0.0032005160000000005,4.871,0,0
0.0013414064000000004,-0.005359118,0.0007104359999999983,0.004141575200000001,-0.008459784000000001,4.872,0,0
-0.0006764835999999998,-0.006004914,0.010738735999999999,-0.0013304848000000003,-0.012116174,4.873,0,0
-0.0023388256,-0.005444662,0.018614930000000002,-0.0067934768,-0.014047124000000001,4.874,0,0
-0.003905436,-0.004373088,0.020952146,-0.0129852848,-0.0152582,4.875,0,0
-0.005381228,-0.0037619474000000004,0.015380472000000001,-0.018268834,-0.014851928,4.876,0,0
-0.006086800000000001,-0.0024129074000000003,0.0069218759999999995,-0.02158892,-0.012470544,4.877,0,0
-0.0059432876,-0.0003382054000000001,0.0004953960000000004,-0.023628220000000002,-0.00947186,4.878,0,0
-0.005338737800000001,0.0020216466,-0.006994838,-0.023594740000000003,-0.005380692,4.879,0,0
-0.0042808218,0.004740108600000001,-0.01628097,-0.020670476000000004,-0.0011089540000000003,4.88,0,0
-0.0031243658000000007,0.006806286,-0.026123656000000002,-0.015792724000000005,0.002016842,4.881,0,0
-0.0022343598000000003,0.007109194,-0.029966200000000002,-0.009440332000000001,0.004588696,4.882,0,0
-0.0016469122000000002,0.005652904,-0.02177938,-0.002063392000000001,0.006250704,4.883,0,0
0.0012752999999999998,0.003710166,-0.00804738,0.005404828,0.005945398,4.884,0,0
0.007140106,0.001536269,0.005512060000000001,0.011190484,0.00455926,4.885,0,0
0.01273575,-0.001331971,0.0175964,0.015648972,0.003057163,4.886,0,0
0.016274272,-0.002282461,0.023425834,0.018897360000000002,0.0008813530000000001,4.887,0,0
0.017576612,0.00024782500000000013,0.01988664,0.01912386,-0.0017683590000000002,4.888,0,0
0.015139010000000001,0.0032225890000000005,0.013554278000000001,0.017466602,-0.003602159,4.889,0,0
0.009349380000000001,0.0030259560000000007,0.008438682000000001,0.015478222000000002,-0.003606419,4.89,0,0
0.0038390539999999997,0.0004245959999999993,0.0046744939999999995,0.01203985,-0.002141378,4.891,0,0
-0.0005866280000000005,-0.001560316,0.0013333979999999995,0.007056590000000001,-1.2089999999999757e-05,4.892,0,0
-0.003952668,-0.0034722526000000005,-0.0032811280000000003,0.0026573840000000005,0.002633774,4.893,0,0
-0.00607052,-0.005518454600000001,-0.007110446,-0.0016786780000000003,0.00481827,4.894,0,0
-0.0075654139999999995,-0.005862292600000001,-0.008844598,-0.006636098,0.005068296,4.895,0,0
-0.008131628,-0.0043311566,-0.009109144,-0.009750586,0.004354582000000001,4.896,0,0
-0.007307091999999999,-0.0028462766,-0.00740993,-0.010415288000000002,0.0040443400000000004,4.897,0,0
-0.005413993999999999,-0.0026200008,-0.0033826540000000006,-0.009515686,0.0037061900000000007,4.898,0,0
-0.003644664,-0.0033807088,0.0008896259999999997,-0.006390056000000001,0.0037223099999999995,4.899,0,0
-0.00182796,-0.0029653527999999995,0.004595394,-0.001647696,0.004136012,4.9,0,0
6.5378e-05,-0.0001449528,0.007623114,0.002887784,0.0035265332,4.901,0,0
0.0008641104000000002,0.0020227432,0.008449970000000001,0.006828646000000001,0.0020887592,4.902,0,0
0.0005535578000000002,0.0034340760000000003,0.006554392,0.00979201,0.0005194372000000003,4.903,0,0
0.0005000118,0.005976826000000001,0.0043435006,0.010505355999999999,-0.0017403928000000002,4.904,0,0
0.0005798384000000001,0.007084640000000001,0.0032407846000000002,0.0087157521,-0.0043606588,4.905,0,0
-0.0004002756,0.005099066000000001,0.0028145026,0.0055244121,-0.006144538000000001,4.906,0,0
-0.00166454,0.002672410000000001,0.0032223246000000006,0.0013825360999999993,-0.007943998,4.907,0,0
-0.0017754024,0.0007523220000000001,0.003972218600000001,-0.0036819439,-0.01001687,4.908,0,0
-0.00045724039999999995,-0.00126031,0.0034103040000000007,-0.0084841599,-0.010428558000000001,4.909,0,0
0.0005217310000000001,-0.0012881799999999999,0.0010288260000000003,-0.011860276,-0.009358936,4.91,0,0
0.0016127530000000002,0.000680226,-0.0008455820000000001,-0.014128816,-0.0077067718,4.911,0,0
0.0036662910000000003,0.0016864448,-0.0006306600000000001,-0.015008640000000002,-0.004608815800000001,4.912,0,0
0.003966898,0.0015836248000000001,0.0017996680000000004,-0.013226872000000002,0.0002976841999999995,4.913,0,0
0.002080464,0.0011171668,0.005343894,-0.009453982000000001,0.0049573842,4.914,0,0
0.00018518400000000002,-0.0006721852000000001,0.008577328,-0.004302034000000001,0.008560620199999999,4.915,0,0
-0.0012700520000000002,-0.0031352232000000004,0.010813792000000001,0.002140246,0.011819575999999998,4.916,0,0
-0.003212566,-0.004446898,0.010410066,0.008083846,0.014081319999999998,4.917,0,0
-0.005912108,-0.004398838,0.007120022,0.012509038,0.014972780000000002,4.918,0,0
-0.009110766000000001,-0.0038173659999999996,0.0018917219999999993,0.015660028,0.014648560000000001,4.919,0,0
-0.012076004000000001,-0.0025081839999999997,-0.004171138,0.01728578,0.01378888,4.92,0,0
-0.012644568,-0.00036359800000000013,-0.012488358,0.016364339999999998,0.011830848000000001,4.921,0,0
-0.009211354,0.001774496,-0.026273164,0.013539988000000001,0.008425974599999999,4.922,0,0
-0.0034449339999999993,0.003213822,-0.04212892,0.011120812,0.0048957146,4.923,0,0
0.0022830660000000016,0.0027212364000000003,-0.05354734,0.008649537999999998,0.0013773606000000004,4.924,0,0
0.006911558000000001,0.0017774563999999999,-0.05967922,0.004308506,-0.0027724194,4.925,0,0
0.009747018000000001,0.0011389999939999998,-0.05934946,-0.0005458539999999997,-0.006249947400000001,4.926,0,0
0.009890618,-0.0002008700060000002,-0.045541097999999995,-0.005129882,-0.008468154,4.927,0,0
0.007689524000000001,-0.0005422700060000001,-0.019638097999999996,-0.011319506,-0.011896474,4.928,0,0
0.005418806,0.001011099594,0.008403182000000002,-0.017500232,-0.0150427,4.929,0,0
0.0047190504,0.0034611875940000003,0.034516302,-0.0200299,-0.01602274,4.93,0,0
0.0043440664,0.005667008,0.054866962,-0.0196088,-0.01634168,4.931,0,0
0.0030838164,0.008126542,0.06217372,-0.016972648,-0.014961480000000001,4.932,0,0
0.0030011484000000005,0.007616574399999999,0.05638338,-0.01115748,-0.010739488,4.933,0,0
0.004557572400000001,0.0024917484000000004,0.044051792,-0.004063840000000001,-0.005697114,4.934,0,0
0.00586564,-0.0029630216000000008,0.029474556,0.0031086000000000004,-0.001593354,4.935,0,0
0.005747206,-0.006341243600000001,0.016229766,0.010815640000000001,0.001761184,4.936,0,0
0.0046468476,-0.0079581676,0.0077845399999999995,0.017907828,0.00399238,4.937,0,0
0.0024587216,-0.008017499200000002,0.003889554,0.02244782,0.004985566,4.938,0,0
-0.0015460244,-0.0056125732,0.002146544,0.024716360000000003,0.00544208,4.939,0,0
-0.0054356484,-0.0030867732,0.0005879078,0.024181860000000003,0.005742404,4.94,0,0
-0.0084860564,-0.0020976282,-0.0006160602,0.0188819,0.005661452000000001,4.941,0,0
-0.009995136,-0.0030473882,-0.00016741540000000002,0.0107477,0.0054124160000000015,4.942,0,0
-0.009191742,-0.004804985,0.0009857446000000002,0.0027405200000000006,0.006945138,4.943,0,0
-0.0067026348,-0.004447617000000001,0.0005971044000000001,-0.0041703800000000004,0.01083667,4.944,0,0
-0.0034881408,-0.003836149,-0.0009063494,-0.00951188,0.015770626,4.945,0,0
-0.0010661790000000002,-0.0046762520000000005,-0.0023067334,-0.01156573,0.02045452,4.946,0,0
0.000540074,-0.005239192,-0.0050763722,-0.011093758,0.023130740000000004,4.947,0,0
0.001686234,-0.0038203480000000003,-0.0095825262,-0.011572797999999999,0.021920582,4.948,0,0
0.0018555638,-0.0014206539999999997,-0.013052908000000002,-0.013238098,0.016055418000000002,4.949,0,0
0.0005213578000000001,0.001001518,-0.014011302000000002,-0.013810978000000002,0.007961798,4.95,0,0
-0.001757284,0.0046558780000000004,-0.013025898000000001,-0.012098549600000001,0.0010609499999999997,4.951,0,0
-0.005340629,0.00895554,-0.009782313999999999,-0.0086137576,-0.0037376460000000007,4.952,0,0
-0.007927425,0.012786568,-0.005324496,-0.0031327776000000004,-0.00578024,4.953,0,0
-0.00739767,0.01595968,-0.0009144560000000001,0.0027299143999999997,-0.006127276000000001,4.954,0,0
-0.005882098000000001,0.018098740000000002,0.0029196400000000003,0.0045375784,-0.008350356,4.955,0,0
-0.0039083860000000015,0.016047352,0.004463944,0.0018906799999999992,-0.013254328000000001,4.956,0,0
-0.0018375880000000002,0.008560011999999999,0.004944700000000001,-0.003547924,-0.020350872000000006,4.957,0,0
-0.0001309924,0.0015101719999999993,0.004091562000000001,-0.011883603999999999,-0.029930820000000004,4.958,0,0
0.0031261556000000005,-0.002464511999999999,-0.0006812179999999995,-0.020430776,-0.03723506000000001,4.959,0,0
0.007533155600000001,-0.005936068,-0.007387034000000001,-0.025269640000000003,-0.03733912,4.96,0,0
0.010545703600000001,-0.006564929400000001,-0.01142156,-0.0275884,-0.03315814,4.961,0,0
0.0128303276,-0.0039205834,-0.0100038,-0.027829060000000003,-0.02624699,4.962,0,0
0.0130375972,-0.006017423400000001,-0.00555444,-0.022241334,-0.015854984,4.963,0,0
0.0101058912,-0.011217879400000002,-0.0016683598000000008,-0.012647754000000002,-0.006327403999999999,4.964,0,0
0.0066156532,-0.012353289400000002,0.0013771001999999997,-0.002303294,-0.0003823479999999998,4.965,0,0
0.0043854572,-0.01146012,0.0027235282,0.009788806,0.004150632,4.966,0,0
0.0050424172000000005,-0.008618402000000002,-0.0015946557999999998,0.021874726,0.007998082,4.967,0,0
0.007498762000000001,-0.0022954499999999997,-0.007880051800000001,0.02919264,0.010034996000000001,4.968,0,0
0.00715053,0.003368374,-0.0076821014,0.03216158,0.011770896000000001,4.969,0,0
0.004696156,0.004892292,-0.0031259614000000006,0.03453834,0.013385420000000002,4.97,0,0
0.003514468,0.0024860200000000002,0.0018911306000000002,0.03483088,0.013343980000000002,4.971,0,0
0.0011446820000000002,-0.001681864,0.0068090545999999995,0.03265758,0.013296520000000003,4.972,0,0
-0.002021806,-0.004987456000000001,0.0113896906,0.0309649,0.01395678,4.973,0,0
-0.003528102,-0.010068520000000001,0.013246039999999999,0.02803554,0.014329460000000002,4.974,0,0
-0.0041299019999999995,-0.016009532,0.0108842178,0.019897072000000002,0.0139467,4.975,0,0
-0.004827966,-0.0165151,0.006053965799999999,0.008790852000000002,0.013132356000000001,4.976,0,0
-0.005268002000000001,-0.013404663800000001,-0.0016311342000000003,-0.0013371479999999994,0.01226499,4.977,0,0
-0.004484886600000001,-0.0083534838,-0.0101855542,-0.009744548,0.011744690000000002,4.978,0,0
-0.0041419646,0.0015318762000000007,-0.0164871542,-0.015173528000000002,0.010339034,4.979,0,0
-0.0054695726,0.0130383362,-0.019726572,-0.016565620000000003,0.008266468,4.98,0,0
-0.0072504246,0.022181836200000003,-0.019380996,-0.013664048000000003,0.009340492,4.981,0,0
-0.0100899846,0.0305494,-0.014205338,-0.007879076000000002,0.012951498,4.982,0,0
-0.014100312,0.03583514,-0.004648978,-0.0017179759999999995,0.015942438000000003,4.983,0,0
-0.01571704,0.034340560000000006,0.007482082000000001,0.0031685840000000008,0.016998674000000002,4.984,0,0
-0.0157653,0.025185440000000003,0.018723782,0.005937596200000002,0.016449002400000003,4.985,0,0
-0.0148515,0.010203079999999998,0.025062258000000004,0.0062561382000000006,0.013395424400000001,4.986,0,0
-0.010207706,-0.0057531200000000005,0.026143138,0.0041591482000000015,0.005344364400000002,4.987,0,0
-0.005517042000000001,-0.021150340000000004,0.022060031999999997,0.0007169082000000001,-0.0050579956,4.988,0,0
-0.001989162000000001,-0.029611940000000003,0.012262212000000001,-0.0022128118,-0.011794095600000002,4.989,0,0
0.0029699580000000004,-0.023591960000000006,-0.0005736480000000004,-0.005324084,-0.016432518,4.99,0,0
0.004943014000000001,-0.005720540000000001,-0.009919508,-0.010439278000000001,-0.0233794,4.991,0,0
0.004122000000000001,0.01531868,-0.013074762,-0.017180960000000002,-0.0297803,4.992,0,0
0.005441576,0.0291304,-0.010968046,-0.024410440000000002,-0.033312680000000004,4.993,0,0
0.005400714,0.033772502,-0.004549465999999999,-0.03220716,-0.03592456000000001,4.994,0,0
0.00413441,0.02902565400000001,0.003816614,-0.0392874,-0.0371538,4.995,0,0
0.006944133999999999,0.012027094000000006,0.0082056704,-0.04119094,-0.03239698,4.996,0,0
0.010487994,-0.007322046,0.0052325864,-0.03669456,-0.021654912000000002,4.997,0,0
0.010083844,-0.019213926,-0.0013598435999999997,-0.029353416,-0.010769372000000001,4.998,0,0
0.01053026,-0.029471628,-0.0107222436,-0.020316855999999998,-0.0023325320000000004,4.999,0,0
0.014616764,-0.036956260000000005,-0.020745743599999998,-0.008199276,0.004867862000000001,5.0,0,0
0.017252184,-0.03441614,-0.02569118,0.002658164,0.009808662000000001,5.001,0,0
0.016233164,-0.03067046,-0.023001628,0.008998944,0.010813334,5.002,0,0
0.013230198,-0.02831792,-0.015248448,0.014125760000000001,0.010119614,5.003,0,0
0.008151244,-0.021297280000000002,-0.005138048,0.01840282,0.009648584,5.004,0,0
0.0014991459999999992,-0.013345204,0.006569652000000001,0.01991014,0.009248029999999999,5.005,0,0
-0.0037108422000000003,-0.008584518,0.017331672000000003,0.02034888,0.008273156,5.006,0,0
-0.0066924822000000005,-0.005147448000000001,0.02564904,0.0208044,0.006877938,5.007,0,0
-0.005492737400000001,0.0019456520000000002,0.02952302,0.01997246,0.006930038,5.008,0,0
-0.0017236294,0.010781192,0.02707478,0.01906638,0.008601688,5.009,0,0
-0.0026570914000000005,0.016857376,0.020470437999999997,0.01979948,0.011321988,5.01,0,0
-0.0082292632,0.02038007,0.012601918000000004,0.020727960000000004,0.015348042000000001,5.011,0,0
-0.013997363200000001,0.020642732000000004,0.002935638,0.02005912,0.019261840000000002,5.012,0,0
-0.020007232,0.016652918000000003,-0.0075952219999999996,0.01914944,0.0214178,5.013,0,0
-0.023670780000000002,0.010002350000000002,-0.015235342000000002,0.016922482,0.02115304,5.014,0,0
-0.020930806000000003,0.004091708,-0.015782602,0.010675091999999999,0.01729846,5.015,0,0
-0.014987552000000001,0.0003567966000000001,-0.011216762,0.002598392000000001,0.009495400000000001,5.016,0,0
-0.006605535999999999,-0.0008444353999999999,-0.005834482,-0.0035649879999999994,0.0024117399999999995,5.017,0,0
0.005396324000000001,-0.00047750919999999973,0.0017338580000000004,-0.008305804,-0.0014569840000000004,5.018,0,0
0.015488384000000001,0.0004004968,0.010200458,-0.011644262,-0.0037528220000000007,5.019,0,0
0.02035399,0.0023910288,0.013147726000000002,-0.010338486000000001,-0.0030522160000000013,5.02,0,0
0.024662536,0.0034770962,0.010203558000000001,-0.0065653379999999996,-0.0007356980000000003,5.021,0,0
0.027565279999999998,0.0037502622000000004,0.007308746000000001,-0.0037403144000000004,-0.001550638,5.022,0,0
0.02409674,0.004661444000000001,0.002733104,-0.001805242,-0.0072456740000000006,5.023,0,0
0.016107872000000002,0.005566098,-0.002391798,-0.000677674,-0.014100056,5.024,0,0
0.006963792000000001,0.004366276600000001,-0.0054278239999999995,-0.000758832,-0.019239602,5.025,0,0
-0.0020905679999999992,-0.00038529939999999924,-0.007872556,-0.001399346,-0.022125440000000003,5.026,0,0
