bandpass 1,bandpass 2,bandpass 3,bandpass 4,bandpass 5,time,onset,mark
-0.00028889084,-3.442000000000001e-05,0.001320458,-0.0003591698,-0.0008674288,5.528,1,1
-0.00038767084,1.5500000000000106e-07,0.0015629440000000001,-0.00041447420000000003,-0.0009482706000000001,5.529,0,0
3.515316000000002e-05,-0.00020763900000000002,0.0018478580000000002,-0.0005993276000000001,-0.0010239418,5.53,0,0
3.669455999999998e-05,9.153020000000003e-05,0.001429292,-0.0006711946,-0.0014035192000000003,5.531,0,0
-0.00032433600000000005,0.000458417,0.001252824,-0.0006666560000000001,-5.992319999999999e-05,5.532,0,0
-0.0002687340000000001,-7.670099999999998e-05,0.0012474040000000001,-0.00012512200000000003,0.005637591000000001,5.533,0,0
-0.0004042420000000001,-4.8192999999999964e-05,0.001188447,-0.00034381760000000005,0.012705712800000001,5.534,0,0
-0.0013053040000000002,0.00038736300000000005,0.0008582342,-0.0012887862,0.019331743999999998,5.535,0,0
-0.001535336,0.00046344340000000004,0.00022459819999999997,-0.0015355809999999998,0.024559474000000005,5.536,0,0
-0.0010419112,0.0012265734000000003,-0.00012998080000000008,-0.0015184901999999998,0.026030720000000004,5.537,0,0
-0.0005365372,0.0012065674,-0.0003164710000000001,-0.0009213261999999997,0.020649369,5.538,0,0
0.0013462288000000002,-0.00041845559999999986,-0.0003672078,0.0008590398000000003,0.010519208999999998,5.539,0,0
0.004447506800000001,-0.0022796336000000003,-0.00015018000000000008,0.0035673778000000003,-0.0015946509999999981,5.54,0,0
0.0074460848,-0.004445668,0.000448882,0.0052833178,-0.013551671000000001,5.541,0,0
0.010513602,-0.007503652,0.0008196529999999999,0.006368338000000001,-0.023478871000000002,5.542,0,0
0.012904858,-0.008906190000000001,0.0006925606,0.006190628,-0.031220380000000002,5.543,0,0
0.012365354,-0.007693274,0.00034762439999999996,0.00411917,-0.03419316,5.544,0,0
0.0098384302,-0.005556213999999999,-0.00044220460000000007,0.001900504,-0.03251912,5.545,0,0
0.005980328200000001,-0.002669296,-0.0016097226000000003,-0.0008113860000000002,-0.027338566,5.546,0,0
-9.38518000000001e-05,0.0012591340000000003,-0.0027047686,-0.0038914820000000004,-0.018694616,5.547,0,0
-0.0063565118,0.005213982000000001,-0.003188996,-0.0063309099999999995,-0.007309356000000001,5.548,0,0
-0.0113900058,0.007984486,-0.0032317879999999998,-0.007794178,0.004458844,5.549,0,0
-0.015549102000000002,0.010154662,-0.003073266,-0.008892754,0.015124304000000002,5.55,0,0
-0.01820294,0.01128759,-0.002496332,-0.008647262000000001,0.024292590000000003,5.551,0,0
-0.01784168,0.010317066000000001,-0.0017125500000000002,-0.0067820624,0.029763960000000002,5.552,0,0
-0.015359922,0.0081968768,-0.0012800180000000002,-0.0046616644,0.030386620000000003,5.553,0,0
-0.011369075000000001,0.0051717168,-0.0011318824,-0.0018825844000000009,0.02715062,5.554,0,0
-0.005399037000000001,0.0009068728000000002,-0.00033070439999999994,0.0012931936,0.020343009800000002,5.555,0,0
0.0012179829999999997,-0.0030726012,0.0006847456,0.0038735376000000005,0.0103828098,5.556,0,0
0.006804723,-0.0059186252,0.0011425836000000002,0.0053500859999999996,-0.0003619701999999997,5.557,0,0
0.011281204999999999,-0.008053664000000002,0.0017437796000000002,0.006370762,-0.010309870200000001,5.558,0,0
0.014875438000000001,-0.009509284,0.002298138,0.006988991999999999,-0.0190683302,5.559,0,0
0.01584,-0.009030056,0.00217453,0.0061838940000000005,-0.02498542,5.56,0,0
0.014293276,-0.0069266402000000005,0.0016256518,0.0047301836,-0.026690500000000002,5.561,0,0
0.011606100000000001,-0.0046918342,0.0010691858000000001,0.0031226224,-0.02528318,5.562,0,0
0.00717906,-0.0015340401999999996,0.0003252758,0.0008704684000000004,-0.020708604,5.563,0,0
0.0009284999999999996,0.0025211278,-0.0008030902000000001,-0.0017655575999999998,-0.012589952,5.564,0,0
-0.005052740000000001,0.0054331858,-0.0018529022,-0.0037298196,-0.003154672,5.565,0,0
-0.009790316,0.006941200000000001,-0.0024838420000000004,-0.0049141912,0.006214368000000001,5.566,0,0
-0.01380146,0.008496502,-0.002614688,-0.0057595120000000005,0.014999348000000001,5.567,0,0
-0.015578080000000001,0.008737972,-0.0025141582000000003,-0.005135646,0.021516152000000004,5.568,0,0
-0.014297994000000001,0.007368438000000001,-0.0017677226000000002,-0.0033121340000000004,0.024429680000000002,5.569,0,0
-0.01151063,0.005620253,-0.0004311546000000001,-0.001471108,0.024041800000000002,5.57,0,0
-0.007588358000000001,0.0032920189999999998,0.0007291914,0.0007866260000000001,0.020369960000000003,5.571,0,0
-0.002161852,0.00026402100000000013,0.0019312414,0.0031825720000000003,0.013383164000000001,5.572,0,0
0.0034820880000000004,-0.002834237,0.0030379476000000002,0.004753742,0.004981704000000002,5.573,0,0
0.007916102000000001,-0.005221599,0.0038256740000000003,0.00539303,-0.003275756,5.574,0,0
0.011463238,-0.007391496,0.0038517380000000004,0.00588751,-0.010885036,5.575,0,0
0.014026286000000002,-0.008673414,0.0034837960000000004,0.0059438600000000005,-0.017121036000000003,5.576,0,0
0.01438254,-0.008519964,0.0029528360000000003,0.0051362560000000005,-0.020414840000000004,5.577,0,0
0.012534436,-0.0074032740000000005,0.0020780354,0.0039793008,-0.020323360000000006,5.578,0,0
0.0092789638,-0.005577392600000001,0.0011568868000000003,0.0023916388000000005,-0.018069786000000004,5.579,0,0
0.0050209078,-0.0027648826,7.947279999999998e-05,0.0001370007999999998,-0.013375495400000001,5.58,0,0
-1.9644199999999936e-05,0.00021237540000000003,-0.0006126052000000001,-0.0024522112,-0.005980315400000002,5.581,0,0
-0.0045169442,0.0024623134,-0.0012073712000000001,-0.0044884092000000006,0.0023897645999999993,5.582,0,0
-0.007866960200000002,0.0045158274,-0.0017098446,-0.006049280000000001,0.0097571246,5.583,0,0
-0.010399288000000001,0.005898226000000001,-0.0018240558,-0.006916628,0.0162323106,5.584,0,0
-0.011337108000000002,0.006250926,-0.0015795558,-0.0062070879999999995,0.02109648,5.585,0,0
-0.010445896000000001,0.005763818,-0.0013197801999999998,-0.0049052832,0.02224458,5.586,0,0
-0.008618218,0.0047344126,-0.0012043072,-0.0037700032,0.020337178,5.587,0,0
-0.005566022000000001,0.0027198626,-0.0007792312000000001,-0.0020087152000000004,0.015966804,5.588,0,0
-0.0009507420000000005,0.0002582985999999999,-0.00036881140000000006,3.358079999999991e-05,0.008972504,5.589,0,0
0.00301879,-0.0020103094,0.00019794860000000002,0.0014730848,0.0009024440000000005,5.59,0,0
0.006049770000000001,-0.0042247674,0.000615981,0.002547996,-0.006235315999999999,5.591,0,0
0.008923232000000001,-0.005670236,0.0009340518,0.0039391520000000005,-0.012232134,5.592,0,0
0.010151470000000001,-0.005808232000000002,0.0012113118000000001,0.0045651319999999995,-0.016905,5.593,0,0
0.009130075999999999,-0.004900631,0.0009007836,0.0038389478,-0.018712160000000002,5.594,0,0
0.007404586000000001,-0.0036117590000000004,0.0002549295999999999,0.0030881568,-0.01795294,5.595,0,0
0.005033148,-0.001602739,-0.0005128324000000001,0.0020770652000000004,-0.01557147,5.596,0,0
0.00105455,0.0006602310000000001,-0.0010986862,0.0001888072,-0.011065952,5.597,0,0
-0.002756626,0.002332649,-0.0014980342,-0.0018544707999999998,-0.004435112000000001,5.598,0,0
-0.005850932,0.003735944,-0.0014543099999999999,-0.0032672806,0.002259608,5.599,0,0
-0.008779678,0.005187192,-0.0010993102,-0.0045858256,0.008107108,5.6,0,0
-0.0107535,0.005822860000000001,-0.0009113482,-0.0049738099999999995,0.013457718,5.601,0,0
-0.010909752,0.00507728,-0.0008845422,-0.0041425682,0.0166278,5.602,0,0
-0.009728888000000002,0.0038502500000000004,-0.0012231242,-0.0031600170000000006,0.01670616,5.603,0,0
-0.007550554920000001,0.001981254,-0.0015166542000000004,-0.001402861,0.014640894000000002,5.604,0,0
-0.0035496669200000006,-0.00048118200000000003,-0.0013806136000000004,0.0005775509999999999,0.010439616,5.605,0,0
0.0010020330799999997,-0.002569704,-0.0007438996000000003,0.001837609,0.004124456,5.606,0,0
0.00489510308,-0.0037684719999999997,-0.00023831739999999996,0.0027505752,-0.0022162840000000007,5.607,0,0
0.00799216108,-0.0045211059999999996,0.00018019640000000004,0.0037897900000000003,-0.007570004000000002,5.608,0,0
0.010019168,-0.005214404,0.0008839824000000001,0.004397668,-0.012322978,5.609,0,0
0.010365758000000001,-0.005137396000000001,0.0008579742000000001,0.004143486,-0.015379880000000002,5.61,0,0
0.009332964,-0.004567344000000001,0.0003973109999999999,0.0036629200000000005,-0.0158972,5.611,0,0
0.0077128000000000006,-0.0037551722,0.00029630988000000003,0.0028422234,-0.015091320000000002,5.612,0,0
0.0048328780000000005,-0.0022353042,0.00022855788,0.0014683074000000002,-0.012966498000000002,5.613,0,0
0.0013201179999999997,-0.0001195142000000001,-0.00015318812,-4.24386000000001e-05,-0.008407888000000002,5.614,0,0
-0.0019334200000000006,0.0018661437999999999,8.431568000000003e-05,-0.0013997246,-0.0026196280000000006,5.615,0,0
-0.004950418000000001,0.0037069098,0.00054700688,-0.0023035386,0.0031208520000000003,5.616,0,0
-0.0074653540000000004,0.005585448000000001,0.00033878140000000005,-0.002706826,0.008756832,5.617,0,0
-0.008775872,0.006424798000000001,0.00031055780000000004,-0.0024127312,0.013663690000000003,5.618,0,0
-0.008541680000000001,0.0057682774000000015,0.00037780100000000004,-0.0018631204000000001,0.016142120000000003,5.619,0,0
-0.007509988,0.0045774638000000015,6.427604000000002e-05,-0.0011932032000000002,0.0160629,5.62,0,0
-0.0055072412000000005,0.0032862358000000005,-0.00012955075999999998,-0.00032506720000000013,0.014065049999999999,5.621,0,0
-0.0022682452000000004,0.0010904858000000003,0.00046182364000000003,0.0002630828,0.00965236,5.622,0,0
0.0011423988,-0.0011190362,0.00100719544,0.000650176,0.003690634000000001,5.623,0,0
0.0038375368,-0.0022197936,0.00126627024,0.0007436772000000001,-0.0019330460000000003,5.624,0,0
0.006078088800000001,-0.0031902400000000004,0.0016085232,0.00133668,-0.006934986000000001,5.625,0,0
0.007627022,-0.004277380000000001,0.0017789700000000002,0.0018613280000000002,-0.011312916,5.626,0,0
0.007548664,-0.004418322000000001,0.0015653058000000002,0.0017569294,-0.013380866,5.627,0,0
0.00671239,-0.0036714092000000005,0.0012428210000000003,0.0016278064,-0.013199660000000002,5.628,0,0
0.005466332,-0.0027004282,0.0012103030000000002,0.0011776544000000001,-0.012045636000000002,5.629,0,0
0.0029491,-0.0013042822,0.0008964058000000001,0.0003233864000000001,-0.008978757800000002,5.63,0,0
-0.0003682379999999997,0.0005854177999999999,0.00021959780000000003,-0.0007999096,-0.004174287800000001,5.631,0,0
-0.0032829599999999997,0.0022460258,-0.000396552,-0.001751341,0.0004500681999999993,5.632,0,0
-0.0055652919999999995,0.003359231,-0.0009472272,-0.00270578,0.0049780282,5.633,0,0
-0.007369678,0.0041965760000000005,-0.0016248932000000002,-0.00328498,0.0097100842,5.634,0,0
-0.007442778,0.004479458,-0.0018914639999999998,-0.003264474,0.012720706000000002,5.635,0,0
-0.0058921442,0.004256340000000001,-0.001845672,-0.0028683885999999997,0.013092592,5.636,0,0
-0.0039527692,0.0033241950000000003,-0.0018082380000000002,-0.0018459506,0.012237782000000003,5.637,0,0
-0.0015400751999999993,0.0017436510000000001,-0.0014195622000000001,-0.00042216059999999997,0.0098296,5.638,0,0
0.0013759648000000004,0.00039547500000000006,-0.0009262158,0.0012800534,0.00525757,5.639,0,0
0.0036428288000000006,-0.0007457270000000001,-0.0005307064000000001,0.0029061494000000004,0.00024917199999999933,5.64,0,0
0.005258935,-0.002296459,-2.835119999999996e-05,0.0039373260000000005,-0.004128604,5.641,0,0
0.006791288000000001,-0.0035279960000000003,0.0008535388000000001,0.004620386000000001,-0.00800089,5.642,0,0
0.007060480000000001,-0.003782842,0.0013213950000000002,0.004663354,-0.010925948,5.643,0,0
0.006179314,-0.003785088,0.0010667970000000002,0.0037526872,-0.012061978000000001,5.644,0,0
0.0047178806,-0.0034719302,0.0008231928,0.0022272452,-0.011659208,5.645,0,0
0.0024954546000000005,-0.00250577122,0.0004043756000000001,0.00039707519999999995,-0.009925092000000002,5.646,0,0
-0.00018509139999999978,-0.0010196352199999998,-0.00033685640000000004,-0.0014308188,-0.006748716,5.647,0,0
-0.0023344994000000004,0.00027959478000000006,-0.0007621044,-0.0030546528,-0.0024159360000000005,5.648,0,0
-0.004015537400000001,0.0012820547800000003,-0.000779585,-0.0036294600000000006,0.0019097039999999995,5.649,0,0
-0.005625016,0.0022505669800000003,-0.0009005552,-0.0039012660000000005,0.005533232000000001,5.65,0,0
-0.00635504,0.0027536960000000004,-0.0007311978,-0.003912926000000001,0.009027196,5.651,0,0
-0.006121224,0.0026228960000000004,-0.00047842224800000003,-0.0030234726000000003,0.01096008,5.652,0,0
-0.005267198,0.0021049142000000003,-0.0005233202480000001,-0.0020346426000000003,0.01049886,5.653,0,0
-0.003840887200000001,0.0012017301999999999,-0.000361642048,-0.0009937326,0.009059656000000001,5.654,0,0
-0.0013633832000000006,-0.00017019980000000017,-3.0970047999999954e-05,0.0003028854,0.006671444,5.655,0,0
0.0010443047999999999,-0.0013136398,0.0005428365520000001,0.0015843354000000002,0.0027541139999999998,5.656,0,0
0.0025964888,-0.0021058458,0.0008351310000000001,0.002006348,-0.0013781979999999997,5.657,0,0
0.0040003648,-0.0028041999999999997,0.0009130850000000001,0.002244852,-0.004675098,5.658,0,0
0.004756382,-0.00315911,0.0010733066000000002,0.0022050620000000003,-0.007518034,5.659,0,0
0.0043917340000000004,-0.0026832481999999997,0.0007908636000000001,0.0011455360000000002,-0.009566702,5.66,0,0
0.0032946048000000003,-0.0018177521999999998,0.0002810476,0.0003600480000000001,-0.010146012,5.661,0,0
0.002406461,-0.0013164142,-3.83712e-05,7.09408e-05,-0.009536892,5.662,0,0
0.0011976608000000002,-0.000500201,-0.0002852692,-0.0008358672,-0.0082446,5.663,0,0
-0.0005558551999999999,0.000715051,-0.0006760488,-0.0019841132,-0.005653653999999999,5.664,0,0
-0.0017022992,0.0012642352000000001,-0.0006577472,-0.0021906872000000003,-0.001974112,5.665,0,0
-0.002504906,0.0015985132000000003,-0.0006937986,-0.0023535952,0.0016498079999999998,5.666,0,0
-0.0036340142,0.0023158212,-0.0010355218,-0.003139714,0.0051990000000000005,5.667,0,0
-0.004385168,0.0026003019999999996,-0.0010973738000000003,-0.0029160060000000005,0.008518168,5.668,0,0
-0.0036975186,0.0026420040000000003,-0.0008018140000000002,-0.0017858520000000003,0.010264002000000001,5.669,0,0
-0.0026149066,0.0022613332000000004,-0.0002949796000000001,-0.0010194619999999998,0.010218828,5.67,0,0
-0.0014504846000000001,0.0013020072000000003,0.00018349579999999994,-0.00022890999999999992,0.009492975999999998,5.671,0,0
0.0006131213999999999,0.0005028214000000001,0.0010890458000000001,0.0008824520000000001,0.007428654,5.672,0,0
0.0023954954000000002,-0.0006572426,0.0019415238,0.001701996,0.004000664000000001,5.673,0,0
0.003395042,-0.0022337986,0.002477898,0.002026916,0.0008197459999999998,5.674,0,0
0.004021614,-0.0030059998,0.002902856,0.002648896,-0.0020529980000000003,5.675,0,0
0.0044800579999999994,-0.0032668838,0.0027532340000000002,0.002906446,-0.005107790000000001,5.676,0,0
0.004292402000000001,-0.003591276,0.0022397736000000002,0.0026407038,-0.006995604000000001,5.677,0,0
0.003507586,-0.0029930798000000003,0.001547475,0.0028539098000000002,-0.007483010000000002,5.678,0,0
0.002616676,-0.0018133032,0.000629449,0.0027354218000000003,-0.0077398960000000004,5.679,0,0
0.001125464,-0.0006139412000000001,-0.00044702100000000003,0.0018514158,-0.006520644,5.68,0,0
-0.0005028660000000001,0.0008256228000000001,-0.001074649,0.0010665504,-0.0035204479999999994,5.681,0,0
-0.0018774000000000002,0.0019151848000000002,-0.0011467028,0.0007535576,-0.00035072200000000036,5.682,0,0
-0.0029682560000000003,0.0028292766,-0.00118476,-0.00015937640000000008,0.0023737260000000005,5.683,0,0
-0.004215394000000001,0.0035809240000000005,-0.0012308080000000001,-0.0013711204000000001,0.00538517,5.684,0,0
-0.004853326,0.0035006520000000004,-0.0011652480000000002,-0.0015448673999999998,0.007866514,5.685,0,0
-0.0044623760000000005,0.0030532380000000002,-0.001086694,-0.0015502514,0.007943376,5.686,0,0
-0.004193558,0.002728772,-0.0014594758000000003,-0.0016264424,0.006952568,5.687,0,0
-0.0029567820000000002,0.0018386762,-0.001710292,-0.0010869164,0.00584944,5.688,0,0
-0.0006662600000000001,0.0004929762000000001,-0.001616114,-0.0005582678,0.0033665559999999997,5.689,0,0
0.001150094,-0.00015808180000000002,-0.0015730696,-0.0009308288,-0.000206206,5.69,0,0
0.002417248,-0.0010184578,-0.0013689956000000002,-0.0013789674000000002,-0.0029943799999999996,5.691,0,0
0.003657392,-0.0021877638,-0.0008007645999999999,-0.0011707514,-0.005205324,5.692,0,0
0.004009064,-0.0022478660000000003,-2.137859999999989e-05,-0.0012389636,-0.007151425999999999,5.693,0,0
0.0033659280000000002,-0.0018522078,0.00026286122000000007,-0.0010884522,-0.007648611999999999,5.694,0,0
0.0027273706000000004,-0.0017337116,0.00020297282000000002,-0.0004089085999999999,-0.007315812,5.695,0,0
0.0018196236000000002,-0.0011079942,0.00021993482,-6.997860000000004e-05,-0.006526018,5.696,0,0
0.00035830560000000005,0.0001802598,-3.325878e-05,5.1467799999999975e-05,-0.004818144,5.697,0,0
-0.0009659964000000001,0.0008408678,-0.0004371977800000001,0.0004522340000000001,-0.002294336,5.698,0,0
-0.0017616264,0.0012235716,-0.00019921360000000005,0.0005976416000000001,0.00038530399999999994,5.699,0,0
-0.002813551,0.0020693514000000002,0.0002885084,0.0002092960000000001,0.002868242,5.7,0,0
-0.003578616,0.002358142,0.0005155718,0.00040454900000000014,0.005510412,5.701,0,0
-0.0030343322000000003,0.0017353540000000001,0.0008690404000000001,0.0006538406000000001,0.007162600000000001,5.702,0,0
-0.0023669576,0.0012121372000000001,0.0011912734,0.00015482340000000006,0.00695422,5.703,0,0
-0.0018581030000000003,0.0007223534,0.0010701376,0.0003733378,0.006116604,5.704,0,0
-8.168300000000015e-05,-0.0006648046000000001,0.0009494662000000001,0.0015923418000000002,0.004847553,5.705,0,0
0.001817837,-0.0017832926,0.0010183848,0.0023563308000000005,0.0019890830000000004,5.706,0,0
0.0026766712000000003,-0.0020081386,0.000917366,0.0027898048,-0.001058441,5.707,0,0
0.0035126286000000005,-0.0022101918,0.0009955440000000001,0.0036622240000000004,-0.0030633730000000003,5.708,0,0
0.004160648,-0.00241763,0.0012156518,0.003938976,-0.005498441000000001,5.709,0,0
0.003720312,-0.002093472,0.0012156952,0.0028905382000000003,-0.007287222,5.71,0,0
0.0027586094,-0.00138458,0.000868952,0.0018582562000000003,-0.006856114,5.711,0,0
0.0020941194,-0.0008240926,0.0008325428,0.0009433078,-0.0056389532,5.712,0,0
0.0011147724000000001,-6.599259999999995e-05,0.0009469568,-0.0005373342000000001,-0.0041803084,5.713,0,0
-0.00012844559999999991,0.0006233214,0.0005761416,-0.0018487782000000002,-0.0018697404,5.714,0,0
-0.0010309995999999999,0.0010916428000000001,0.00019265359999999997,-0.0024059944000000004,0.0007397036000000002,5.715,0,0
-0.001910035,0.0016678428,0.00013763659999999994,-0.0026465744,0.0026676716,5.716,0,0
-0.0032322749999999997,0.0019341254000000002,-0.0002983594000000001,-0.0031370680000000002,0.0041740648,5.717,0,0
-0.0041045840000000005,0.0015426452000000001,-0.0011131014000000002,-0.003091358,0.005724104000000001,5.718,0,0
-0.0038357540000000002,0.0011990772000000003,-0.0011476132,-0.0023679008,0.006371978,5.719,0,0
-0.0032518917400000003,0.0009780636000000004,-0.0011932312000000002,-0.0018547634,0.00598423,5.72,0,0
-0.00246252154,0.0001549816,-0.001582717,-0.0014343622,0.005245944000000001,5.721,0,0
-0.0007681515400000002,-0.0006246244000000001,-0.0016840230000000002,-0.000760303,0.003688844,5.722,0,0
0.0008720564600000001,-0.0011790442,-0.0015619030000000001,-0.00026762979999999997,0.0013058600000000003,5.723,0,0
0.00132738846,-0.0014148902,-0.0016701336,-0.000213956,-0.00037680799999999996,5.724,0,0
0.0018597882,-0.0013895679999999999,-0.0017316296000000001,0.00020362060000000005,-0.0014136700000000001,5.725,0,0
0.002523338,-0.001470218,-0.0013628008000000002,0.0009321034000000001,-0.0029768900000000003,5.726,0,0
0.0021613918,-0.0009745542,-0.0010268616,0.0011983062000000002,-0.003846326,5.727,0,0
0.0017518098000000003,-0.00020149019999999998,-0.0008066198000000001,0.0014781270000000003,-0.0037351619999999998,5.728,0,0
0.0019084298,0.00014918899999999998,-0.0007862708,0.0015581040000000003,-0.003793604,5.729,0,0
0.0010539658,0.0006779770000000001,-0.0007714708000000001,0.0007550800000000003,-0.0037944100000000002,5.73,0,0
-0.0002578522,0.0012066160000000002,-0.0006578534,-0.00037962,-0.002751194,5.731,0,0
-0.0010581000000000002,0.0009872284,-0.0005241942,-0.00114079,-0.001052308,5.732,0,0
-0.002103438,0.0011282644,-0.0004416276000000001,-0.0017419059999999999,0.00033449400000000007,5.733,0,0
-0.003010058,0.0017910912,-3.770900000000008e-05,-0.0021415419999999998,0.00199827,5.734,0,0
-0.00325622,0.0017569392,0.0005770630000000001,-0.0015133657999999999,0.0034967239999999997,5.735,0,0
-0.00256979,0.001678683,0.0010529588000000002,-0.0007871688,0.003876388,5.736,0,0
-0.0016233099999999998,0.0016870258,0.0012783024000000002,-0.0002965227999999999,0.0036023199999999996,5.737,0,0
-0.0008165325999999999,0.0007528058,0.001217908,0.00043247720000000003,0.0029268352,5.738,0,0
0.0004328994000000001,-0.00038866020000000005,0.0014370000000000001,0.0010201172000000001,0.0012180951999999998,5.739,0,0
0.0016791574,-0.0009408728000000002,0.0014332220000000003,0.001330355,-0.0006440928000000001,5.74,0,0
0.0022019154,-0.0015244256,0.0009729906000000002,0.001621718,-0.0017151628000000002,5.741,0,0
0.0027405974,-0.0023619666000000003,0.0009931506000000001,0.002118372,-0.0027929068000000002,5.742,0,0
0.003138884,-0.0026700966000000005,0.0012699006000000002,0.0020990180000000002,-0.00384972,5.743,0,0
0.0022921646000000004,-0.0026361666000000003,0.0010351066000000003,0.0018208974,-0.004044986,5.744,0,0
0.0016290739999999999,-0.002811628,0.0007985370000000001,0.0015496070000000002,-0.003514872,5.745,0,0
0.0011310716,-0.0026302320000000006,0.0005953044000000001,0.0010504408,-0.0033051120000000002,5.746,0,0
-0.0004680244000000001,-0.0017588304000000004,9.989839999999999e-05,0.0005657698,-0.0027114982,5.747,0,0
-0.0014636204000000002,-0.0008010325999999999,-0.00027476340000000005,8.319659999999997e-05,-0.0012173962,5.748,0,0
-0.001582807,-0.0003951926,-0.0005401084,-0.00035067280000000006,-0.00012479420000000003,5.749,0,0
-0.0025163084000000002,0.00020086939999999998,-0.0006182578,-0.0008119724000000001,0.00040986979999999994,5.75,0,0
-0.003494978,0.0009270914,-0.000438136,-0.0011895762,0.0018385578,5.751,0,0
-0.0031536540000000005,0.0010150640000000002,-0.00024130400000000002,-0.0011813324000000001,0.003254242,5.752,0,0
-0.0026472870000000003,0.0009238736000000001,4.547460000000001e-05,-0.0011737784,0.003240532,5.753,0,0
-0.0026148210000000007,0.0010678976000000001,0.0003967296,-0.0010034492,0.00355837,5.754,0,0
-0.0017303704000000003,0.0008859892000000001,0.0007509106,-0.0002423931999999999,0.0037010840000000003,5.755,0,0
-0.00037424240000000003,0.00021310320000000004,0.0011737488000000001,0.00017897020000000004,0.0021356680000000003,5.756,0,0
0.0006551355999999999,7.433660000000006e-05,0.0014443548,-0.0001864266,0.00026630200000000005,5.757,0,0
0.0017948306,-3.366799999999966e-06,0.00148191,-0.0002967614,-0.0007942420000000001,5.758,0,0
0.0029183446,-0.00012312719999999996,0.0013463778,-0.00041691260000000006,-0.0021865620000000004,5.759,0,0
0.003186196,0.0004255632,0.0010948956,-0.0013357386000000001,-0.003310472,5.76,0,0
0.0029037862000000003,0.0011348212000000001,0.0007135396,-0.001613064,-0.0028899460000000004,5.761,0,0
0.0028232962000000004,0.0015260016000000001,0.0004858968,-0.001295305,-0.0024583266000000005,5.762,0,0
0.0021282282000000003,0.0018036056,0.0004178122,-0.0012397145999999998,-0.0022221906,5.763,0,0
0.0011489726,0.002280854,-7.692959999999998e-05,-0.0012117446,-0.0011653686000000002,5.764,0,0
0.0009433332,0.002147154,-0.0005241274,-0.0010505426,0.00020728339999999997,5.765,0,0
0.0008104750000000001,0.0018379758000000002,-0.0004258558,-0.0008994324000000001,0.0011738694,5.766,0,0
-4.1405e-05,0.0019657658,-0.00035547160000000004,-0.0010704572000000002,0.0025098340000000003,5.767,0,0
-0.000838681,0.00171402332,-0.000740489,-0.0007765564,0.004006468000000001,5.768,0,0
-0.0007547614000000001,0.0010901811200000001,-0.000843737,4.169599999999927e-06,0.004327512,5.769,0,0
-0.0006437854000000002,0.00054954972,-0.000954971,0.0005292896,0.0041484980000000005,5.77,0,0
-0.0004694762,-7.166008000000003e-05,-0.0015688686,0.0008538626,0.0038854160000000005,5.771,0,0
0.00045161380000000007,-0.00097097208,-0.0017118282,0.0014346164,0.0025060056,5.772,0,0
0.0010624888000000002,-0.0013807256,-0.0016729868,0.0017922992000000003,0.0005947456,5.773,0,0
0.0010778894,-0.001468224,-0.0017261548000000002,0.0016285392,-0.00047257240000000007,5.774,0,0
0.0012103908000000003,-0.0016535145999999998,-0.0013952760000000002,0.0017379252000000003,-0.0013967184,5.775,0,0
0.0011148106,-0.0018044906,-0.0012077300000000002,0.001887064,-0.0027067684,5.776,0,0
0.00033295860000000005,-0.0017110386,-0.0016368758000000001,0.0015823305999999998,-0.0032369680000000002,5.777,0,0
-0.00011523840000000001,-0.0014151988,-0.0016543412000000002,0.0012110716000000002,-0.0027036664,5.778,0,0
3.86904e-05,-0.0016755742,-0.0013926892000000002,0.0007818970000000001,-0.0024050992,5.779,0,0
-0.0006417876000000002,-0.0016443996000000002,-0.0016982160000000002,7.252700000000007e-05,-0.0021829232000000003,5.78,0,0
-0.0017753086000000002,-0.0006615535999999999,-0.0015678740000000001,-0.00042281100000000004,-0.0008144172000000002,5.781,0,0
-0.0019969826,0.00016176240000000006,-0.0009305182,-0.000719102,0.0005513468,5.782,0,0
-0.0020842246,0.0003725798,-0.0005105762000000001,-0.0011631990000000002,0.0009547112000000001,5.783,0,0
-0.002703,0.0006939544000000001,5.1325800000000016e-05,-0.0013927724000000002,0.0014821300000000001,5.784,0,0
-0.0023621392,0.0008382960000000002,0.0007399398000000001,-0.0012712423999999998,0.001973818,5.785,0,0
-0.0013988142,0.0002586400000000001,0.0011776618,-0.0016121403999999999,0.0014502976000000001,5.786,0,0
-0.0013316122,-0.00040941800000000004,0.0013667000000000002,-0.001998374,0.0008486052000000001,5.787,0,0
-0.0009172044,-0.0007702852,0.001697166,-0.0015182089999999997,0.0006012806,5.788,0,0
0.00029046759999999997,-0.0008855078000000001,0.002117692,-0.0010285937999999998,4.9388600000000024e-05,5.789,0,0
0.0007242648,-0.0008931420000000001,0.0021231600000000002,-0.0006048995999999999,-0.0005239814000000001,5.79,0,0
0.0008892494000000001,-0.0008425616,0.002217732,0.00013105840000000003,-0.0009504390000000001,5.791,0,0
0.0015298714000000003,-0.000815215,0.0023871,0.000744643,-0.0014933326000000002,5.792,0,0
0.0016303948000000001,-0.0007172810000000001,0.0018012456000000001,0.0005570624,-0.0020192660000000005,5.793,0,0
0.0009748454000000001,-0.0004787712000000001,0.0007373496000000002,0.00023478840000000004,-0.0019285862000000002,5.794,0,0
0.0007556144000000001,-0.00020328920000000007,0.0002361696000000001,0.0004551922,-0.0019321622000000001,5.795,0,0
0.000763916,0.00019535639999999996,-7.192019999999996e-05,0.0006023082,-0.0023105062000000004,5.796,0,0
0.00026655599999999993,0.0008938378,-0.0005940892600000001,0.0007477356,-0.0019266502,5.797,0,0
-0.00016073119999999996,0.0015346798000000002,-0.00073743866,0.0011394592,-0.0011110922,5.798,0,0
-0.0003666116,0.0015843636,-0.00062355486,0.0013725924,-0.0007201460000000001,5.799,0,0
-0.0004830773999999999,0.001413514,-0.0008105068599999999,0.0008326478000000001,0.0003568780000000001,5.8,0,0
-0.0008070866,0.0013964899999999998,-0.00129679306,0.0004739065599999999,0.0023719360000000003,5.801,0,0
-0.0006110626,0.000797821,-0.0013563596,0.00046769496,0.003324862,5.802,0,0
-0.00021212380000000002,0.00024230920000000003,-0.0011068294,-6.307964000000004e-05,0.003472572,5.803,0,0
-0.000446304,0.00044333560000000004,-0.0011336008,-0.00026734644000000004,0.003850922,5.804,0,0
-0.0002803572,0.00027798,-0.0010692608,-9.158018000000003e-05,0.0033532839999999998,5.805,0,0
-1.4540039999999982e-05,1.4910799999999973e-05,-0.0006376278,-0.00043934894000000003,0.0015610299999999997,5.806,0,0
-0.00026640004000000003,0.0002763486,-0.0003862961999999999,-0.00078847434,0.0001606,5.807,0,0
-0.00023045344000000001,0.00017106019999999997,-0.0001618926,-0.00061364574,-0.000653676,5.808,0,0
0.00048759256000000006,-0.0004389938,0.000532579,-0.00043997913999999994,-0.0018076660000000003,5.809,0,0
0.0007999445600000001,-0.000513447,0.001261657,-0.000371918,-0.0024300100000000002,5.81,0,0
0.0009282892000000002,-0.00043337960000000005,0.0014160318000000002,9.013520000000002e-05,-0.0017928044000000002,5.811,0,0
0.0016349192000000002,-0.0004182884000000001,0.0013835514000000001,0.00045280820000000003,-0.0011774580000000002,5.812,0,0
0.0020588078000000004,0.00013373380000000003,0.0010841974,0.00039919600000000005,-0.0012673860000000001,5.813,0,0
0.0017261756000000001,0.0008207098,0.00048248219999999997,0.000506388,-0.0009135079999999999,5.814,0,0
0.0011629060000000002,0.0011673028,0.0003355618,0.0006831072,-0.00031704599999999997,5.815,0,0
0.0008211582000000002,0.0011808612,0.00025446940000000003,0.0006590840000000001,-0.00034583959999999995,5.816,0,0
-0.00020704779999999997,0.0008700342000000003,0.00010439008000000004,0.000359478,-0.0002510056,5.817,0,0
-0.0012699758,0.00036955819999999993,0.00039994808,0.0005124552,0.0006861724,5.818,0,0
-0.0011467580000000001,9.369740000000001e-05,0.00075233728,0.000807561,0.0010723424000000001,5.819,0,0
-0.0011084104000000001,0.00011763099999999999,0.00074555268,0.000788601,0.0009136126,5.82,0,0
-0.0009970576,9.210379999999998e-05,0.00116941328,0.000991099,0.0011634546000000002,5.821,0,0
-0.00012508360000000002,-3.87652e-05,0.0013184770000000002,0.0012221952,0.0011072664000000001,5.822,0,0
0.0003144684,-0.0001579772,0.00048639500000000003,0.0009127361999999999,0.0006925265600000001,5.823,0,0
0.0001875418,-0.0006767424000000001,-0.000209821,0.00021831219999999998,0.0006449127600000001,5.824,0,0
0.00019783979999999998,-0.0013464666000000001,-0.0004795894,-3.845980000000001e-05,0.0007186157600000001,5.825,0,0
4.316099999999995e-05,-0.0016475920000000002,-0.001062347,-0.0004686498,0.00032496476,5.826,0,0
-0.00026199460000000003,-0.0014842444000000002,-0.001790207,-0.0008012908,0.00024124680200000005,5.827,0,0
-0.0003373606,-0.0011597708000000003,-0.001636901,-0.00048449820000000005,0.00010430344200000006,5.828,0,0
-0.000564534,-0.0005553620000000001,-0.0014042410000000003,-0.00025852420000000006,-0.000488328758,5.829,0,0
-0.001065256,0.00039765800000000006,-0.0015754956000000003,-0.00032471480000000004,-0.000922895958,5.83,0,0
-0.001116876,0.0009059580000000001,-0.001662678,-0.000311329,-0.000835806278,5.831,0,0
-0.0007495184000000002,0.000820208,-0.001556384,-0.0001201742,-0.0003006245200000001,5.832,0,0
-0.0008197862000000002,0.0005532008000000001,-0.001425866,-0.0001797092,0.00015917468000000004,5.833,0,0
-0.0011089758000000002,0.00022862700000000002,-0.0010635713999999998,-0.0003272012,0.0007842566799999999,5.834,0,0
-0.0005763226000000001,-0.0005355970000000001,-0.00020871940000000003,-0.0004437426,0.0015217246800000002,5.835,0,0
-0.00020183520000000002,-0.0012501550000000002,0.0007754745999999999,-0.0005077612000000001,0.0016755996,5.836,0,0
-0.0004271324,-0.0013808926,0.0016657546,-0.0005664794,0.000957603,5.837,0,0
0.0001741534,-0.0014066769999999998,0.0019907432,-0.000335339,0.0002538849999999999,5.838,0,0
0.0012902094,-0.001635246,0.0020448506,5.817299999999993e-05,-0.000553755,5.839,0,0
0.0018826202000000003,-0.0015943440000000001,0.0015518562000000002,0.0002943284,-0.0018147750000000002,5.84,0,0
0.0018888776000000002,-0.0011498624000000001,0.0005977100000000001,0.0007025931999999999,-0.0024203006000000004,5.841,0,0
0.0020444708,-0.0008088868000000001,0.00022898640000000006,0.0011707874,-0.0023396480000000006,5.842,0,0
0.0018126488,-0.0002974368000000001,0.00018108998000000004,0.0011724754,-0.002341614,5.843,0,0
0.0009380488000000001,0.0003603452,0.00022463798000000004,0.0008185351999999999,-0.0023117320000000004,5.844,0,0
0.0006743708000000001,0.0008088472,0.00052436238,0.0007123455999999998,-0.0021304920000000003,5.845,0,0
0.0008136800000000001,0.0012102996000000002,0.0008126759800000001,0.0004736035999999999,-0.002246884,5.846,0,0
6.860600000000003e-05,0.00137315,0.0006954155800000001,5.1065599999999994e-05,-0.002388798,5.847,0,0
-0.000650888,0.0012590292000000001,0.00046222539999999995,-0.00037824600000000005,-0.002237536,5.848,0,0
-0.0008333640000000001,0.0012713352,0.00021580539999999999,-0.0006982338,-0.0017837714,5.849,0,0
-0.0017895180000000001,0.0013238792,-0.00017779415200000001,-0.0009285716,-0.0007556453999999999,5.85,0,0
-0.00255374,0.0010507148,-0.000385953152,-0.0009711890000000001,0.0008292465999999999,5.851,0,0
-0.002364186,0.0007105358,-0.00022951375200000001,-0.0009745890000000001,0.0018331286,5.852,0,0
-0.002089412,0.0006806564000000001,3.231844800000001e-05,-0.0011634934000000002,0.001884083,5.853,0,0
-0.002019628,0.0006501904000000001,-0.00011784995200000001,-0.0005395656000000001,0.0020524422000000003,5.854,0,0
-0.0013559102000000002,0.0002621781999999999,-0.00029233480000000005,0.00019913839999999994,0.0018121790000000001,5.855,0,0
-0.0005007562000000001,-4.079600000000055e-06,1.4460799999999995e-05,5.684639999999994e-05,0.0005567070000000001,5.856,0,0
-0.00032269180000000006,0.00017222419999999992,0.0003372033999999999,3.111379999999991e-05,7.279000000000009e-06,5.857,0,0
-0.0002206092,0.00011081699999999995,0.0008193692,9.932580000000004e-05,0.0008214666000000001,5.858,0,0
0.00031630080000000005,-0.0002548962000000001,0.0013235936,-0.0006143780000000001,0.0010314308000000001,5.859,0,0
0.000712605,-0.00034089800000000007,0.0013734196,-0.0013481540000000003,0.0007076090000000001,5.86,0,0
0.0005889604,-0.00025075680000000004,0.0012898468,-0.0014021866000000003,0.001175971,5.861,0,0
0.001032546,-0.00035322500000000003,0.0010691128000000002,-0.0013026954000000001,0.0011954730000000003,5.862,0,0
0.0015375814000000002,-0.0004900294,0.00048054960000000013,-0.0011565972000000002,0.00025924100000000006,5.863,0,0
0.0012092254,-0.00029275400000000005,4.058600000000006e-05,-0.0009708192,4.559039999999998e-05,5.864,0,0
0.0010433414000000003,4.573280000000003e-05,0.00017363258000000002,-0.0009465572000000001,0.0004332346000000001,5.865,0,0
0.0009124966000000003,0.00024094920000000003,0.00016889158000000002,-0.0010720972,0.00012366880000000004,5.866,0,0
-4.4201399999999925e-05,0.0007723406,-0.00035554642000000004,-0.0014170038,0.00017945079999999997,5.867,0,0
-0.0007484354,0.0012468484,-0.0009444832200000001,-0.0011291819999999998,0.0011128628000000001,5.868,0,0
-0.00062956726,0.0011019526,-0.0013872716200000002,-0.0003555459999999999,0.0013479074,5.869,0,0
-0.0007140652600000001,0.0011261454,-0.0020191518,-9.269199999999996e-05,0.0013697402,5.87,0,0
-0.0005003198600000001,0.0011123142,-0.002592622,0.0004475208000000001,0.0017339459999999999,5.871,0,0
0.00052391214,0.00038922620000000007,-0.0024022030000000003,0.0009574388000000001,0.001199442,5.872,0,0
0.0010042423400000002,-0.0003542218,-0.0018374294000000002,0.0007225388000000001,0.00012432399999999982,5.873,0,0
0.000816131,-0.0005674242,-0.0013242334,0.0006808448,-0.0004299640000000001,5.874,0,0
0.0005663316000000001,-0.0008809956,-0.0004031854000000001,0.0015455848,-0.0007713968000000001,5.875,0,0
0.00031499939999999997,-0.0011935838,0.0005129006000000001,0.00196749,-0.0013940568000000001,5.876,0,0
-2.432760000000001e-05,-0.0009814278,0.0006174744000000002,0.00176176072,-0.0013631088,5.877,0,0
-9.577599999999999e-05,-0.0007291686,0.0005279918000000001,0.00227365072,-0.0007573322,5.878,0,0
0.0005989612,-0.0004511357000000001,0.0005426718,0.0021259427199999997,-0.0006274298,5.879,0,0
0.0009339286000000001,4.1082099999999937e-05,5.6488000000000046e-05,0.00114929912,-0.0005847748,5.88,0,0
0.0007723356000000001,0.00031440890000000005,-0.0005826730000000001,0.00066828452,-0.000176472,5.881,0,0
0.0007668466,6.988890000000003e-05,-0.0007858458000000001,0.0006088754,0.00010826020000000002,5.882,0,0
0.0006334244000000001,-0.0001682643,-0.0008695368,0.00042559140000000004,3.1789400000000004e-05,5.883,0,0
-0.00024026560000000002,-8.863899999999991e-05,-0.0010107112,5.3262200000000007e-05,0.000470455,5.884,0,0
-0.0007805976,-0.0005095217999999999,-0.0011237314,-0.0003340662,0.0011705228,5.885,0,0
-0.00040285840000000005,-0.0011270986,-0.0010482292,-0.0007912216,0.001195282,5.886,0,0
-0.000476397,-0.0011930185999999999,-0.000752562,-0.0008050198000000001,0.0011235858,5.887,0,0
-0.0003486314000000001,-0.0012474466,-0.0005880402,-0.0007412957999999999,0.001212519,5.888,0,0
0.0003989966,-0.0016800208000000002,-0.0003244772,-0.00043920780000000005,0.000402737,5.889,0,0
0.000641249398,-0.00179625,0.0001478472,0.0003418462,-0.000766169,5.89,0,0
0.0006095573980000001,-0.001378168,0.00047420400000000004,0.0010441622,-0.0010370006,5.891,0,0
0.001004091998,-0.0010982354,0.0005477438000000001,0.0013447708000000002,-0.00121074,5.892,0,0
0.000738406998,-0.0006523476,0.00037052200000000014,0.0008375086000000001,-0.001621365,5.893,0,0
-2.9815002000000085e-05,9.440400000000019e-06,9.479399999999955e-06,0.0004939740000000001,-0.0013223010000000001,5.894,0,0
-0.00011982300000000012,0.0004919524000000001,-9.695599999999998e-05,0.000457196,-0.0008888096,5.895,0,0
-0.00042071160000000003,0.0009503844,-1.1280000000000068e-05,-0.00013778599999999998,-0.0010846480000000001,5.896,0,0
-0.0011405136,0.0014059318,7.257899999999997e-05,-0.000814006,-0.0011695246000000001,5.897,0,0
-0.0011403972,0.0014100134,0.0006118650000000001,-0.0009880158,-0.0009566306,5.898,0,0
-0.00065917,0.000994998,0.0013814110000000001,-0.001017054,-0.0010122646000000001,5.899,0,0
-0.0006475462,0.0008424148000000002,0.001839286,-0.0013759348000000004,-0.0010401826000000002,5.9,0,0
-0.0008964096,0.0009035228000000002,0.0019110000000000002,-0.0012534880000000003,-1.2600599999999969e-05,5.901,0,0
-0.0005635540000000001,0.0009603048,0.0019528540000000002,-0.00029535200000000003,0.0009075274,5.902,0,0
-0.000274113,0.0012343834,0.0017621318000000002,0.000492708,0.0008222464,5.903,0,0
-0.0003223522,0.0014497468,0.0011713056,0.0005630988,0.001199349,5.904,0,0
0.00022972919999999998,0.0012207898,0.0005572736,0.0005527078000000001,0.0015664796000000002,5.905,0,0
0.0009452632000000001,0.0008792603999999999,-0.00011677040000000001,0.0006238938,0.0007052906000000001,5.906,0,0
0.0011672832000000001,0.0005717200000000001,-0.0009581724000000001,-0.00015959220000000003,0.0001369322,5.907,0,0
0.0013043496,0.0003232668,-0.0013586022000000003,-0.0007725698,0.0004728172,5.908,0,0
0.0016289396,6.94976e-05,-0.0013372236000000002,-0.0006671168000000001,3.623459999999994e-05,5.909,0,0
0.0011234576,-0.00022398620000000006,-0.0015901016000000002,-0.000678186,-0.0005691174000000002,5.91,0,0
0.0005109936,-0.0005013388000000001,-0.0014173586,-0.0004747498,-0.0003333602000000001,5.911,0,0
0.0006444080000000001,-0.0009151444,-0.0006160466000000001,8.882200000000001e-06,-0.00039987400000000015,5.912,0,0
0.000668842,-0.0012853132,-7.540659999999996e-05,7.038660000000001e-05,-0.0010491320000000001,5.913,0,0
0.00039675260000000004,-0.0010949395999999998,1.881640000000002e-05,-0.0004066512,-0.0007700696000000001,5.914,0,0
0.0005331952,-0.0005560464000000001,0.0006441264,-0.0006186502000000001,0.0002281184,5.915,0,0
0.0008644668,-0.00047804720000000007,0.0014494894000000001,-0.0011441872000000001,0.0007519722000000001,5.916,0,0
0.0002825647999999999,-0.00011758520000000006,0.0015421214000000002,-0.0020646312,0.0015749404000000003,5.917,0,0
-0.00025002320000000006,0.00020648299999999998,0.0014072342000000001,-0.0021005844,0.0029453524,5.918,0,0
-0.0004225086000000001,-0.00019217340000000007,0.0014414624,-0.0014106242,0.0033388320000000003,5.919,0,0
-0.0007878112000000001,6.981739999999993e-05,0.0014095684,-0.0008225621999999998,0.0026228314,5.92,0,0
-0.0011225308000000001,0.0007256742,0.0008269368,-0.00019951420000000004,0.0020642907620000003,5.921,0,0
-0.0011440288000000001,0.0007718488,0.0006507882,0.0005102829800000001,0.0009189447620000001,5.922,0,0
-0.0015407308,0.0008069627999999999,0.0009234494,0.00057783498,-0.000700059238,5.923,0,0
-0.0022677780000000002,0.0011096456,0.0005707698000000001,0.00033928798000000006,-0.001146040238,5.924,0,0
-0.0022707820000000003,0.0007089876,-0.00012616620000000005,0.00034760598,-0.001046969638,5.925,0,0
-0.0022202534000000003,5.5394399999999925e-05,-0.0005640566,0.00035593798000000006,-0.001625353,5.926,0,0
-0.0021876134000000003,5.2956199999999986e-05,-0.00097696,0.0004494204,-0.001844983,5.927,0,0
-0.0012199074000000002,0.000163186,-0.001604362,0.0011009008,-0.0014176310000000001,5.928,0,0
0.00013146060000000006,-3.4996800000000003e-05,-0.0017196520000000001,0.0016204376000000002,-0.002124988,5.929,0,0
0.00048176220000000007,-0.0002036746,-0.001488982,0.0016187296000000002,-0.002915958,5.93,0,0
0.0006255770000000001,-9.397199999999997e-05,-0.0013832780000000002,0.0020752436000000003,-0.0024570568000000003,5.931,0,0
0.0013608510000000002,-0.0006023964000000001,-0.001397766,0.0025584740000000003,-0.0023453868,5.932,0,0
0.0016517230000000001,-0.0008786061999999999,-0.001490842,0.0024012240000000004,-0.0024688388000000004,5.933,0,0
0.0014080890000000002,-0.00026251820000000006,-0.0014537060000000001,0.0023029680000000003,-0.0013972588,5.934,0,0
0.0015859594000000002,-0.0002935124000000001,-0.0013106198000000001,0.00230267,-0.00045930459999999994,5.935,0,0
0.0017260248,-0.0006427598000000001,-0.0010438476,0.0016460046000000002,-0.00040079899999999997,5.936,0,0
0.0009976088000000001,-0.0005025778,-0.0007655336000000001,0.0009658122000000001,0.0005209710000000001,5.937,0,0
0.0004662732000000001,-0.0007519040000000001,-0.00015282160000000008,0.0005259328000000001,0.001421249,5.938,0,0
0.00045616920000000004,-0.0010603254,0.0005168384000000001,6.386299999999998e-05,0.0009127050000000001,5.939,0,0
0.0001514836,-0.0006037134,0.0006647218,-2.949740000000002e-05,0.0004776068000000001,5.94,0,0
-0.00023324320000000002,-0.0002956976,0.0009827116,-0.00010061800000000002,0.000872952,5.941,0,0
-0.00018005339999999998,-2.6346600000000047e-05,0.0015471836,-6.088840000000002e-05,0.0007727680000000001,5.942,0,0
-0.00021686993999999997,0.00035773559999999996,0.0016785356,-0.00024714100000000004,0.000215376,5.943,0,0
-0.0007526379399999999,0.00022445040000000004,0.00136020312,-0.0007666332,0.0008404720000000001,5.944,0,0
-0.00109860034,-8.907720000000002e-05,0.0011494455200000001,-0.0011405688,0.0017296320000000005,5.945,0,0
-0.00100745834,-3.1258000000000303e-07,0.00078597552,-0.0014862628000000002,0.0014326404000000001,5.946,0,0
-0.00122154014,0.00010180142,5.402612000000005e-05,-0.0017646640000000002,0.0011459106,5.947,0,0
-0.0014054644000000003,0.00017791742000000004,-0.00031022898,-0.0019531100000000003,0.0015853686000000002,5.948,0,0
-0.0009862714000000003,0.00061391202,-0.00011960969999999998,-0.0020417400000000002,0.0015975086000000003,5.949,0,0
-0.0008491213999999999,0.00097717962,0.00035548430000000003,-0.00224717,0.0013775386000000002,5.95,0,0
-0.0011007534,0.0012368412,0.0007015383,-0.0020519512000000003,0.0018598322000000001,5.951,0,0
-0.0009269654,0.0009573554,0.0009057425,-0.0017694432000000002,0.002182776,5.952,0,0
-0.0007897968,0.0004611912,0.0011882176,-0.0016982791999999999,0.0019320174,5.953,0,0
-0.0010685434,0.0002085206,0.0012838408,-0.0012762692,0.0015588084000000002,5.954,0,0
-0.0007057472,-0.0004123274,0.0010433338,-0.0009436577999999999,0.0009385664000000003,5.955,0,0
-4.652120000000004e-05,-0.0012242633999999999,0.0006383522,-0.0008022709999999999,1.0670399999999978e-05,5.956,0,0
0.0001678074,-0.0014076846000000002,0.00016560939999999997,-0.0008688062,-0.00046407420000000004,5.957,0,0
0.00038814100000000005,-0.0013285166,-0.0005900246000000001,-0.0008697782000000002,-0.00028817560000000004,5.958,0,0
0.0008100766000000001,-0.0016158390000000002,-0.0012951906,-0.0007363466000000001,-0.00034240160000000003,5.959,0,0
0.000734741,-0.0013546162000000002,-0.0016102616000000002,-0.0008446080000000001,-0.00016746220000000002,5.96,0,0
0.00044162099999999995,-0.0007603004000000001,-0.0018251220000000002,-0.0009045904000000001,0.0004408398,5.961,0,0
0.0009545743999999998,-0.0006105862,-0.0017947040000000003,-0.0006017959999999999,0.00039492019999999995,5.962,0,0
0.0010980786,-0.0003693562,-0.0015157738,-0.0003443384,-0.00014264120000000006,5.963,0,0
0.0004284746,0.0001716408,-0.0013651058,-0.00015582379999999998,0.00018402979999999994,5.964,0,0
0.00040565356000000005,0.00025326760000000004,-0.0013960338,0.0005033022,0.0006169344,5.965,0,0
0.0008589455600000001,-5.589219999999997e-05,-0.0012775500000000001,0.000863529,0.0002239364,5.966,0,0
0.00035704156000000004,0.00018676,-0.0009228624,0.0006616358,0.00018931740000000005,5.967,0,0
-0.00031669444000000004,0.0001915,-0.0006222634,0.0009824362000000002,0.0002437258,5.968,0,0
-0.00016798724000000002,-0.00026161,-0.00022831860000000005,0.001148156,-0.0006185442,5.969,0,0
-2.9750799999999993e-05,9.719640000000005e-05,0.00019037460000000003,0.0008117818000000001,-0.0017278002,5.97,0,0
-9.852799999999975e-06,0.0008326744000000001,0.00038971420000000006,0.0011135598,-0.0019516482,5.971,0,0
0.0004466332,0.001238502,0.0005908280000000001,0.0015428978,-0.0023407569999999997,5.972,0,0
0.0009506612000000001,0.0014948920000000003,0.0005954044,0.0014152618000000002,-0.002861916,5.973,0,0
0.0010254282000000002,0.0017695692,0.0005091168,0.0014325278,-0.00231053,5.974,0,0
0.0007940314000000002,0.0016670772,0.0006136936,0.00183342,-0.0016344946000000002,5.975,0,0
0.0002360018,0.0010786148000000001,0.0006046668000000001,0.0014056662,-0.0017759986000000002,5.976,0,0
-0.0004912242,0.0005138167999999999,0.0004097172,0.0009117002,-0.0015897586,5.977,0,0
-0.0007729950000000002,0.0001345748,0.0005419816,0.0014105882,-0.0010304276,5.978,0,0
-0.0005347958000000001,-0.00040937840000000004,0.0007614264000000001,0.0015816622,-0.0016972336,5.979,0,0
-0.000360726,-0.0009656244000000001,0.0006617582,0.0013278042000000002,-0.002364699,5.98,0,0
-0.0002507474,-0.000967201,0.0009186316,0.00152505,-0.002206515,5.981,0,0
5.453660000000001e-05,-0.0007862926000000001,0.0013504578,0.0018563120000000004,-0.0020631064,5.982,0,0
0.00019840560000000004,-0.0005895602,0.0016492118,0.0012227234000000003,-0.0017468034,5.983,0,0
-0.0001841818,-0.0003606262,0.0017360518000000002,0.00023569140000000003,-0.0003316873999999999,5.984,0,0
-0.0004495704,-0.00021522160000000002,0.0016074232,-0.00018423900000000002,0.0009802166,5.985,0,0
-0.0003821038,-0.0003674666,0.0014797418,-0.0003635089999999999,0.0012741196000000002,5.986,0,0
-0.00044923939999999996,-0.0004040492,0.0010159068000000003,-0.000346407,0.001507854,5.987,0,0
-0.000342878,-8.003159999999993e-05,0.00022484679999999998,-1.144239999999999e-05,0.0012390086,5.988,0,0
-7.367676000000003e-05,9.096180000000008e-05,-0.00031546259999999996,0.0005985081,0.00036100079999999994,5.989,0,0
-9.962836000000001e-05,0.00021000720000000005,-0.0006673618,0.0004506785,-0.00021631920000000004,5.99,0,0
8.114839999999988e-06,0.000443322,-0.0011759424,-0.0003048915,0.00020986779999999998,5.991,0,0
0.00032656043999999997,0.00039486420000000005,-0.0012332542,-0.0006562147,0.0006200148,5.992,0,0
0.00039471004,0.0001564266,-0.0010507894,-0.0012488606999999999,0.0007353798,5.993,0,0
0.0004510408,0.0003402612,-0.0010271768000000001,-0.0014439193999999998,0.0012161016,5.994,0,0
0.000946992,0.00041538940000000003,-0.0008401202,-0.0006025914,0.0014916996000000002,5.995,0,0
0.0013706712,0.0005458122,-0.0007006942,-0.0002464214,0.0009604996000000002,5.996,0,0
0.000980217,0.0008246582,-0.0007705314,-0.0006002502,0.00014108159999999997,5.997,0,0
0.0006941604000000001,0.000729368,-0.0007171202,-0.0004687946,1.2401400000000047e-05,5.998,0,0
0.0007982064,0.0005254898,-0.00040223699999999995,-0.00046286319999999995,-0.00032068369999999996,5.999,0,0
0.0002684784,0.0004930008,5.206040000000007e-05,-0.0013085931999999999,-0.0007878281,6.0,0,0
-0.0005110316,0.0003723412,0.0009079344000000001,-0.0015147772000000002,-0.0002513761,6.001,0,0
-0.0003697668,9.76079999999999e-06,0.0017479324000000001,-0.00107619282,0.00045300190000000006,6.002,0,0
5.786000000000354e-07,-5.676940000000002e-05,0.0019998944,-0.00136276642,0.0004901825,6.003,0,0
-0.00018151339999999996,8.494999999999979e-06,0.0018754626,-0.00173532562,0.0008545256000000001,6.004,0,0
0.00010998620000000004,-4.393660000000002e-05,0.0014502452,-0.0015768472200000001,0.0015056919999999999,6.005,0,0
0.0007018962,-0.00010298760000000004,0.0007993652000000001,-0.0014852012200000002,0.0010933232,6.006,0,0
0.0004736476,0.00023090479999999999,0.00011615939999999998,-0.0013651826000000006,0.0005555642000000001,6.007,0,0
-0.00010973040000000002,0.00034315759999999996,-0.0006008746,-0.0008228968000000001,0.0007930522000000001,6.008,0,0
-0.00039157640000000006,-0.00019423260000000012,-0.0010011112000000001,-0.00041836080000000006,0.0004586720000000001,6.009,0,0
-0.0006952400000000001,-0.0002977662000000001,-0.0010308054,-0.00025302216,-0.0001400328,6.01,0,0
-0.0011537882000000003,-0.0003107962000000001,-0.0015315154,4.217363999999998e-05,0.000291618,6.011,0,0
-0.0007694367999999999,-0.0007967882000000001,-0.0021712756000000005,0.00021251664000000001,0.00046757552000000006,6.012,0,0
1.8561199999999906e-05,-0.0009123410000000001,-0.0021509196,0.00042313684,-0.0003010584800000001,6.013,0,0
4.814719999999992e-05,-0.0004999612,-0.0020542696000000003,0.00067102244,-0.00073769028,6.014,0,0
0.00021304879999999986,-0.0003914352,-0.0022432940000000003,0.0007867408,-0.00082160548,6.015,0,0
0.00047073099999999995,-0.0001321552,-0.002044634,0.000582017,-0.00133970588,6.016,0,0
2.0965599999999893e-05,0.00042277480000000006,-0.0014342526000000002,-0.00035213099999999994,-0.0008700504000000002,6.017,0,0
-0.0007733744000000001,0.0005527768,-0.000969324,-0.0008072457999999999,0.0005991936,6.018,0,0
-0.0006816138000000001,0.0005084598,-0.0006412950000000001,-0.0005108153999999999,0.0011989136,6.019,0,0
-0.0004041534,0.0006128556000000001,-0.00028418700000000004,-0.0005231339999999999,0.0014943502000000003,6.02,0,0
-0.0005480518040000001,0.0007157006,0.000130574,-5.765999999999877e-06,0.0019754826,6.021,0,0
-0.00015062500399999997,0.0005341124,0.0003556764,0.0009353040000000002,0.0014989686000000002,6.022,0,0
0.00037416099600000004,0.0003802479999999999,0.0005103642,0.0010168870000000002,0.0003366386,6.023,0,0
0.0007697343960000002,0.00027076119999999996,0.0009277472000000001,0.0005214342,0.0005100866,6.024,0,0
0.000811662396,-0.0001295346000000001,0.0014293812,0.00039575140000000015,0.0011303580000000001,6.025,0,0
0.0007900088000000001,-0.0004979686000000001,0.0018015562,0.00043333740000000003,0.0006785886000000001,6.026,0,0
0.0006735449999999999,-0.0008608624,0.0018741564000000002,0.0003551394,0.0004930228,6.027,0,0
0.0006261284,-0.001097872,0.0016510820000000001,0.0006331212,0.0009148358000000001,6.028,0,0
0.0009077084,-0.0008874375999999999,0.00119575988,0.000939388,0.00017873980000000003,6.029,0,0
0.0008813404,-0.0007174862000000001,0.0006416978800000002,0.0011201256,-0.0009436322000000001,6.03,0,0
0.0009356232000000001,-0.0008910222000000001,-1.582171999999998e-05,0.0011904916,-0.0006601226000000001,6.031,0,0
0.0010111990000000002,-0.0009436602000000001,-0.00047390772,0.0012041116,-0.0006932008,6.032,0,0
0.0007364124000000001,-0.0009024822000000001,-0.00015116172000000002,0.0010875288000000002,-0.0012811558,6.033,0,0
8.86399999999965e-07,-0.0007690538000000001,1.7829200000000036e-05,0.0009448022,-0.0008778270000000001,6.034,0,0
-0.0005708116,-0.0003379812000000001,1.1289200000000016e-05,0.0009699092000000001,-0.0003983550000000001,6.035,0,0
-0.00043908599999999994,-3.088600000000037e-06,0.0005494348,0.00043185879999999997,-0.0009587372,6.036,0,0
-0.0008021788,0.0006195914,0.0006986739999999999,-0.00016946920000000007,-0.0009808432,6.037,0,0
-0.0014279256,0.0010102178000000002,0.00046624739999999996,2.1265599999999954e-05,-0.00047325559999999994,6.038,0,0
-0.00117631372,0.0007421534000000001,0.0005751506,0.00044961819999999995,-0.0010568384000000002,6.039,0,0
-0.0009972401199999999,0.0007038934000000001,0.0005510858,0.0005545136,-0.0016979264,6.04,0,0
-0.0015904265200000001,0.0006205126,0.0001876938,0.0008541026,-0.0016940064000000002,6.041,0,0
-0.0014362295200000001,0.00011744539999999999,0.00019639680000000002,0.0013602978000000002,-0.0017570664000000002,6.042,0,0
-0.00064338552,5.57194e-05,0.0004105574,0.0008996752,-0.0021750380000000002,6.043,0,0
-0.0009930014,0.000430811,0.0003969154,-9.954279999999999e-05,-0.0017519856000000002,6.044,0,0
-0.0009512174000000001,0.0001884243,0.0006155932,-0.0006254187999999999,-0.0006151956,6.045,0,0
-0.00022567340000000005,7.205289999999998e-05,0.0011344692,-0.0009170054000000001,0.00016219840000000014,6.046,0,0
-0.0003131024,0.00024533014,0.0013864602,-0.0013065286000000001,0.0008293844000000001,6.047,0,0
-0.0003893424,-0.00020119626000000005,0.0010794910000000001,-0.001561724,0.0017273564,6.048,0,0
-0.00012560680000000003,-0.0008942842600000001,0.00034866300000000003,-0.0015559559999999998,0.002433868,6.049,0,0
-0.00016814020000000004,-0.00102193356,-0.00053418,-0.001965468,0.002313278,6.05,0,0
-0.00042368520000000005,-0.0007359937600000001,-0.0011695822,-0.0022032320000000003,0.002303164,6.051,0,0
-0.00013595840000000002,-0.0003951058,-0.0012846338000000001,-0.001613988,0.0023278360000000002,6.052,0,0
0.0002147756,0.0001971082000000001,-0.0016070806,-0.000982526,0.002035716,6.053,0,0
0.0004346066,0.0008311982000000001,-0.0016724566,-0.00017389400000000012,0.0020521660000000002,6.054,0,0
0.0009415964000000001,0.0011427008,-0.0009292372,0.000995402,0.002158778,6.055,0,0
0.0013845614,0.0009860926,-0.0007814974200000001,0.0012967373999999998,0.0017703250000000001,6.056,0,0
0.0013368192,0.0006486716000000002,-0.0009636946200000001,0.0006442874,0.0013066246000000001,6.057,0,0
0.0011192024,0.000280903,-0.00047643682000000003,0.00025870259999999996,0.0013376806000000002,6.058,0,0
0.0013353158,-0.00010035760000000002,0.00028674118,-2.958280000000003e-05,0.0007410759600000002,6.059,0,0
0.0009825898,-0.0002662686,0.00042349098000000004,-0.0005482828599999999,-6.890603999999996e-05,6.06,0,0
0.00029216980000000006,-0.00022118259999999999,0.000306499,-0.00049368186,-0.00024408703999999996,6.061,0,0
0.0008546332000000001,-0.00033807840000000004,0.00038142540000000004,-1.2718260000000041e-05,-0.00085405664,6.062,0,0
0.001422992,-0.0004917378,0.00025074660000000003,3.128874e-05,-0.00177554664,6.063,0,0
0.0009370464000000001,-0.0004172514,-0.000169885,-9.989746e-05,-0.0020174620000000002,6.064,0,0
0.0009208874000000001,-0.00048103740000000005,-0.0006164942,-8.909720000000002e-05,-0.0021819179999999997,6.065,0,0
0.0013064662000000001,-0.0007233454,-0.0004980392,-0.0001533886,-0.002515102,6.066,0,0
0.0004734702000000001,-0.000589519,-0.0004924630000000001,-0.00035777220000000003,-0.0018807824,6.067,0,0
-0.0005396638,-0.0003490604000000001,-0.000739568,8.466160000000005e-05,-0.0012888824000000002,6.068,0,0
-0.0004535008000000001,-0.00039456319999999997,-0.0008471944,0.0008140612000000001,-0.0015663384000000002,6.069,0,0
-0.0008105178,-8.391680000000002e-05,-0.0010845564000000001,0.001045679,-0.0015682943999999997,6.07,0,0
-0.0015547846,0.0004345932,-0.0012757952,0.001246941,-0.0013062904,6.071,0,0
-0.0015933946,0.000540292,-0.0011958404,0.0012998212000000003,-0.001498716,6.072,0,0
-0.0013691226,0.0004248258,-0.000837483,0.0009943752000000003,-0.001355206,6.073,0,0
-0.0015220322,0.00017344680000000006,-0.00031538099999999994,0.00031506879999999995,-0.00038129200000000014,6.074,0,0
-0.0016809122000000002,-0.0005678211999999999,0.00034374640000000005,-0.0001597072,0.000266316,6.075,0,0
-0.0014631422,-0.0011995112,0.0008158866,-0.0002610122,0.0007673300000000001,6.076,0,0
-0.0013297208,-0.0012049652,0.000938208,-0.00020306539999999997,0.001416614,6.077,0,0
-0.0010769996000000001,-0.0008289676,0.0007395884,1.10946e-05,0.0015826280000000002,6.078,0,0
-0.0006189834000000002,-0.00045575959999999996,0.0006949062000000001,0.0002467748,0.001143507,6.079,0,0
-1.4369599999999965e-05,5.194720000000001e-05,0.0004767382000000001,0.0004100514,0.0008864124000000002,6.08,0,0
0.000516046,0.0006008172000000001,-0.00022218779999999994,0.0003207812,0.0010855084000000001,6.081,0,0
0.0012208066,0.00048327020000000007,-0.00012550099999999992,0.00031686659999999995,0.0007613776000000002,6.082,0,0
0.0014523174000000002,0.0002915688,-1.9382799999999926e-05,0.00020369979999999998,0.00012253560000000005,6.083,0,0
0.0007985474000000001,0.00016930400000000006,-0.00045037659999999993,0.0001377388,2.5679800000000025e-05,6.084,0,0
0.0006555878,-7.803279999999999e-05,-0.00016798399999999993,0.0007014782,-4.09019999999997e-06,6.085,0,0
0.0004845211200000001,-0.00017054720000000005,0.00033837900000000003,0.0010953664,-0.0005564222000000001,6.086,0,0
-0.00048215688,-7.722480000000005e-05,0.000353103,0.0009236402,-0.0005376782,6.087,0,0
-0.00124379088,6.641879999999999e-05,0.000643889,0.0007006164000000001,0.0003069818,6.088,0,0
-0.0009022548800000001,0.0004211356,0.0007455519999999999,0.00032067959999999997,0.0004860476,6.089,0,0
-0.0007344544799999999,0.0009991336000000001,0.00020870399999999993,-0.0004566084000000001,0.00033618419999999997,6.09,0,0
-0.0008890004000000001,0.00113815,0.00023920040000000001,-0.0010938464,0.0008195361999999999,6.091,0,0
-0.00014275840000000002,0.0013598502000000002,0.00037186240000000007,-0.0012564246000000001,0.0006474928,6.092,0,0
0.0007220116,0.0017256720000000001,0.0003092544,-0.001447922,-0.0003347052000000001,6.093,0,0
0.0010197256,0.001792,0.00048219280000000005,-0.0016389500000000001,-0.0002602316000000001,6.094,0,0
0.0012547290000000002,0.0017068539999999998,0.0006732684000000001,-0.0014375006000000002,3.2751199999999965e-05,6.095,0,0
0.0018046460000000002,0.001427324,0.0009552650000000001,-0.0012798471999999998,-0.0009556988,6.096,0,0
0.0014549620000000002,0.0012403428,0.000864487,-0.0012165604000000003,-0.0016738126,6.097,0,0
0.0008122420000000002,0.0008193924000000001,0.000311331,-0.0009587648000000001,-0.0016494926,6.098,0,0
0.0007371120000000002,0.0004012088,0.00015992360000000006,-0.0008014048000000001,-0.0021539392,6.099,0,0
0.00014793600000000004,0.0001429024,0.0002989095000000001,-0.0008489876,-0.00245075,6.1,0,0
-0.0003490338,-0.00018276960000000004,-0.00039214450000000004,-0.0007044804000000001,-0.0017699474000000004,6.101,0,0
0.00019382819999999996,-0.0004784722000000001,-0.0008209411000000001,-0.00032838480000000003,-0.0010389274000000002,6.102,0,0
0.0008062222000000001,-0.0008628758000000002,-0.00018186710000000003,-0.00044649839999999995,-0.0007717608,6.103,0,0
0.0006770014,-0.0013731582,3.3677700000000005e-05,-0.0006724503999999999,-0.00018203080000000002,6.104,0,0
0.00082037,-0.0020183658,0.0002967402,-0.000565495,0.00047704520000000007,6.105,0,0
0.0009718896000000001,-0.0021308458000000004,0.0008211942,-0.0007396776,0.0005289652,6.106,0,0
0.0001894536,-0.002129795,0.0005621528000000001,-0.001339794,0.0011337152,6.107,0,0
-0.0008907504000000002,-0.002146967,-0.00011950320000000009,-0.001491942,0.0020927606,6.108,0,0
-0.0010376866,-0.001985445,-0.0002835444,-0.0008971545999999999,0.0021680146000000004,6.109,0,0
-0.0010162886000000002,-0.001466188,-0.0004230892,-0.0007698020000000001,0.0019406894000000004,6.11,0,0
-0.0015017204000000004,-0.0005712359999999999,-0.0008354412,-0.00039962099999999996,0.0022825288000000005,6.111,0,0
-0.0014497426000000004,-0.0001071969999999999,-0.0006911732000000001,0.000630763,0.0020971308000000003,6.112,0,0
-0.0011895826,0.000633733,-0.00041429140000000004,0.001304567,0.0012941494000000002,6.113,0,0
-0.0015082256000000002,0.001545851,-0.00043500760000000005,0.0016760876000000001,0.0013080354000000003,6.114,0,0
-0.0016590722000000002,0.0016909454,-0.000602377,0.001914555,0.0013525626000000003,6.115,0,0
-0.0011844862,0.0012644988000000002,-0.000302202,0.002170592,0.0007432918,6.116,0,0
-0.0010793442,0.0008705026,0.000165466,0.0020768780000000003,0.0003208224,6.117,0,0
-0.0009074188,0.00031281200000000004,0.00045722260000000006,0.0018549124000000001,0.00033004320000000004,6.118,0,0
-0.00023066079999999988,-0.0002897302,0.0006159302000000001,0.0016357904000000002,-6.224220000000002e-05,6.119,0,0
0.00011905740000000004,-0.0003959756,0.0003372344,0.0011944100000000001,-0.000493653,6.12,0,0
0.00026073240000000004,-0.00037816019999999996,1.2729599999999994e-05,0.0006268984,-0.0005567842,6.121,0,0
0.0008510266,-0.0005776399999999999,-0.00028090600000000004,0.00015654700000000004,-0.0008435827999999999,6.122,0,0
0.0008829142000000001,-0.0006541276,-0.0007303864000000001,-8.613500000000001e-05,-0.0012276962,6.123,0,0
0.00043925659999999994,-0.00024052539999999998,-0.0011228554,-0.00035402640000000004,-0.0015818448,6.124,0,0
0.0007481604,6.273260000000004e-05,-0.0009638234,-1.0323999999999978e-05,-0.001757124,6.125,0,0
0.0008615114,0.00020775580000000003,-0.0007831956,0.00033711440000000004,-0.00205681,6.126,0,0
0.00014727139999999998,0.0005270856,-0.0005948221999999999,0.000247606,-0.002177314,6.127,0,0
-0.0001507916,0.0007770692000000001,-0.00036795320000000003,0.0007694376000000001,-0.0016042894,6.128,0,0
0.00037309199999999994,0.0007306578000000001,-7.645320000000004e-05,0.001278793,-0.0007801114000000002,6.129,0,0
0.00014308299999999993,0.000657886,0.00014768859999999997,0.0012229010000000002,0.0001845786,6.13,0,0
-0.0002868250000000001,0.000748842,-0.00018135340000000007,0.0013462422,0.0012139926,6.131,0,0
0.000260165,0.0008080826,-0.00028687764000000004,0.0015533824,0.0019776486000000005,6.132,0,0
0.0007627824000000001,0.0007988435999999999,-0.00016976624000000003,0.001223745,0.002143196,6.133,0,0
0.00047337000000000003,0.000814279,-0.00025598724000000007,0.0007000542,0.002029122,6.134,0,0
0.0007007350000000001,0.0005192576000000002,-0.00016752484,0.00050498118,0.0017412,6.135,0,0
0.0013308830000000002,4.24496e-05,0.00010501435999999998,0.00026022038,0.001155576,6.136,0,0
0.000995373,0.00018048720000000002,-0.00030391120000000004,-0.00020100201999999999,0.0009183732,6.137,0,0
0.0009031708000000001,0.00024198140000000003,-0.000579298,-0.00024410901999999998,0.0008744232,6.138,0,0
0.0008061256,-0.0001067928,-0.00022869700000000004,-9.855442e-05,0.00022463719999999998,6.139,0,0
-0.0003921204000000001,-0.00015157020000000003,0.00015804679999999996,-0.000236847,-0.0004413788,6.14,0,0
-0.0015290544,-0.00030473420000000004,0.0006721396000000001,-0.00030165753999999994,-0.0003157726,6.141,0,0
-0.0016592156000000001,-0.0012919682000000002,0.0015739176,-0.00013161694,-0.0003006992,6.142,0,0
-0.0019252428,-0.0017811248,0.0024928960000000005,-0.00042721054000000004,-0.00057932864,6.143,0,0
-0.0024625312,-0.0015410596000000002,0.0023916582000000006,-0.00088714434,-0.00015655623999999996,6.144,0,0
-0.0018140854000000001,-0.0016893169999999999,0.0020896582000000004,-0.0011248167400000001,0.00013342776000000003,6.145,0,0
-0.0007279694000000001,-0.0015262214,0.0020413142,-0.0021247834,-0.00043805844,6.146,0,0
0.0006256618000000001,-0.0005267734,0.0014588534000000001,-0.0030061600000000003,-0.0009479290400000001,6.147,0,0
0.0026327418000000003,0.00015399260000000003,0.0008452056,-0.0031918080000000004,-0.0014808936,6.148,0,0
0.0042352758,-0.00012114880000000007,0.0010175254000000002,-0.0035530620000000005,-0.0022257,6.149,0,0
0.004728012000000001,8.401719999999998e-05,0.0007196528,-0.003850104,-0.0026164940000000005,6.15,0,0
0.004369848400000001,0.0002703856000000001,-4.921519999999998e-05,-0.0031235280000000004,-0.0026440500000000002,6.151,0,0
0.003664704400000001,-0.0004782644000000001,-0.00028884840000000005,-0.0020032950000000004,-0.002570204,6.152,0,0
0.0024074144000000002,-0.000927697,-0.0007642266,-0.0013809242,-0.00204602448,6.153,0,0
0.0011418143999999998,-0.00044618060000000006,-0.0016664966000000002,-0.00019777020000000018,-0.0005898784800000002,6.154,0,0
0.0006590461999999998,-6.40126e-05,-0.002078346,0.0012053538,0.0011699015200000002,6.155,0,0
0.0006322503999999999,0.0002072474,-0.0018609414,0.0020119778,0.00281112752,6.156,0,0
-0.0002266276000000001,0.0010770834,-0.0018737614,0.0023108128,0.00406919952,6.157,0,0
-0.0014069296000000001,0.0013010348000000002,-0.0015467388,0.0022401126,0.004394274,6.158,0,0
-0.0020012576000000004,0.0008456868000000002,-0.0009873914000000001,0.0018035604400000003,0.003347636,6.159,0,0
-0.0030402354000000006,0.0008103768000000001,-0.000632968,0.00117292064,0.0014565320000000004,6.16,0,0
-0.004324298,0.0007166448000000001,-0.000441957,0.00089170464,0.0003612858,6.161,0,0
-0.00490653,9.753280000000006e-05,-0.00015160720000000001,0.0006910926400000001,-0.00038063500000000004,6.162,0,0
-0.004758136,-0.000273404,0.00041915020000000004,0.0005933486400000001,-0.001255849,6.163,0,0
-0.0039843602,-7.3312e-05,0.0008004828,0.0007123086000000001,-0.001303711,6.164,0,0
-0.0024181342,-0.0001692992,0.0010575972,0.0008107324000000001,-0.0008158548,6.165,0,0
-0.0009591382000000002,-0.0002515486,0.0012630156000000001,0.0010652864,-0.0007947306,6.166,0,0
-0.00017942880000000003,0.0004330154,0.0014810992000000001,0.0011509644,-0.0008385316,6.167,0,0
0.0004001791999999999,0.0009307053999999999,0.0011396592,0.0011997268,-8.27996e-05,6.168,0,0
0.0007605234000000001,0.000697919,0.0009719586000000001,0.001679531,0.00043313640000000006,6.169,0,0
0.0005437158,0.00031039419999999993,0.0010441928,0.0017924949999999999,0.0006667042000000001,6.17,0,0
0.0010020858,-5.151040000000003e-05,0.0007365806,0.0013327474,0.0008532910000000002,6.171,0,0
0.0028115064,-0.0007893644,0.00055693428,0.0010525532399999998,0.0005506126,6.172,0,0
0.0034190264,-0.00100106424,0.00022159747999999998,0.0007814522399999999,0.00011175059999999994,6.173,0,0
0.0025570964,-0.00033605583999999993,-0.00034250592,1.1908239999999971e-05,-0.0001892294,6.174,0,0
0.002152986,0.00012434016000000006,-0.00074079552,-0.0006318357600000001,-0.0003304054,6.175,0,0
0.0013405166000000001,0.00014117816000000006,-0.0008041403200000001,-0.00086827276,-0.0007541662000000001,6.176,0,0
-0.0005489474000000001,-1.0018400000000446e-06,-0.0011022094,-0.0008810946,-0.0007169755999999999,6.177,0,0
-0.0012987760000000002,-4.54772e-05,-0.0013813106000000002,-0.0005129228,-9.968559999999995e-05,6.178,0,0
-0.0006112546000000001,-0.00037377320000000006,-0.0011564906,0.00013392520000000008,-3.412999999999925e-06,6.179,0,0
-0.0003397164,-0.000413586,-0.0011172416000000001,0.00040607140000000006,-0.00020773699999999997,6.18,0,0
-0.000489353,-0.0001276656,-0.0014421066,0.00015897000000000009,-3.439319999999993e-05,6.181,0,0
-0.00021810480000000003,-6.336359999999997e-05,-0.00125413,0.00023115040000000014,-6.787899999999994e-05,6.182,0,0
9.771320000000005e-05,6.638860000000003e-05,-0.0007942884000000001,5.4878400000000094e-05,-0.0007287610000000001,6.183,0,0
-0.0005137382,0.00031042860000000006,-0.0008379904000000001,-0.0008769715999999999,-0.0011126056,6.184,0,0
-0.0009864904000000002,0.0006298194000000001,-0.0005441784,-0.0015576518,-0.0014269375999999999,6.185,0,0
-0.00072485194,0.001135783,0.00019827760000000005,-0.0018157318000000002,-0.0023385954,6.186,0,0
-0.0011424841400000001,0.0018249350000000002,0.00034050780000000004,-0.0023082062,-0.00286133,6.187,0,0
-0.0016133815400000001,0.00198754,0.0003627548000000001,-0.0025465340000000005,-0.0026250025999999997,6.188,0,0
-0.0011930473400000002,0.0016742646000000002,0.0007268292,-0.0020058554000000005,-0.0024616986,6.189,0,0
-0.0009166449399999999,0.0014185546,0.0007291782000000001,-0.001352204,-0.0020392720000000004,6.19,0,0
-0.0010698008,0.0011707485999999999,0.0008320602000000001,-0.000999254,-0.0006113899999999999,6.191,0,0
-0.0007332456,0.0007795538,0.0012021354000000001,-0.0005465822,0.0011250040000000002,6.192,0,0
-0.00018237960000000002,0.00047323720000000006,0.0010939300000000001,-1.992619999999993e-05,0.0019440906,6.193,0,0
7.156519999999998e-05,0.00010937259999999998,0.0006882076000000001,8.005320000000003e-05,0.0026087366,6.194,0,0
0.00046656480000000004,-0.00046865540000000003,0.0004398670000000001,0.0004467598,0.00354296,6.195,0,0
0.0007873392,-0.0008052830000000001,-1.0438199999999964e-05,0.0009888178,0.0034172399999999998,6.196,0,0
0.0007058382,-0.0009777642,-0.0006419262,0.00054944,0.0022907172,6.197,0,0
0.0003589386000000001,-0.0012615956000000001,-0.0008366614,-0.00023211800000000023,0.0017532711999999999,6.198,0,0
0.00015037760000000006,-0.0012780516,-0.0007613646,-0.00030539300000000016,0.0014924012,6.199,0,0
0.00018617160000000005,-0.0009377556000000001,-0.0004545184,-0.0005728396000000001,0.00048179620000000006,6.2,0,0
0.0003192086,-0.000678078,-8.834720000000003e-05,-0.0009151952000000001,9.068140000000004e-05,6.201,0,0
0.0010984544000000001,-0.0005426582000000001,5.037939999999999e-05,-0.0005114192,0.00010813540000000001,6.202,0,0
0.0021817340000000003,-0.00019624954000000005,0.0003397944,-0.0005247172,-0.0005028486,6.203,0,0
0.0027202199999999998,0.00044714246000000004,0.0005309412000000001,-0.0009983522000000002,-0.0009127426,6.204,0,0
0.002688996,0.00054841186,0.0003319469200000001,-0.0009475582,-0.0012116916000000002,6.205,0,0
0.0022612175999999996,0.00041244966,0.00045853092,-0.00043277659999999994,-0.0018419988000000003,6.206,0,0
0.0008448675999999998,0.00067699006,0.00095957832,0.00025977140000000003,-0.0018986606000000001,6.207,0,0
-0.0010760924,2.701139999999988e-05,0.00065686732,0.0011857274,-0.0013058166000000004,6.208,0,0
-0.0021626584,-0.0020340026000000002,0.00033767972,0.0015747106,-0.0009685044,6.209,0,0
-0.0031839384,-0.0037543940000000003,0.0004312499999999999,0.0011347692,-0.00016645640000000013,6.21,0,0
-0.003572386,-0.005136223800000001,-0.00019299500000000006,0.0006052486000000001,0.0013089876,6.211,0,0
-0.0026548982000000002,-0.0069987040000000006,-0.00058642,-7.054312000000001e-05,0.0016230230000000001,6.212,0,0
-0.0015902308,-0.007205820000000001,-0.00045984500000000007,-0.00065058512,0.0005389090000000001,6.213,0,0
-0.0002367967999999999,-0.005026376000000001,-0.0004727470000000001,-0.0006366629200000001,5.0932799999999954e-05,6.214,0,0
0.0022882612000000003,-0.0017984540000000003,-0.0008575730000000001,-0.00022468692,8.598479999999989e-05,6.215,0,0
0.004695711200000001,0.0018072379999999999,-0.0014506980000000003,0.00027532568,-0.0005700056,6.216,0,0
0.005322927400000001,0.0048983,-0.001969277,0.00043825200000000003,-0.00034999040000000014,6.217,0,0
0.0050791658,0.0061816760000000005,-0.0012998840000000003,0.0007771962000000001,0.0014351716,6.218,0,0
0.004163258,0.005965936,0.0003690919999999999,0.0015552728000000002,0.0025112356,6.219,0,0
0.0018276700000000004,0.005484702,0.001287632,0.0021888288,0.0024897696000000004,6.22,0,0
-0.00090054,0.004438378,0.002582602,0.0029529348,0.002708708,6.221,0,0
-0.0021628520000000003,0.00342825,0.0038113520000000005,0.0038630762,0.0027144900000000004,6.222,0,0
-0.0032813918,0.002513516,0.00347261,0.0046333780000000005,0.0019401874,6.223,0,0
-0.005288298,0.0012421139999999997,0.0022144712,0.004875268,0.0015071454,6.224,0,0
-0.006020650000000001,0.00015168480000000008,0.00025442119999999997,0.004948892,0.0014793774000000002,6.225,0,0
-0.005690606,-0.0003911631999999999,-0.0026317308000000004,0.0043211740000000005,0.0007146614,6.226,0,0
-0.004802150000000001,0.0001113908,-0.005581856800000001,0.0026062480000000002,-0.0002809286,6.227,0,0
-0.002713232,0.0011947508,-0.007018140800000001,0.0006298120000000004,-0.0010901259999999999,6.228,0,0
-0.0005717531399999999,0.002343348,-0.0064990740000000005,-0.001625054,-0.002432936,6.229,0,0
0.0001662728600000001,0.0025389732000000004,-0.004014940000000001,-0.00396732,-0.004176982,6.23,0,0
-0.0002751271400000002,0.0010597711999999998,0.0006469199999999994,-0.005677774,-0.00506051,6.231,0,0
-0.0002953651400000002,-0.0010892308000000001,0.0052778,-0.005427378,-0.005147014,6.232,0,0
5.721685999999994e-05,-0.0022134828000000004,0.006887354,-0.0044896628,-0.00496893,6.233,0,0
0.000791298,-0.002720442,0.0063428692,-0.0038780248,-0.0040892792,6.234,0,0
0.002810692,-0.003975888,0.0048404532,-0.0023543208000000003,-0.0023753512000000004,6.235,0,0
0.004514292,-0.004688468,0.0012779212000000007,-0.0008851988000000001,-0.0002821852000000001,6.236,0,0
0.004359508000000001,-0.004295276000000001,-0.0027508388,-0.0002905708,0.0019711388,6.237,0,0
0.004815416,-0.0038417020000000002,-0.0043261128,0.000145376,0.0042934068,6.238,0,0
0.006749456000000001,-0.0032883002,-0.0044836728000000005,0.0009030646000000001,0.005507494,6.239,0,0
0.006525342000000001,-0.0017527401999999997,-0.0044632248,0.0014161586,0.005837072,6.24,0,0
0.00546059,0.0010446038000000001,-0.0036564268000000002,0.0012489672,0.005718063999999999,6.241,0,0
0.00450635,0.0033492118,-0.0019766348000000004,0.0007997972000000001,0.004330154,6.242,0,0
0.0018521119999999997,0.0043152398000000005,-0.0001139248,0.00021381720000000006,0.00200607,6.243,0,0
-0.0008571466,0.005040130000000001,0.001303916,-6.76152e-05,0.0006004400000000003,6.244,0,0
-0.0027140366,0.004661538000000001,0.002742004,0.00021193679999999997,-0.00035736,6.245,0,0
-0.0040955226,0.002641006,0.004128922,0.0006526482,-0.0023879120000000003,6.246,0,0
-0.0059825766,0.0004647700000000001,0.004919318000000001,0.0009938818000000001,-0.0036051620000000003,6.247,0,0
-0.0071062906000000006,-0.001706234,0.00515352,0.0014040705999999999,-0.0033313120000000003,6.248,0,0
-0.005979392,-0.0036631380000000007,0.003978598200000001,0.0011683643999999998,-0.003298894,6.249,0,0
-0.0039054019999999997,-0.003499552000000001,0.0013676221999999996,-0.0003301196,-0.00337324,6.25,0,0
-0.002550096000000001,-0.0016002580000000007,-0.0013052718000000003,-0.0017094176000000002,-0.0022351639999999996,6.251,0,0
-0.0013799200000000004,-9.372000000000048e-05,-0.002887961800000001,-0.0026997072,-0.0013763554,6.252,0,0
-0.00137166,0.0002127120000000001,-0.003177037800000001,-0.00383697,-0.0017813634000000001,6.253,0,0
-0.002599314,-0.0002706659999999999,-0.002670668,-0.004228308,-0.0018776114,6.254,0,0
0.00013819999999999978,-0.0006614122,-0.0012849958000000002,-0.003949292,-0.0013679696000000001,6.255,0,0
0.004539702,-0.0013146502000000002,0.0007114002000000001,-0.003612828,-0.0008344416000000002,6.256,0,0
0.006687126000000001,-0.0023345862,0.0023698682000000003,-0.002814948,0.00036472779999999986,6.257,0,0
0.009879236,-0.0010261922,0.0021206142000000003,-0.0016306358000000001,0.0024544718,6.258,0,0
0.011369278,0.0014525678,0.0021433262,-0.0009443796000000001,0.0032178598,6.259,0,0
0.005318956000000001,0.0014121878000000001,0.003421902,-0.0011380456,0.0018699239999999998,6.26,0,0
-0.002602184,0.0008377998,0.0035153700000000003,-0.0014219296,-0.0005023300000000005,6.261,0,0
-0.006503104000000001,0.0011472698,0.003837274,-0.0016092696,-0.0038915300000000002,6.262,0,0
-0.010356434000000001,0.0006774346000000002,0.004967984,-0.0013536598,-0.006931090000000001,6.263,0,0
-0.014078562000000003,0.00011748660000000002,0.0041204698,2.1947999999999933e-05,-0.007349045000000001,6.264,0,0
-0.014764580000000003,0.0008449188000000001,-0.00016715820000000022,0.001843898,-0.005447979,6.265,0,0
-0.01368478,0.0020188788000000003,-0.0063703322,0.00324887,-0.002762505,6.266,0,0
-0.011318074,0.0036295968,-0.013882282200000002,0.0036952556,0.0002304709999999999,6.267,0,0
-0.006499914,0.00503825,-0.0198700142,0.0033155934,0.0030112370000000004,6.268,0,0
-0.0002584140000000002,0.005655554,-0.021926440000000002,0.0023382014,0.004257250000000001,6.269,0,0
0.004860686,0.0057088600000000005,-0.019181332000000002,0.0014244714,0.004385758,6.27,0,0
0.010750886000000001,0.0032436700000000006,-0.009913032000000002,0.0010343054000000003,0.004472444000000001,6.271,0,0
0.01541516,-0.0005015540000000002,0.0019112880000000006,0.0006603782,0.004062292,6.272,0,0
0.014590254,-0.001584248,0.010536728,7.311040000000006e-05,0.002469036,6.273,0,0
0.012146884,0.00010161000000000024,0.013021538000000001,-0.0007441876,0.0006174179999999998,6.274,0,0
0.011405127999999999,0.002367208,0.012437130000000001,-0.0015698536000000002,-0.0006653980000000001,6.275,0,0
0.00943159,0.004317916,0.009844295999999999,-0.0023662776,-0.001973232,6.276,0,0
0.005396158,0.003665196,0.005201174,-0.0028721880000000003,-0.00254828,6.277,0,0
0.004031362,-0.002667476000000001,0.0034793740000000004,-0.00268556,-0.0023591902000000002,6.278,0,0
0.0049923120000000005,-0.012170996,0.004586626,-0.0024195764000000002,-0.0025155261999999998,6.279,0,0
0.006731928,-0.019713956,0.005102438000000001,-0.0024997984000000003,-0.0029552802000000003,6.28,0,0
0.009014846,-0.021982984,0.0035804540000000003,-0.0024499224,-0.0029784162000000003,6.281,0,0
0.011339118,-0.018155074,0.004793716,-0.00173065304,-0.0029248642,6.282,0,0
0.012171412000000001,-0.012021215699999999,0.008802976,-0.0010520930399999999,-0.003163466,6.283,0,0
0.008815266000000002,-0.0080020157,0.010241914,-0.00113766864,-0.002774712,6.284,0,0
0.0031534659999999997,-0.006139635700000001,0.011429997999999999,-0.00102679264,-0.0020010568,6.285,0,0
-0.002014698,-0.005412465700000001,0.012783979999999999,-0.00047334857999999997,-0.0008472728000000001,6.286,0,0
-0.0048466920000000005,-0.0038767557000000006,0.008699406,0.00102243206,0.0018060592000000001,6.287,0,0
-0.008362584000000001,0.0030043660000000005,0.00038031199999999984,0.00421257206,0.0060778632,6.288,0,0
-0.013837438,0.014888126,-0.004750248,0.008641072060000001,0.010581239200000002,6.289,0,0
-0.019380098000000002,0.025195725999999998,-0.006185752,0.013579930059999998,0.014958214000000001,6.29,0,0
-0.026727894000000002,0.028513499999999997,-0.0046751760000000005,0.018060326,0.019208580000000003,6.291,0,0
-0.03645406,0.0257817066,-0.0015698240000000003,0.021562460000000002,0.02149452,6.292,0,0
-0.04455304,0.0190542864,-0.0003791360000000002,0.02311554,0.02155756,6.293,0,0
-0.04518922,0.0109388364,-0.0018495760000000003,0.02264732,0.0211084,6.294,0,0
-0.038589142,0.0017843724000000006,-0.007698068,0.020527480000000004,0.020111940000000002,6.295,0,0
-0.026436522,-0.0086945676,-0.020346668,0.0159838814,0.017229156000000002,6.296,0,0
-0.009260322000000001,-0.0150686142,-0.033490666,0.0089981374,0.012988664000000002,6.297,0,0
0.009327717999999999,-0.017763694,-0.03847662,0.0005844973999999999,0.007564202000000001,6.298,0,0
0.022823118,-0.021747003999999997,-0.033339694,-0.0082636226,-0.0009698780000000004,6.299,0,0
0.028176180000000002,-0.025174539999999995,-0.020554194000000005,-0.0174375426,-0.012556617999999999,6.3,0,0
0.02947438,-0.020324139999999997,-0.0034156939999999986,-0.025735624000000006,-0.024461514,6.301,0,0
0.027307580000000005,-0.01089212,0.017145706000000004,-0.03206566,-0.034629462,6.302,0,0
0.02517476,-0.0018506800000000004,0.028855086000000002,-0.03659214,-0.04143918,6.303,0,0
0.028781,0.007991560000000002,0.026797468,-0.03814146,-0.0430935,6.304,0,0
0.034309160000000005,0.01606416,0.019440150000000003,-0.035957020000000006,-0.03987322,6.305,0,0
0.03727226,0.020927036000000003,0.00938877,-0.030686880000000003,-0.0342341,6.306,0,0
0.037602840000000005,0.01738465,-0.0015448500000000004,-0.023652426,-0.0272997,6.307,0,0
0.03423018,0.008474329999999999,-0.007124210000000001,-0.015386454,-0.01963449,6.308,0,0
0.024711452000000002,0.00444881,-0.005250592,-0.006490454000000001,-0.013062830400000001,6.309,0,0
0.012394472,0.0048476100000000005,-0.00043429400000000043,0.0011899660000000002,-0.007104682400000001,6.31,0,0
0.0007440119999999996,0.00383798,0.007751306,0.007775126,-2.8122400000000353e-05,6.311,0,0
-0.010090048,0.005745468,0.014363846000000001,0.014128192000000001,0.0079842776,6.312,0,0
-0.019113208,0.011513108000000001,0.017123086,0.020042820000000003,0.0162550076,6.313,0,0
-0.02738104,0.012582548,0.01857394,0.025151880000000005,0.024916048000000003,6.314,0,0
-0.03622916,0.010536734,0.01724718,0.029638820000000003,0.03233662,6.315,0,0
-0.04381434,0.008567992,0.014613660000000002,0.03314112,0.03691792000000001,6.316,0,0
-0.046837420000000005,0.008520498000000001,0.009730908000000002,0.035003200000000005,0.03869188,6.317,0,0
-0.04764724,0.011684758,0.002572828000000001,0.035009900000000004,0.03772964,6.318,0,0
-0.047249440000000004,0.015820058000000005,-0.0018544159999999991,0.032554440000000004,0.034847880000000005,6.319,0,0
-0.0413347,0.018643952000000005,-0.0035265540000000003,0.028616160000000005,0.03170718,6.32,0,0
-0.0332634,0.015471928000000003,-0.005639436,0.023248714000000004,0.028863820000000005,6.321,0,0
-0.02093782,0.0007328400000000037,-0.007042464,0.015476826,0.023600026000000003,6.322,0,0
0.002013059999999999,-0.0229872,-0.008866584,0.0064723260000000005,0.015237059999999998,6.323,0,0
0.02574468,-0.046943860000000004,-0.014316019999999999,-0.003690454,0.00472698,6.324,0,0
0.04252744,-0.06450082,-0.020153522,-0.014386254000000001,-0.007559960000000001,6.325,0,0
0.05429356,-0.06872226000000001,-0.02122924,-0.023503568,-0.0207781,6.326,0,0
0.055434899999999995,-0.05514449379999999,-0.019590482,-0.030372120000000002,-0.032815446000000005,6.327,0,0
0.04384004,-0.028350213800000003,-0.014269651999999999,-0.0332212,-0.039000400000000005,6.328,0,0
0.03056864,0.0008855061999999969,-0.00501419,-0.030267600000000006,-0.036549740000000004,6.329,0,0
0.021157454,0.0247494662,0.001975584,-0.024032228000000003,-0.027963038,6.33,0,0
0.015812214,0.0400353462,0.004128130000000001,-0.018000804,-0.018162572,6.331,0,0
0.014719353999999999,0.04645176000000001,0.004692880600000001,-0.012666144,-0.009653099999999998,6.332,0,0
0.011852208000000001,0.041650240000000005,0.006645980600000001,-0.009963364,-0.004875600000000001,6.333,0,0
0.006051508000000001,0.028683958000000002,0.0052158346,-0.010037564,-0.004341186,6.334,0,0
0.0013172540000000003,0.017290082,0.0022200246000000003,-0.009294514,-0.005464278,6.335,0,0
-0.0046753260000000005,0.0056079020000000005,0.0044229586000000005,-0.006212508,-0.004684614,6.336,0,0
-0.012332685999999999,-0.009132878,0.005608658000000001,-0.0016515479999999988,0.00013729400000000048,6.337,0,0
-0.0173135,-0.022436798,0.001162268000000001,0.002069716,0.004767368,6.338,0,0
-0.01972614,-0.029190556,0.0008097260000000006,0.002909308,0.004713188000000001,6.339,0,0
-0.02276384,-0.02202422,0.002849546000000001,-0.0002557740000000003,-8.900199999999948e-05,6.34,0,0
-0.02462226,-0.001988860000000002,-0.0017101220000000001,-0.005960284,-0.007997292,6.341,0,0
-0.023482560000000003,0.01584088,-0.004714724,-0.011223144000000001,-0.016468712,6.342,0,0
-0.020621622,0.0242586152,-0.0032434020000000003,-0.013118318,-0.021132566000000002,6.343,0,0
-0.015803438000000003,0.025007815200000002,-0.004290566,-0.009875434,-0.018801232,6.344,0,0
-0.010621672000000002,0.007878635200000001,-0.0034384240000000007,-0.0029557540000000005,-0.011089172000000001,6.345,0,0
-0.0038536639999999997,-0.023889164799999998,0.004820784000000001,0.004661986,-0.0021943319999999994,6.346,0,0
0.0042484160000000005,-0.0446498448,0.013539698,0.010441366,0.004534212,6.347,0,0
0.008578578,-0.046374126,0.018364496,0.013135786,0.008025238,6.348,0,0
0.008491536,-0.036821785999999995,0.020546488,0.013397068,0.008369784,6.349,0,0
0.009354206,-0.014954905999999997,0.018003134,0.011880908,0.006300982000000001,6.35,0,0
0.012382218,0.015705574,0.008914694,0.009538988,0.0037836119999999996,6.351,0,0
0.013474138,0.037869854,-0.004563486,0.009379947999999999,0.0038942280000000004,6.352,0,0
0.014229518,0.04561118,-0.018306946,0.011713918,0.007217462000000001,6.353,0,0
0.016533256000000003,0.04512916,-0.029812548,0.013583180000000002,0.011216048000000001,6.354,0,0
0.017454818000000004,0.03717562,-0.037387100000000006,0.01417068,0.015131950000000002,6.355,0,0
0.013138292000000001,0.02077764,-0.03812334,0.013602186,0.0193808,6.356,0,0
0.005403896,0.0014149600000000016,-0.027244860000000003,0.009483268000000001,0.02240692,6.357,0,0
-0.001358444,-0.011039720000000001,-0.006369399999999999,0.001888888,0.021377000000000004,6.358,0,0
-0.005673704000000001,-0.015573324,0.016069740000000002,-0.006680112,0.015461124000000003,6.359,0,0
-0.00795112,-0.015638583999999997,0.0327307,-0.014534552,0.006991484000000001,6.36,0,0
-0.008449654000000001,-0.008521564000000002,0.0387601,-0.019278838,-0.00046389599999999923,6.361,0,0
-0.005582864000000001,0.0041748160000000005,0.034868814000000005,-0.01907254,-0.006873575999999999,6.362,0,0
-0.0015564160000000008,0.013286196,0.02400572,-0.014110808,-0.012013916000000001,6.363,0,0
0.0003213719999999999,0.012278340000000002,0.010222738,-0.006290407999999999,-0.012282082000000001,6.364,0,0
0.0003120359999999999,0.0018984400000000004,0.000664322,0.0028242519999999998,-0.008475268000000001,6.365,0,0
-0.0022739440000000004,-0.01121732,-0.0026058476,0.010599531999999998,-0.0042644,6.366,0,0
-0.007993438000000002,-0.01986202,-0.0029400795999999997,0.014423752000000001,-0.00044598800000000024,6.367,0,0
-0.012648386000000001,-0.022108564,-0.0022460736,0.01586762,0.0038072620000000005,6.368,0,0
-0.014742074,-0.020441416,-0.0011985195999999999,0.01748098,0.006895570000000001,6.369,0,0
-0.01612654,-0.017611816,-0.0010133516000000002,0.0183798,0.008638636000000002,6.37,0,0
-0.0157089,-0.015106536,-0.001753226,0.01939468,0.011723568,6.371,0,0
-0.0134805,-0.014737876,-0.002720198,0.02248586,0.016118976,6.372,0,0
-0.012252260000000001,-0.013191678000000002,-0.003834632,0.023394520000000002,0.019503646,6.373,0,0
-0.01218106,-0.004144606,-0.00418772,0.018535616,0.020633600000000002,6.374,0,0
-0.010240554,0.011839994000000001,-0.004013456,0.009769916,0.016886268000000003,6.375,0,0
-0.006341434,0.031020414000000003,-0.004681362,-0.0016442840000000002,0.005297168,6.376,0,0
-0.0023059759999999986,0.04413099400000001,-0.005336848,-0.015061684000000002,-0.009320091999999999,6.377,0,0
0.0025687840000000006,0.04097159,-0.004586123600000001,-0.026171704,-0.021635352,6.378,0,0
0.007967644000000001,0.023962370000000004,-0.0045036256,-0.03076848,-0.030044012000000002,6.379,0,0
0.010978738,0.0010225500000000005,-0.0063460216,-0.02971048,-0.032122160000000004,6.38,0,0
0.012800198,-0.023549810000000004,-0.0079107516,-0.02595676,-0.028417100000000004,6.381,0,0
0.01578042,-0.042248890000000004,-0.0089112756,-0.021039960000000003,-0.023159380000000007,6.382,0,0
0.01787254,-0.042783238,-0.010580558000000002,-0.0168406,-0.018619060000000003,6.383,0,0
0.01740038,-0.027245477999999997,-0.011114330000000002,-0.01592696,-0.015364640000000002,6.384,0,0
0.016092374000000003,-0.009285877999999997,-0.007229750000000002,-0.0170659,-0.014579380000000001,6.385,0,0
0.014161278000000001,0.010836422000000002,-0.0003134100000000005,-0.0170522,-0.014633780000000002,6.386,0,0
0.010600768,0.029074182000000004,0.00652525,-0.014738875999999998,-0.013403278000000001,6.387,0,0
0.007292306,0.029939280000000006,0.01229477,-0.010387206,-0.0108248588,6.388,0,0
0.005761198000000001,0.019512140000000004,0.014761458,-0.005026028,-0.007579460799999999,6.389,0,0
0.004141948,0.010581360000000003,0.012045726000000001,0.0009315979999999996,-0.0025803808000000004,6.39,0,0
0.000893058,-0.00130372,0.005777345999999999,0.006404338000000001,0.0039164192,6.391,0,0
-0.0029476920000000005,-0.013803,-0.0015829540000000001,0.010428554,0.0095742572,6.392,0,0
-0.0068774100000000005,-0.0157539,-0.009047234000000001,0.014701444000000001,0.014895638000000003,6.393,0,0
-0.009940602,-0.01005926,-0.013250832,0.019428686,0.0201583,6.394,0,0
-0.012420286,-0.004910360000000001,-0.011444786,0.022669560000000002,0.023711260000000005,6.395,0,0
-0.011871312000000002,-0.0022986499999999997,-0.007561204000000001,0.02381768,0.025022100000000002,6.396,0,0
-0.0065623520000000005,0.0006852399999999997,-0.0044249120000000005,0.022867020000000002,0.025194040000000004,6.397,0,0
-0.0033388440000000005,0.00678506,0.0006774839999999999,0.018844874000000005,0.023718060000000003,6.398,0,0
-0.004078524,0.01060694,0.005218592,0.012897672,0.0204236,6.399,0,0
-0.0040911440000000006,0.01016118,0.004601262,0.008197346000000001,0.016755526,6.4,0,0
-0.005847632,0.008789230000000002,0.005027144,0.006410926,0.013951789999999999,6.401,0,0
-0.010791852000000001,0.007102760000000001,0.007471952,0.007386026,0.01175617,6.402,0,0
-0.011067894000000002,0.0022563780000000007,0.006053586,0.008631952,0.009298032000000001,6.403,0,0
-0.007307820000000002,-0.005626152000000001,0.004843996,0.0084936768,0.007275778000000001,6.404,0,0
-0.005310756,-0.008745984000000002,0.00593634,0.005976982800000001,0.004720384000000001,6.405,0,0
-0.003905346,-0.0050562720000000005,0.004701208,0.0006056828000000013,0.00010520000000000017,6.406,0,0
-0.004870126000000001,-9.91719999999998e-05,0.0026317380000000002,-0.0048176632,-0.00438528,6.407,0,0
-0.009581732,0.00525819,0.003185012,-0.0075792242,-0.006373354000000001,6.408,0,0
-0.012073096,0.011388440000000001,0.003736746,-0.006692877000000001,-0.0068478340000000006,6.409,0,0
-0.00857954,0.015599012000000002,0.0032570719999999997,-0.002212637,-0.004782950000000001,6.41,0,0
-0.0022502700000000013,0.016512080000000002,0.003107376,0.003220865,-0.00042285400000000007,6.411,0,0
0.005493790000000001,0.010602680000000001,0.0018273260000000002,0.003724647,-0.00048155400000000036,6.412,0,0
0.013714210000000001,-0.0010816799999999998,-0.001106178,-0.0025021320000000007,-0.007819082,6.413,0,0
0.01901758,-0.009745880000000002,-0.0031257160000000006,-0.011826582000000002,-0.018238968,6.414,0,0
0.021245740000000003,-0.015213540000000001,-0.003960362,-0.020584882000000002,-0.028000564,6.415,0,0
0.02121392,-0.02039594,-0.005760518,-0.025797024,-0.03457450000000001,6.416,0,0
0.020094140000000003,-0.01826135,-0.006329262,-0.025734668000000002,-0.034284720000000005,6.417,0,0
0.018650660000000003,-0.01090286,-0.004111701800000001,-0.01964351,-0.026779218,6.418,0,0
0.016256078,-0.007960746000000001,-0.0019731678,-0.010702622,-0.016175036,6.419,0,0
0.012773274000000001,-0.009845426000000001,-1.638580000000011e-05,-0.002983374,-0.005715796000000002,6.42,0,0
0.008908122,-0.012315506,0.0021914342,0.002566866,0.0032006240000000004,6.421,0,0
0.004917958,-0.012921922,0.0046020622,0.0059612760000000015,0.010041564000000001,6.422,0,0
0.00147068,-0.014191730000000001,0.005896646,0.008212498,0.014823742,6.423,0,0
0.00024863468000000023,-0.013687808000000001,0.0040327159999999996,0.010683350000000001,0.018398860000000003,6.424,0,0
-0.0014130253199999999,-0.007632168,0.0002768060000000001,0.013652042,0.0206413,6.425,0,0
-0.00565705332,-0.0001942479999999993,-0.0031857340000000004,0.016481561999999998,0.02041534,6.426,0,0
-0.00867058932,0.006341618,-0.006536458,0.019270719999999998,0.018734640000000004,6.427,0,0
-0.00825193932,0.014336216000000002,-0.010707482,0.01998832,0.015991824,6.428,0,0
-0.009086242000000001,0.020072200000000002,-0.009333236000000002,0.0167358292,0.010828334000000002,6.429,0,0
-0.010918058000000001,0.02169484,-0.003452516000000001,0.0112176392,0.004579548,6.43,0,0
-0.009408558000000001,0.021535700000000005,-0.0005588399999999999,0.003066459200000001,-0.0008659720000000004,6.431,0,0
-0.008183938,0.015858090000000002,0.0020418700000000003,-0.0067890808,-0.006048912,6.432,0,0
-0.009320713999999999,0.007973378000000001,0.006032676000000001,-0.0130486008,-0.009819056000000001,6.433,0,0
-0.0096399,0.003942204000000001,0.006064666000000001,-0.014179544000000002,-0.009642722,6.434,0,0
-0.008889546,0.0011491539999999999,0.00223081,-0.0129255592,-0.005750556,6.435,0,0
-0.009345366,-0.0010004847999999999,0.0004719459999999998,-0.010252653200000001,-0.00028439600000000056,6.436,0,0
-0.009926786,0.0004883192000000001,-0.0003997360000000001,-0.006968381200000001,0.005488144,6.437,0,0
-0.009147356,0.0030641372000000003,-0.0013494640000000003,-0.0064209612,0.010073864,6.438,0,0
-0.007457702000000001,0.0024532551999999997,-0.0013709100000000001,-0.0090712272,0.0109807662,6.439,0,0
-0.004724590000000001,-0.0005247548000000004,-0.000605494,-0.012981742000000001,0.0082087842,6.44,0,0
-0.0009873960000000004,-0.0022757840000000003,0.001352948,-0.016528367999999998,0.004048220200000001,6.441,0,0
0.0038855140000000005,-0.0026205636000000004,0.0026800680000000003,-0.01712594,-0.0002819897999999995,6.442,0,0
0.008012248,-0.004262543600000001,0.0027495060000000005,-0.014721552,-0.0038768458,6.443,0,0
0.01111231,-0.005254409600000001,0.0021550726000000003,-0.011384758000000002,-0.006104892,6.444,0,0
0.015033224,-0.0034476296,0.0015886524000000002,-0.008356822,-0.00905165,6.445,0,0
0.017818010000000002,-0.0020270915999999997,0.0009951384000000001,-0.0059173640000000005,-0.013408946,6.446,0,0
0.017732906000000003,-0.0020492338,-0.0001700396,-0.0055394039999999995,-0.018627056,6.447,0,0
0.016453028,0.0001332461999999999,-0.0009709096,-0.0067623860000000004,-0.02497834,6.448,0,0
0.01391049,0.0023481682000000004,-0.0011436942,-0.007173222000000001,-0.030041440000000003,6.449,0,0
0.009428002,-0.00022193180000000014,-0.0015431680000000001,-0.007363286000000001,-0.03176152,6.45,0,0
0.006514036000000001,-0.004627261800000001,-0.0019359480000000003,-0.006537742,-0.0289457,6.451,0,0
0.00551072,-0.007429374000000001,-0.0017736586000000002,-0.00410238,-0.022148872000000003,6.452,0,0
0.0035602933999999997,-0.012798680000000003,-0.0013800724,-0.0011389140000000004,-0.012627746,6.453,0,0
0.0017398134000000003,-0.019434580000000003,-0.0011146694000000001,0.003138328,-0.001073226,6.454,0,0
-0.0003376446,-0.017575154000000003,-8.854739999999994e-05,0.008849056000000001,0.008957874000000001,6.455,0,0
-0.003976858600000001,-0.008754933999999999,0.0014238226000000001,0.014110894000000002,0.014434114000000001,6.456,0,0
-0.0068569486,0.0017537459999999996,0.0024071032000000003,0.017836972,0.015798154000000002,6.457,0,0
-0.0077262780000000005,0.012086925999999998,0.0029049090000000002,0.020414840000000004,0.015377304000000001,6.458,0,0
-0.007521578000000001,0.0172249723,0.0030767820000000006,0.021941620000000002,0.013802084,6.459,0,0
-0.006956526,0.017100548299999997,0.002900338,0.02337126,0.012357803999999998,6.46,0,0
-0.005973340000000001,0.0139525283,0.0017931185800000003,0.02602402,0.012786863999999998,6.461,0,0
-0.005795106,0.008221608299999999,0.00029680658,0.02891136,0.014745636,6.462,0,0
-0.008042012000000001,0.0056048883,-0.0006363694200000001,0.0301458,0.01742746,6.463,0,0
-0.010996974,0.009487002,-0.00156562342,0.028197899999999998,0.01895386,6.464,0,0
-0.011976674000000001,0.009239830000000001,-0.0035913154200000004,0.022716818,0.018608440000000004,6.465,0,0
-0.011593628,-0.0017785900000000018,-0.005770946000000001,0.014717710000000002,0.0174781,6.466,0,0
-0.01063534,-0.015919410000000002,-0.006336494000000001,0.00541995,0.01680582,6.467,0,0
-0.0074830946,-0.027245650000000003,-0.004757278000000001,-0.0030329700000000003,0.01564114,6.468,0,0
-0.0038455692000000006,-0.033028468,-0.0015024900000000004,-0.01010865,0.0112586034,6.469,0,0
-0.0016949192000000003,-0.025684398,0.0019788060000000005,-0.016618288000000002,0.0042963834,6.47,0,0
0.00012519080000000001,-0.005527037999999998,0.004752536,-0.02189156,-0.003080296600000001,6.471,0,0
0.0018734528000000001,0.014355062000000002,0.005376466000000001,-0.0246658,-0.0110085166,6.472,0,0
0.0025464514,0.026589882,0.003628840000000001,-0.025312780000000003,-0.019443996600000003,6.473,0,0
0.0017086760000000001,0.029471806,0.0019187660000000001,-0.024513240000000006,-0.024667940000000003,6.474,0,0
0.0008208339999999999,0.021613274000000002,0.001286134,-0.02124432,-0.024625800000000003,6.475,0,0
0.0009449140000000003,0.008055354000000002,0.0011149780000000002,-0.015963894,-0.02181798,6.476,0,0
0.001260946,-0.0024657060000000002,0.0018291216000000002,-0.010163014000000001,-0.016297182,6.477,0,0
0.0020897,-0.005442478000000001,0.0025469432,-0.004210590000000001,-0.008228102000000001,6.478,0,0
0.004586308000000001,-0.0033629839999999994,0.0013499912,0.0018306499999999999,7.099799999999963e-05,6.479,0,0
0.006600608000000001,-0.00013628799999999938,-0.0005069628,0.006678970000000001,0.0073701980000000005,6.48,0,0
0.006671186000000001,0.007279512,-0.0018013828,0.00883521,0.012298118,6.481,0,0
0.006016506000000001,0.013462452000000001,-0.0028572544,0.008542352,0.013764680000000001,6.482,0,0
0.004974794,0.011750794600000001,-0.003923572,0.00601198,0.012887614,6.483,0,0
0.004091798000000001,0.011796614600000001,-0.004701656,0.0012585200000000004,0.011228218,6.484,0,0
0.00450178,0.0127622506,-0.004222486,-0.0035416,0.009108814000000002,6.485,0,0
0.00570772,0.0050489706,-0.0020900040000000003,-0.005989810000000001,0.007192958000000002,6.486,0,0
0.0063715840000000004,-0.0034247694000000004,0.0003233700000000001,-0.006245423000000001,0.005163524000000001,6.487,0,0
0.0061708964000000005,-0.00577682,0.002258578,-0.003957325000000001,0.003154338,6.488,0,0
0.004026002400000001,-0.009894212000000001,0.004145228,0.003393735,0.003008264000000001,6.489,0,0
-0.00028901360000000006,-0.013721962,0.0046921,0.014031355000000002,0.0044601680000000005,6.49,0,0
-0.0050261336,-0.012338322,0.003624968,0.022753419000000004,0.005902424000000001,6.491,0,0
-0.0094004136,-0.010826562,0.002385438,0.02868921,0.008145798000000001,6.492,0,0
-0.013553292,-0.011649502,0.0016252094000000002,0.0314489,0.01170213,6.493,0,0
-0.01643564,-0.011272346,0.0015729114,0.029401480000000004,0.014743280000000001,6.494,0,0
-0.0176263,-0.010056572000000001,0.0024073854000000003,0.02360106,0.01636256,6.495,0,0
-0.01793062,-0.012992732,0.0029478434000000005,0.0159461876,0.016170500000000004,6.496,0,0
-0.01691742,-0.019521032000000004,0.002849128,0.008580093600000002,0.014629930000000003,6.497,0,0
-0.013935568,-0.025084252,0.0030911366,0.0025116236000000012,0.011992650000000002,6.498,0,0
-0.009530886,-0.033177356000000005,0.0017022806000000002,-0.0040597164,0.007335102000000001,6.499,0,0
-0.004884964000000001,-0.037615260000000005,-0.0035536173999999995,-0.0129411964,-0.0005483179999999999,6.5,0,0
0.000691016,-0.018425580000000004,-0.011352399400000001,-0.024903444000000004,-0.013630358000000002,6.501,0,0
0.007187736,0.012439120000000001,-0.01886223,-0.03765847,-0.029276728000000002,6.502,0,0
0.012986144000000002,0.03577504,-0.024424754,-0.04779754,-0.042485008000000005,6.503,0,0
0.017074322,0.0563625,-0.025000878,-0.054139900000000005,-0.05133404,6.504,0,0
0.01970482,0.07094778,-0.016304317999999998,-0.053624300000000014,-0.052133,6.505,0,0
0.021825980000000002,0.0652008,-0.001413338,-0.043035162,-0.041042325600000006,6.506,0,0
0.022630020000000004,0.04778402,0.010673702,-0.026687662,-0.0233324056,6.507,0,0
0.0215474,0.0307849,0.015307556000000002,-0.010848101999999998,-0.007034565600000001,6.508,0,0
0.019014638,0.010833839999999999,0.013849794000000002,0.0030711980000000007,0.0054145544,6.509,0,0
0.014494320000000002,-0.007444940000000001,0.008554062000000001,0.012614618000000001,0.0122347344,6.51,0,0
0.008032612000000001,-0.02226888,0.0031430220000000005,0.01650352,0.013367180000000001,6.511,0,0
0.0012464080000000005,-0.03300492,0.003635082,0.01619616,0.00968472,6.512,0,0
-0.0058643720000000005,-0.037287219999999996,0.010727568,0.01443372,0.004682688,6.513,0,0
-0.01160003,-0.031134916000000002,0.018238968,0.015438200000000003,0.003557608,6.514,0,0
-0.013797732,-0.023252062,0.020848902,0.0203614,0.005423488,6.515,0,0
-0.013808298000000002,-0.022621202,0.0185940356,0.02573822,0.007383808,6.516,0,0
-0.0120159828,-0.020277982,0.011934943600000003,0.029168320000000005,0.0091448,6.517,0,0
-0.0080749348,-0.015961522000000002,0.0025488836,0.0318523,0.011569722000000001,6.518,0,0
-0.004143378800000002,-0.012768088,-0.0046663164,0.030596700000000004,0.013161322,6.519,0,0
-0.0029096408,-0.009529461999999999,-0.008155626400000001,0.023564504,0.012676542,6.52,0,0
-0.0037593668000000004,-0.005957082000000001,-0.009851072,0.016617846000000002,0.011980642,6.521,0,0
-0.005607468000000001,-0.002569828,-0.010490560000000001,0.01213775,0.013488229999999999,6.522,0,0
-0.007618008000000001,-0.0027371680000000008,-0.010114960000000001,0.006840196000000001,0.01505782,6.523,0,0
-0.009235618000000001,-0.010326726000000001,-0.010512480000000001,0.0007401959999999998,0.013799780000000001,6.524,0,0
-0.009731076000000002,-0.012339136,-0.011394212,-0.004547748000000001,0.01147298,6.525,0,0
-0.008241974000000001,-0.0010011159999999998,-0.011822248,-0.00990175,0.007960234,6.526,0,0
-0.005280738000000001,0.01155483,-0.009917915200000002,-0.014399114000000001,0.0027238740000000003,6.527,0,0
-0.0008259060000000004,0.025272950000000002,-0.0042795152,-0.01610004,-0.003262486,6.528,0,0
0.004309648,0.03861623,0.0016413047999999995,-0.01541476,-0.009559166000000001,6.529,0,0
0.008956028000000001,0.039693172000000006,0.0063987648,-0.014499620000000003,-0.015147606000000001,6.53,0,0
0.011457618000000001,0.03130916,0.010263982800000002,-0.014460580000000002,-0.018849460000000002,6.531,0,0
0.010741002,0.020308558,0.010701407999999999,-0.015561380000000003,-0.02098302,6.532,0,0
0.007265864000000001,0.008892952000000003,0.007064926,-0.018203900000000002,-0.0215731,6.533,0,0
0.0027296760000000003,0.0017694926,0.00351386,-0.020110760000000002,-0.018837100000000002,6.534,0,0
-0.0004128639999999999,-0.005067499400000001,0.000952566,-0.0191619,-0.013940650000000002,6.535,0,0
-0.0017020476,-0.0175063274,-0.0011461138,-0.01679785,-0.008703212000000002,6.536,0,0
-0.0013105076,-0.028353365400000004,-0.001270648,-0.013748732,-0.0022318140000000004,6.537,0,0
0.0006363664,-0.0333322194,-0.0010614040000000002,-0.01038495,0.0031885480000000003,6.538,0,0
0.0033167884000000003,-0.03675226,-0.002455168,-0.00931605,0.003256968,6.539,0,0
0.0053899204,-0.029427000000000002,-0.004353934,-0.010844470000000002,-0.0008434420000000002,6.54,0,0
0.007149878,-0.008276060000000002,-0.0041766442,-0.012308920000000001,-0.00579046,6.541,0,0
0.009942748000000001,0.012388699999999999,-0.0025267960000000004,-0.011489228,-0.010792078,6.542,0,0
0.012592412,0.025866899999999998,-0.001234234,-0.007894209999999999,-0.013273748000000002,6.543,0,0
0.013125858,0.03178678,0.0006374300368000001,-0.00204297,-0.01050944,6.544,0,0
0.012450574,0.028681236000000002,0.0022252840368,0.0063329300000000005,-0.0035391000000000016,6.545,0,0
0.010686042,0.018723058000000004,0.0011353500368000001,0.015381170000000001,0.005156699999999999,6.546,0,0
0.005890274,0.008075425999999998,-0.0014028739632,0.0212064,0.01303748,6.547,0,0
-0.00033734599999999987,8.020180000000007e-05,-0.0028220679632,0.023763060000000003,0.018969368,6.548,0,0
-0.005103206,-0.0019128482,-0.003193546,0.0264091,0.022857460000000003,6.549,0,0
-0.008749514,-0.00025368419999999997,-0.0025999599999999997,0.02994608,0.0258272,6.55,0,0
-0.012459848,0.0022277878,-6.502000000000027e-06,0.033187680000000004,0.028579399999999998,6.551,0,0
-0.014875100000000002,0.006390699800000001,0.00291845,0.03601544,0.02943944,6.552,0,0
-0.015051680000000001,0.007251182000000001,0.004250404,0.036219760000000004,0.02765274,6.553,0,0
-0.013108290000000002,0.005352212000000001,0.004885212000000001,0.031508758000000005,0.023510332000000002,6.554,0,0
-0.0101887274,0.002502612000000001,0.005462840000000001,0.02185098,0.016160068,6.555,0,0
-0.0079077974,-0.004364142,0.004462028,0.00932382,0.0067870280000000005,6.556,0,0
-0.006252089400000001,-0.014665182,0.0022590326000000004,-0.0016429399999999999,9.205600000000008e-05,6.557,0,0
-0.006463889400000001,-0.02296496,0.0005719366,-0.00883592,-0.003677422,6.558,0,0
-0.0087057194,-0.028575399999999997,-0.0010786814000000003,-0.013544818000000002,-0.0077482340000000005,6.559,0,0
-0.011140682000000002,-0.0322523,-0.0025678954,-0.0173879,-0.012045430000000001,6.56,0,0
-0.012063572000000002,-0.02835533,-0.0033550974,-0.020113440000000003,-0.016167470000000003,6.561,0,0
-0.009537168000000002,-0.016776030000000004,-0.003863862,-0.024858440000000002,-0.022799318000000002,6.562,0,0
-0.0037751679999999998,-0.0014987300000000002,-0.003725626,-0.03135894,-0.03009998,6.563,0,0
0.001790452,0.012399430000000001,-0.0024760162000000002,-0.03236418,-0.030874400000000003,6.564,0,0
0.006643912000000001,0.01926635,-0.0019599342,-0.027839886,-0.02532922,6.565,0,0
0.011468952000000003,0.021248256,-0.0007204822000000002,-0.020279444,-0.016993576000000003,6.566,0,0
0.012538964,0.021199076,0.0027953777999999998,-0.008358344000000004,-0.004601175999999999,6.567,0,0
0.011218912000000001,0.017531816000000002,0.0049803858,0.005271476,0.009091724000000002,6.568,0,0
0.012325792,0.014498196000000001,0.0049913314,0.014568936000000001,0.016916244000000004,6.569,0,0
0.014555332,0.016326676000000002,0.0047978214,0.019173662,0.019203944,6.57,0,0
0.016960572,0.01766948,0.0028733053999999997,0.019959328,0.019857060000000003,6.571,0,0
0.019839908,0.012805588,-0.0015221846000000002,0.016605672000000002,0.017828,6.572,0,0
0.01978561,0.003784028000000001,-0.005128176600000001,0.011434482000000001,0.013906258000000001,6.573,0,0
0.015580600000000002,-0.007345172,-0.007542038000000001,0.004390062,0.010504108,6.574,0,0
0.010228478000000001,-0.017481332000000002,-0.007915076,-0.004088398,0.005166888,6.575,0,0
0.0035363860000000007,-0.026267352,-0.0047877219999999995,-0.011739326000000001,-0.003756732,6.576,0,0
-0.004845413999999999,-0.03306766,0.0010979079999999994,-0.01804593,-0.013777652000000001,6.577,0,0
-0.011772184,-0.027451284000000003,0.007313407999999999,-0.02312872,-0.02334373,6.578,0,0
-0.016250794,-0.016117624000000004,0.01178429,-0.026471260000000003,-0.03242394,6.579,0,0
-0.017244912,-0.008472420000000001,0.013690196,-0.02694748,-0.03771572000000001,6.58,0,0
-0.012130160000000001,0.0015722199999999998,0.011273698,-0.02392982,-0.03732228,6.581,0,0
-0.0035389,0.010662794,0.005563484,-0.0183416118,-0.034519180000000003,6.582,0,0
0.00217128,0.010654387999999999,-0.00028436000000000043,-0.009907851800000003,-0.029071760000000006,6.583,0,0
0.004257459999999999,0.009107408,-0.003223664,0.0029838881999999997,-0.018417700000000002,6.584,0,0
0.001985980000000001,0.009353648,-0.0041999672,0.0179808082,-0.005193760000000002,6.585,0,0
-0.00674074,0.0066637120000000005,-0.0044570352,0.029724048200000002,0.0072537800000000005,6.586,0,0
-0.01625464,0.007069418000000001,-0.0045228812,0.037013120000000004,0.0201678,6.587,0,0
-0.0206423,0.008485408,-0.006282357200000001,0.040711000000000004,0.03152036,6.588,0,0
-0.02021636,0.007457796,-0.0099207752,0.039196640000000005,0.03762004,6.589,0,0
-0.017479136,0.0074997760000000005,-0.014294006000000001,0.034020060000000005,0.04100704,6.59,0,0
-0.013869850000000001,0.008057526,-0.01578746,0.028070720000000004,0.0426821,6.591,0,0
-0.010415872,0.00613057,-0.013666164000000001,0.021969798000000002,0.04010376,6.592,0,0
-0.0067835138,-0.0010138100000000004,-0.006087404000000002,0.014604374000000002,0.033722180000000004,6.593,0,0
-0.0018999738000000004,-0.009601038000000001,0.0056148759999999995,0.0059345940000000005,0.025808234,6.594,0,0
0.0044928022,-0.016750962,0.012557056,-0.0027939260000000004,0.015829379999999997,6.595,0,0
0.0109150162,-0.025405456000000003,0.013800326,-0.011141466000000001,0.004699140000000001,6.596,0,0
0.0144116382,-0.0314026,0.009995709999999998,-0.018164364000000002,-0.00370226,6.597,0,0
0.0144658044,-0.027755630000000003,-0.0021557300000000015,-0.02391006,-0.00938954,6.598,0,0
0.012115972400000001,-0.019377290000000005,-0.01598183,-0.02804328,-0.014218154,6.599,0,0
0.010707432400000001,-0.011919568000000002,-0.019459706000000004,-0.03066526,-0.018356360000000002,6.6,0,0
0.0108334324,0.0007264120000000001,-0.016110416000000002,-0.03073426,-0.020434800000000003,6.601,0,0
0.0115461724,0.020402192,-0.011379550000000002,-0.02780962,-0.020388580000000003,6.602,0,0
0.013619608000000002,0.039426022000000005,0.0005845700000000004,-0.023536500000000002,-0.01919468,6.603,0,0
0.013093950000000002,0.047897302,0.01570099,-0.018442608,-0.015531168000000001,6.604,0,0
0.00898875,0.04364150000000001,0.023187986,-0.01223863,-0.009210320000000001,6.605,0,0
0.005294928000000001,0.03225298,0.022346394000000002,-0.0057295,-0.003013984,6.606,0,0
0.0021509274,0.015036899999999997,0.019809402,-0.0003817999999999994,0.001124566,6.607,0,0
-0.0017608606000000001,-0.006250880000000002,0.01583599428,0.00630344,0.0038898480000000004,6.608,0,0
-0.004367830600000001,-0.020556420000000002,0.008686944280000001,0.014296868,0.004220751400000001,6.609,0,0
-0.0065221306,-0.01998062,0.00278312228,0.019868990000000003,0.0019770854,6.61,0,0
-0.0096219666,-0.014222172,-0.0003172737199999998,0.02221832,-0.0008113126,6.611,0,0
-0.010488944,-0.013200012,-0.0013693777200000003,0.022302999999999996,-0.0037387826,6.612,0,0
-0.00954168,-0.019983592,-0.0022102040000000003,0.02088964,-0.0047436172,6.613,0,0
-0.008770860000000002,-0.021435312,-0.0044745620000000005,0.01842928,-0.0017594325999999998,6.614,0,0
-0.0083776,-0.011338012000000001,-0.005641428000000001,0.01600098,0.0038290454,6.615,0,0
-0.0076871,-0.0013837999999999993,-0.0041278462,0.014011992,0.0091101074,6.616,0,0
-0.005400366,0.009130899999999999,-0.0024198706,0.01086615,0.013030147399999999,6.617,0,0
-0.001664222,0.0223782,-0.0017996826000000001,0.005430330000000001,0.01454232,6.618,0,0
0.0031727780000000002,0.028216186,-0.0006172488000000001,-0.0019997500000000002,0.0111445,6.619,0,0
0.007198652,0.019223104000000005,-0.0002864288000000001,-0.010260430000000001,0.00433796,6.62,0,0
0.008237906000000001,0.008016228000000002,-0.0025687626000000002,-0.017913162000000003,-0.0029149400000000004,6.621,0,0
0.0065035959999999995,0.00026254999999999996,-0.0049069082,-0.02383222,-0.01003554,6.622,0,0
0.0035597999999999992,-0.0027516738,-0.0052409882,-0.026990660000000003,-0.01614002,6.623,0,0
0.0017357519999999997,-0.0010136918000000002,-0.0047480940000000004,-0.02655638,-0.0189981,6.624,0,0
0.0020871780000000003,0.0003584641999999999,-0.00452622148,-0.023012050000000003,-0.0192277,6.625,0,0
0.0038153380000000006,0.0010855882000000002,-0.0042658574799999995,-0.018077632000000003,-0.018600000000000002,6.626,0,0
0.004579092000000001,2.8232200000000065e-05,-0.00338574948,-0.0115405756,-0.015662908000000003,6.627,0,0
0.0038185700000000003,-0.0016903040000000001,-0.00056952348,-0.0040275756,-0.011349521400000001,6.628,0,0
0.0018800420000000004,-0.0054633519999999994,0.0024846165200000003,0.0034247844000000003,-0.006987333400000001,6.629,0,0
-0.001611488,-0.008489606,0.004407322,0.0111829544,-0.0022702954000000004,6.63,0,0
-0.004819774000000001,-0.010470354000000001,0.00685719,0.0178921164,0.0033020845999999996,6.631,0,0
-0.006691036,-0.011331712,0.008327260000000001,0.022175060000000003,0.0084494726,6.632,0,0
-0.007451386,-0.008789092000000002,0.0061860356,0.023591620000000004,0.011718366000000001,6.633,0,0
-0.008172352,-0.004654466,0.0017022575999999998,0.022051180000000004,0.014926858000000001,6.634,0,0
-0.007746912,0.001166354,-0.0019171764,0.018423980000000003,0.01795458,6.635,0,0
-0.005137862,0.006668334000000001,-0.0037504384,0.01386316,0.01944098,6.636,0,0
-0.0015983759999999992,0.009671837999999999,-0.0041693524,0.008444410000000001,0.01916624,6.637,0,0
0.003083832,0.009348342,-0.003543458,0.0029512380000000006,0.017891028,6.638,0,0
0.007407274,0.003568636,-0.0029192133999999996,-0.0017781140000000003,0.014542038,6.639,0,0
0.0090084,-0.006547484000000001,-0.0033437094000000004,-0.006064234,0.009316288,6.64,0,0
0.008300006,-0.013662784,-0.0036541134,-0.009999273999999999,0.003867312,6.641,0,0
0.006953206000000001,-0.017222118,-0.0042557174,-0.012826284000000002,-0.001678148,6.642,0,0
0.004290408000000001,-0.019036436000000004,-0.0066026834,-0.013562512,-0.006194476000000001,6.643,0,0
0.0014544620000000001,-0.012397075999999998,-0.008262834,-0.012531262000000001,-0.008814288,6.644,0,0
0.0006217060000000002,0.0014717439999999997,-0.007789858,-0.010292793400000002,-0.009642506,6.645,0,0
0.00014800600000000006,0.013883404000000002,-0.006705822,-0.007066667400000001,-0.009806554,6.646,0,0
-0.001296866,0.022083666000000002,-0.004699674,-0.0035707154000000005,-0.008845664000000001,6.647,0,0
-0.002628938,0.024937296,-0.0004657979999999999,-0.0005308114000000001,-0.006368578,6.648,0,0
-0.0034145380000000004,0.018075296,0.004704266,0.0019289446000000003,-0.0036478619999999995,6.649,0,0
-0.004263664,0.0035402359999999987,0.00954487,0.0033477180000000004,-0.0019470120000000001,6.65,0,0
-0.004656024,-0.009983823999999999,0.012536068000000001,0.004267826000000001,-0.00022679959999999996,6.651,0,0
-0.004040748,-0.01820218,0.01245179,0.005073134,0.0010689864000000002,6.652,0,0
-0.003532052,-0.019258762,0.010149134,0.0042389160000000006,-0.0009024995999999995,6.653,0,0
-0.0034414600000000004,-0.013606635999999998,0.00745116,0.0015533760000000004,-0.0052383136,6.654,0,0
-0.00211712,-0.0053296614,0.005189106000000001,-0.002807526,-0.0105179356,6.655,0,0
-0.0001060919999999999,0.0004893514,0.004120712,-0.00789918,-0.016055284000000003,6.656,0,0
0.0019396399999999999,0.002394238,0.004487878000000001,-0.01111844,-0.01969528,6.657,0,0
0.004917274,0.001441894,0.004531538000000001,-0.011454594,-0.0188568,6.658,0,0
0.007816176000000001,0.0005823040000000001,0.0041324000000000005,-0.008933112,-0.013928844000000001,6.659,0,0
0.008601536,0.0028468694000000007,0.002753502,-0.003468952,-0.005675864,6.66,0,0
0.0071935816,0.004773476600000001,0.0003125900000000002,0.0045503079999999994,0.005033016,6.661,0,0
0.0041637496,0.00521716,-0.001577436,0.012858188,0.014684016000000001,6.662,0,0
-0.0001375844000000004,0.0056298300000000015,-0.0031345619999999996,0.018495696000000002,0.021000976000000005,6.663,0,0
-0.0044286724,0.004614078000000001,-0.00584011,0.020967,0.0232684,6.664,0,0
-0.007749886400000001,0.0011237379999999998,-0.009408418000000002,0.020668440000000003,0.02204924,6.665,0,0
-0.009672672,-0.002053984,-0.012901652,0.017493864,0.01886362,6.666,0,0
-0.0109538,-0.003403478,-0.015849162,0.0122129864,0.015514540000000004,6.667,0,0
-0.011850106,-0.004863124,-0.016231036,0.0070494544,0.01280494,6.668,0,0
-0.010903782,-0.006419302,-0.011596896,0.0023060984000000005,0.009793314000000001,6.669,0,0
-0.0087718684,-0.007645922000000001,-0.003223855999999999,-0.0028499816000000003,0.00626609,6.67,0,0
-0.0061126744,-0.0065229254,0.004205824,-0.0076470056,0.00211847,6.671,0,0
-0.0013599144000000004,-0.0020618854000000004,0.008916566,-0.012291988,-0.0033322499999999997,6.672,0,0
0.004617445600000001,0.0037274606000000004,0.01108068,-0.017013176,-0.00964021,6.673,0,0
0.009242741600000002,0.0096556546,0.008914773,-0.020477100000000005,-0.013984944,6.674,0,0
0.012079248,0.0146087546,0.004161021000000001,-0.0213084,-0.01592948,6.675,0,0
0.0137862,0.013758389999999999,0.001532779,-0.02059662,-0.0179641,6.676,0,0
0.013057402,0.008980971999999999,1.0313000000000076e-05,-0.018393620000000003,-0.01854788,6.677,0,0
0.010224728,0.005435921999999999,-0.0027550250000000004,-0.014113644000000002,-0.01705632,6.678,0,0
0.00790158,0.002821688,-0.005855478000000001,-0.009931784,-0.01628978,6.679,0,0
0.006178406,0.0032590680000000004,-0.006300750000000001,-0.006433924200000001,-0.01592232,6.68,0,0
0.004250734,0.005604406000000001,-0.0029735079999999997,-0.0028309022000000002,-0.01379843,6.681,0,0
0.0024913539999999994,0.005319852,0.0030179360000000006,4.818779999999994e-05,-0.011397879999999999,6.682,0,0
0.0009830799999999999,0.002280082000000001,0.009883515999999998,0.0015141298000000002,-0.009816388,6.683,0,0
-0.0005640379999999999,-0.0018170639999999993,0.014903410000000002,0.0036624658000000004,-0.0062987320000000005,6.684,0,0
-0.0007490719999999999,-0.007657184,0.0159192746,0.007026566,-0.0010416520000000001,6.685,0,0
-0.0003795319999999997,-0.011271812,0.011759300600000001,0.010221684,0.004218618,6.686,0,0
-0.000852692,-0.011247977999999999,0.004943504599999999,0.013570694000000001,0.010588448,6.687,0,0
-0.0005416019999999999,-0.010273636,-0.0010968833999999998,0.017097896,0.017775736,6.688,0,0
-0.0001612419999999998,-0.0076067794,-0.0035029134000000004,0.01915978,0.023413160000000002,6.689,0,0
-0.0020396240000000003,-0.004212703399999999,-0.00341483,0.019515280000000003,0.02766448,6.69,0,0
-0.004832338,-0.0015230554000000003,-0.0026768820000000002,0.01991184,0.0322691,6.691,0,0
-0.005893209999999999,0.0005424586,-0.0011029260000000002,0.020690320000000005,0.03547952,6.692,0,0
-0.006845319999999999,0.0045829366,-0.00018340400000000008,0.02068162,0.0363788,6.693,0,0
-0.008864094,0.0098711,-5.7836000000000074e-05,0.01979642,0.03661956,6.694,0,0
-0.010261804,0.012816324000000002,-0.001043188,0.018410299999999998,0.0340154,6.695,0,0
-0.011185358000000001,0.013721388000000003,-0.0035723020000000003,0.015122626,0.026716772,6.696,0,0
-0.012492388000000002,0.013784946000000001,-0.004905292,0.009725846,0.016877516000000002,6.697,0,0
-0.012201784,0.010734888000000001,-0.006673086,0.0038124540000000007,0.005780396,6.698,0,0
-0.009062638,0.004553298000000001,-0.010024778000000002,-0.0017432460000000006,-0.006622804,6.699,0,0
-0.0074198580000000005,-0.004194521999999999,-0.00788042,-0.008617765999999999,-0.019106424000000004,6.7,0,0
-0.0078041180000000005,-0.015645774,-0.0021436,-0.017002972,-0.030327416000000003,6.701,0,0
-0.005173482,-0.026401008,0.0014963900000000002,-0.024835672000000003,-0.039657300000000006,6.702,0,0
0.0009412220000000002,-0.03328491,0.0045083480000000006,-0.0315601,-0.04654884,6.703,0,0
0.008015456,-0.03450464,0.007671604000000002,-0.03649538,-0.05071438,6.704,0,0
0.016004616,-0.030901784,0.0077924100000000005,-0.037741460000000004,-0.050502439999999996,6.705,0,0
0.023749176,-0.023443164000000002,0.005069346000000001,-0.03440932,-0.04518628000000001,6.706,0,0
0.0265347,-0.011923547999999999,0.00338387,-0.027665884,-0.036572900000000005,6.707,0,0
0.023399774,0.0012665920000000004,0.00218231,-0.018082065999999997,-0.025355422000000002,6.708,0,0
0.017437838,0.012948832,-0.0023814860000000004,-0.007737326000000001,-0.012935242000000003,6.709,0,0
0.010918256000000001,0.021616556000000002,-0.010256422000000001,0.0010796339999999995,-0.002086842000000001,6.71,0,0
0.0035473160000000013,0.022980448000000004,-0.014909738,0.007933314,0.006078098,6.711,0,0
-0.002941444,0.018907912000000002,-0.015421180000000001,0.012076037999999999,0.011360377999999999,6.712,0,0
-0.006306149999999999,0.016338532000000003,-0.012750218000000002,0.01284253,0.01352684,6.713,0,0
-0.009437464000000001,0.013020992,-0.006192992000000001,0.011617684,0.01378706,6.714,0,0
-0.011120362000000002,0.010131952,0.0008414319999999997,0.009534352,0.0133425,6.715,0,0
-0.0081898366,0.01369702,0.0044096280000000005,0.006608655999999999,0.011960680000000001,6.716,0,0
-0.0034973485999999997,0.01871518,0.002602356,0.004104135,0.010975548000000002,6.717,0,0
-0.00020049460000000027,0.01650633,-0.0012806000000000002,0.0020299056,0.010462593999999999,6.718,0,0
0.0023194314,0.009359978,-0.0036063540000000004,0.0001818676000000001,0.009347256,6.719,0,0
0.0035883054,0.004132891999999999,-0.004368098,-1.6876400000000115e-05,0.009640076000000001,6.72,0,0
0.0022492379999999998,0.0015414392000000002,-0.0018658540000000001,0.0019245156000000001,0.011491936000000001,6.721,0,0
-0.00042276999999999983,-0.0009613326000000001,0.003514156,0.0046113966000000004,0.012446208,6.722,0,0
-0.004444652,-0.0019842526000000004,0.008966291999999999,0.007447596000000001,0.013026922000000002,6.723,0,0
-0.009069448,-0.0007450886000000001,0.014192,0.009536368,0.01352252,6.724,0,0
-0.011611122,-0.0016465986,0.018595360000000002,0.009785154,0.01185394,6.725,0,0
-0.012631660000000001,-0.0051004858,0.01985634,0.007974660000000001,0.008205032,6.726,0,0
