bandpass 1,bandpass 2,bandpass 3,bandpass 4,bandpass 5,time,onset,mark
-0.000826816,0.0025889430000000002,-0.0025832620000000002,-0.00016902299999999997,-0.0010475936,4.056,1,1
-0.0009166094,0.004767423000000001,-0.004333406000000001,-0.00013983999999999996,-0.0011266378,4.057,0,0
-0.0013004614,0.0055202129999999995,-0.00441502,-0.00021484979999999998,-0.0011466494000000002,4.058,0,0
-0.0013051504,0.005183148,-0.0029858239999999998,0.00032298820000000003,0.0005956386000000001,4.059,0,0
1.3513599999999816e-05,0.003982988,-0.001147774,0.0004976196,0.0019134826,4.06,0,0
0.00043312259999999997,0.0013335760000000002,0.00235143,0.00014917840000000006,0.0022572782000000002,4.061,0,0
0.0006528221999999999,-0.001599834,0.0053971060000000005,0.00016819940000000003,0.0032303684,4.062,0,0
0.0015663722,-0.002812216,0.005440017400000001,0.00041953560000000006,0.003928804,4.063,0,0
0.0016551238000000002,-0.0029410380000000004,0.0037263574,5.6764600000000016e-05,0.0028137678000000003,4.064,0,0
0.0008913354000000001,-0.002298014,0.0018994253999999999,-0.0002968544,0.0017860464000000003,4.065,0,0
0.0009128294000000001,-0.00011042799999999965,-0.0006241866000000002,-8.226360000000004e-05,0.0010119804000000001,4.066,0,0
0.0008236186000000001,0.002044136,-0.0027332906000000004,-0.00012900795400000003,-0.0006234896000000001,4.067,0,0
-0.00019342139999999996,0.003808774,-0.0031813500000000003,-0.00021801295400000005,-0.0019111616000000004,4.068,0,0
-0.0006473379999999999,0.005420266000000001,-0.003081794,0.00035799804600000003,-0.0024260794000000004,4.069,0,0
-0.000742285,0.0054309480000000005,-0.0023149494,0.0006947156460000001,-0.0031965960000000003,4.07,0,0
-0.001616354,0.0043160664000000005,-0.0013391634000000003,0.0005501362460000001,-0.0038426020000000005,4.071,0,0
-0.0019750314,0.0017828444000000001,-0.0005217297,0.0007245928000000001,-0.0034330880000000004,4.072,0,0
-0.0013019428,-0.0019252016,0.0004284803,0.0008323914000000001,-0.0025953680000000002,4.073,0,0
-0.0017335628,-0.0039085916000000005,0.0016013983,4.117740000000002e-05,-0.001644246,4.074,0,0
-0.0020376034,-0.004384315600000001,0.0023241657000000002,-0.0002463898,5.023600000000005e-05,4.075,0,0
-0.0007542814,-0.004648595200000001,0.0020848589,0.00023757279999999994,0.002121912,4.076,0,0
0.0003796746000000001,-0.004271331200000001,0.0017429892000000002,-0.0003758034000000001,0.0033863780000000002,4.077,0,0
0.00094129,-0.0043850712,0.0009174012000000003,-0.0011181493999999998,0.0036795100000000004,4.078,0,0
0.0022914000000000003,-0.0056290852,-0.0004939488,-0.0010085854,0.0038871560000000006,4.079,0,0
0.0032081280000000006,-0.006885159200000001,-0.0018413388000000004,-0.00089149156,0.0036614900000000003,4.08,0,0
0.0027924194000000005,-0.007368658,-0.002585462,-0.0008151215599999997,0.0023325184,4.081,0,0
0.0021564012000000006,-0.006394078000000001,-0.002658464,1.412844000000011e-05,0.0006260683999999999,4.082,0,0
0.0014605848000000003,-0.0039796484,-0.0030617320000000006,0.00073422164,-0.0014733896,4.083,0,0
0.0007891962000000001,-0.0019234124000000001,-0.003018888,0.0007812320400000001,-0.0039854316,4.084,0,0
-0.0002193138,-0.0005870442000000002,-0.0021843440000000004,0.0013648136,-0.0058574496,4.085,0,0
-0.0011549092,-0.00028611019999999997,-0.00094555,0.0018775336,-0.006836714,4.086,0,0
-0.002246829,-0.00016084419999999995,3.839400000000019e-05,0.0018730416,-0.0074161040000000015,4.087,0,0
-0.0036275626,0.0016688982,0.0005195900000000001,0.0023220944000000004,-0.006583128,4.088,0,0
-0.004768624000000001,0.0050588022,0.00021183599999999986,0.0030703780000000003,-0.004464271600000001,4.089,0,0
-0.005400854,0.010296458000000001,-0.0008739940000000001,0.0022731860000000004,-0.0028694256000000003,4.09,0,0
-0.005300000000000001,0.011467864000000001,-0.0007710200000000003,0.00048805600000000017,-0.0010519816000000002,4.091,0,0
-0.0038234100000000006,0.0072739020000000005,-3.4060000000000036e-05,-0.0006051459999999998,0.0020652104,4.092,0,0
-0.0009800740000000003,0.004521774000000001,0.0008199719999999998,-0.002114144,0.004686632400000001,4.093,0,0
0.0004941319999999998,0.0009673748000000003,0.002952776,-0.003959748,0.005511412000000001,4.094,0,0
0.0012805560000000002,-0.004952613200000001,0.005291924,-0.004684368,0.006225802000000002,4.095,0,0
0.003305278,-0.0052335972000000005,0.005161406000000001,-0.004341254,0.006354188000000002,4.096,0,0
0.00401197,-0.0012162998,0.0040013818,-0.003921966,0.004354632000000001,4.097,0,0
0.0027546080000000004,-0.0016380398000000003,0.0037511018,-0.0028903317999999997,0.0020068240000000004,4.098,0,0
0.002964836,-0.0028338306,0.0023361182,-0.0009287598,0.0006825680000000004,4.099,0,0
0.003931046,-0.0027350286000000002,-0.0004140858000000001,0.0009220341999999998,-0.000943072,4.1,0,0
0.0028948800000000003,-0.0037417226000000005,-0.0031886177999999998,0.0024018602,-0.002691792,4.101,0,0
0.0016719564000000002,-0.003297518,-0.005676127599999999,0.0035762742,-0.0025999286,4.102,0,0
0.0016435024,-0.0005811900000000003,-0.0082403276,0.004305356,-0.0015457065999999998,4.103,0,0
0.0018359164,0.0030065,-0.010455222,0.003831766,-0.0009678292,4.104,0,0
0.0014911024000000001,0.004909686,-0.009499944,0.002540024,-6.0315200000000035e-05,4.105,0,0
0.0010701338,0.0054685382,-0.005341702,0.0013182920000000002,0.0017859448000000003,4.106,0,0
0.0005934733999999999,0.0050643742,-0.0015593440000000007,-0.000692336,0.0029630294,4.107,0,0
-0.00041303060000000004,0.0015959222000000006,0.002985136,-0.003295656,0.0034586794000000002,4.108,0,0
-0.0012795246,-0.0034703577999999997,0.009368536,-0.004743238,0.0049012940000000005,4.109,0,0
-0.0014539922000000002,-0.0056525018,0.012415180000000001,-0.005088456,0.005685916000000001,4.11,0,0
-0.0015234996,-0.0044690039999999995,0.010650888,-0.005171458,0.004934196399999999,4.111,0,0
-0.0016343316,-0.0017557419999999998,0.007742688000000001,-0.0041308532,0.004031619199999999,4.112,0,0
-0.0015869216,0.0027480580000000007,0.003691942000000001,-0.0020611772,0.0025039772,4.113,0,0
-0.0025636756,0.005661350600000001,-0.0013974859999999999,-0.0005022272000000001,-0.0001492148,4.114,0,0
-0.00412487,0.004434054600000001,-0.003780444,0.0006637728,-0.0021382988,4.115,0,0
-0.00565764,0.0003659126000000001,-0.002475398,0.0022537288000000003,-0.0028645952000000002,4.116,0,0
-0.006602938,-0.0036723334,0.00018769800000000025,0.0036627180000000006,-0.004224154000000001,4.117,0,0
-0.0060064542000000005,-0.004816551399999999,0.002945224,0.0045948180000000005,-0.005481418,4.118,0,0
-0.0055519202,-0.0035045759999999997,0.0045889600000000004,0.00589133,-0.0056033440000000006,4.119,0,0
-0.0043162188,-0.0008164839999999993,0.0034236600000000002,0.006722136000000001,-0.005988160000000001,4.12,0,0
-3.384879999999979e-05,0.0019303291600000002,0.0013295479999999998,0.006057168000000002,-0.0062459360000000005,4.121,0,0
0.003956127200000001,0.0032874071600000007,-0.0004271759999999999,0.004756552400000001,-0.005044545800000001,4.122,0,0
0.0055943574000000005,0.0023170475600000004,-0.0034803360000000005,0.0028618064000000003,-0.002650135800000001,4.123,0,0
0.0070920134000000004,1.9279559999999907e-05,-0.007425984000000002,-0.00023018759999999974,-0.0007323117999999999,4.124,0,0
0.007187510400000001,-0.0008668884400000001,-0.010416246,-0.0031965896000000003,0.0015148342000000001,4.125,0,0
0.0047627746,-0.0005861676000000001,-0.011909030000000001,-0.0051268976,0.0039742482,4.126,0,0
0.0020638979999999998,-0.0014200255999999999,-0.01074947,-0.006548288000000001,0.004713054,4.127,0,0
6.642600000000007e-05,-0.00115023,-0.0050584900000000006,-0.006821802,0.00447215,4.128,0,0
-0.000821523,0.0016142340000000002,0.00250507,-0.005804854000000002,0.004173638,4.129,0,0
0.0006230746000000001,0.0036530380000000004,0.0077123120000000015,-0.00437443,0.0030862770000000006,4.13,0,0
0.0034718704000000003,0.0051113800000000004,0.0097098652,-0.002767212,0.0007680030000000002,4.131,0,0
0.005717127,0.006628386,0.008929698600000001,-0.00038184799999999995,-0.0006990910000000001,4.132,0,0
0.006719213,0.00536324,0.005126590400000001,0.002094096,-0.0017802510000000003,4.133,0,0
0.006081358,0.00190214,-1.7563599999999833e-05,0.0038071100000000007,-0.003609747,4.134,0,0
0.0036115059999999996,-0.0012123620000000005,-0.0024928216000000003,0.005327124000000001,-0.004778156,4.135,0,0
-0.00019136600000000043,-0.004215686000000001,-0.0008407467999999997,0.006371450000000002,-0.004960152,4.136,0,0
-0.003610556,-0.005373340000000001,0.0019904698,0.0059024440000000015,-0.005223208,4.137,0,0
-0.005802998,-0.0037089140000000002,0.0034313119999999997,0.004199813600000001,-0.004994364,4.138,0,0
-0.005812732000000001,-0.0018400460000000003,0.004861282,0.002562191600000001,-0.002743714,4.139,0,0
-0.003664328,-0.00167047,0.005381462,0.0004052896000000002,-0.00028896399999999984,4.14,0,0
-0.0013368580000000004,-0.0026039419999999997,0.002463536,-0.0022791284,0.001885286,4.141,0,0
0.0009648019999999996,-0.003650278,-0.001363438,-0.0040994364,0.004992996,4.142,0,0
0.0034519159999999998,-0.004905426,-0.00354902,-0.004847138,0.0069998740000000005,4.143,0,0
0.00447826,-0.004985486399999999,-0.004485172000000001,-0.005261822,0.006796036,4.144,0,0
0.003817436,-0.0025613324000000005,-0.004320394,-0.004882076,0.006099084,4.145,0,0
0.0029437280000000005,0.0009321795999999998,-0.0033712860000000007,-0.0031783820000000004,0.0048291474,4.146,0,0
0.0003156960000000005,0.0030897256000000004,-0.0026341460000000004,-0.0013769099999999999,0.0024493814000000006,4.147,0,0
-0.004630682,0.0034188698,-0.0023234,7.454200000000003e-05,0.00046460939999999997,4.148,0,0
-0.009543702000000001,0.0028266022,-0.002051924,0.0019337040000000003,-0.0006182706,4.149,0,0
-0.014245292,0.0020735502,-0.0015546662000000002,0.003664898,-0.0020131126000000003,4.15,0,0
-0.019719282,0.0011601882,-0.0003259462000000004,0.0042856940000000005,-0.003259188,4.151,0,0
-0.022732480000000003,0.0006225282000000001,0.0010603957999999998,0.004748642,-0.003604256,4.152,0,0
-0.02249608,0.001076262,0.0025848918,0.004816104,-0.0038032340000000004,4.153,0,0
-0.0178775052,0.0015164838,0.0036345298000000003,0.0037356063900000004,-0.004050072,4.154,0,0
-0.0034973852000000014,0.0013525442,0.002404034,0.00227288639,-0.00331326,4.155,0,0
0.013395714800000002,0.000896906,-0.00010135599999999993,0.00100217639,-0.001496862,4.156,0,0
0.0232645348,0.0004738626,-0.001581692,-0.0007629456100000001,-4.653000000000014e-05,4.157,0,0
0.028362208800000004,0.0005282406,-0.002174902,-0.0025922236100000004,0.00141645,4.158,0,0
0.028070838000000004,0.0012567448,-0.003312074,-0.003557974,0.0033087980000000004,4.159,0,0
0.0182054934,0.0018238344000000002,-0.0033868260000000003,-0.0045960919999999995,0.004268884000000001,4.16,0,0
0.006259320400000001,0.0022113946000000004,-0.0022607300000000003,-0.005471158,0.0037863370000000003,4.161,0,0
0.0005015683999999999,0.0026639060000000006,-0.0018356730000000003,-0.00539413,0.003390713,4.162,0,0
-0.0007099550000000002,0.002995526,-0.001584075,-0.004597026,0.0029253510000000005,4.163,0,0
0.0001674389999999999,0.003171492,-0.0006412290000000003,-0.0036337500000000003,0.0011822330000000002,4.164,0,0
0.00020891359999999988,0.002693514,0.0003780612,-0.0018573140000000003,-0.00023509499999999994,4.165,0,0
-0.0005169554000000002,0.0013867559999999998,0.0005217872000000001,0.000443192,-0.0007737639999999999,4.166,0,0
-0.0012778354000000003,-0.0003697720000000004,0.00030572620000000005,0.001931826,-0.001994268,4.167,0,0
-0.00234123,-0.001876802,0.00045018620000000006,0.003223718,-0.003106788,4.168,0,0
-0.001259306,-0.0031097739999999996,0.0008530942000000001,0.00441722,-0.0027872694000000003,4.169,0,0
0.0010394839999999998,-0.004120264,0.0011666024000000002,0.004512262,-0.0027945194000000002,4.17,0,0
0.00214375,-0.004448822,0.0019506084000000003,0.0035480572000000004,-0.0033774314000000003,4.171,0,0
0.0025844659999999997,-0.00411671,0.0031140924000000003,0.0025267452000000004,-0.0028944934000000003,4.172,0,0
0.002150724,-0.004048414,0.0033474924000000002,0.0014071312000000003,-0.002013752,4.173,0,0
-0.001284084,-0.004207844,0.0031161644000000004,-0.00036068280000000003,-0.0016806242000000004,4.174,0,0
-0.00568863,-0.003264444,0.003571926,-0.0018665888,-0.00034813219999999976,4.175,0,0
-0.007472886,-0.0020041512,0.00356946,-0.002175644,0.0018851818000000002,4.176,0,0
-0.007927488,-0.0013070612,0.0024514040000000003,-0.0022979420000000003,0.0026878678000000003,4.177,0,0
-0.007695678,0.00029380279999999996,0.00012819999999999997,-0.0026674180000000004,0.0027104064000000004,4.178,0,0
-0.0060901292,0.0024457788000000003,-0.0029086320000000004,-0.0018989856,0.0032822300000000006,4.179,0,0
-0.0032963572000000003,0.0032382268000000006,-0.004503318,-0.0005660676000000002,0.0027022818000000002,4.18,0,0
0.0001600547999999996,0.0036118440000000008,-0.005143118,-9.582159999999999e-05,0.00030420579999999994,4.181,0,0
0.0029590208,0.0037155760000000004,-0.005032766000000001,0.0005319304000000001,-0.0008380282000000001,4.182,0,0
0.0050827788,0.0016173260000000005,-0.0025132419999999997,0.0016344244000000003,-0.0009549882,4.183,0,0
0.006616375999999999,-0.0009290079999999998,0.0010868700000000002,0.0019648500000000006,-0.0022902182,4.184,0,0
0.006168942,-0.00213216,0.0027061600000000004,0.0021444240000000002,-0.0029375779999999997,4.185,0,0
0.00409086402,-0.0024094836000000002,0.0030900266000000003,0.0025972980000000005,-0.002004702,4.186,0,0
0.00241428602,-0.0013526535999999999,0.0031698954000000004,0.0026678220000000002,-0.0017371360000000002,4.187,0,0
0.00035326202000000016,0.00024429439999999975,0.0020010334000000003,0.0021828344000000004,-0.0018221671,4.188,0,0
-0.0023290919799999997,0.0006719523999999999,0.0011249914000000002,0.0014222764000000002,-0.0004324111,4.189,0,0
-0.00382566198,0.0005000164,0.0010718394000000001,0.0005625483999999999,0.0008089569000000001,4.19,0,0
-0.004978884,0.0011076719999999999,0.0013283708,-0.0007295896000000001,0.0013856829,4.191,0,0
-0.005609192000000001,0.0012654979999999999,0.0017354560000000002,-0.0013961756,0.0029336429,4.192,0,0
-0.004490049400000001,0.00085037864,0.001731556,-0.0014665594,0.004051254,4.193,0,0
-0.0033347076000000008,0.0012006790400000001,0.001398893,-0.0018212274,0.0035242680000000005,4.194,0,0
-0.0025144256000000005,0.0016952074400000002,0.0008130090000000001,-0.0017941234,0.003305382,4.195,0,0
-0.0006951016,0.00124237344,2.240700000000006e-05,-0.0012068954,0.0034904520000000002,4.196,0,0
0.0011242644,-0.00047806856,-0.000719379,-0.0010106064,0.0022040276,4.197,0,0
0.0013956946,-0.0014607552000000003,-0.0011665150000000001,-0.001451187,0.0005970815999999998,4.198,0,0
0.0016766312000000001,-0.0010434256000000002,-0.0017535060000000002,-0.0010168126,0.0003114556,4.199,0,0
0.0029620792000000003,-0.00115840798,-0.002299054,-0.0002446146,-0.0003796543999999999,4.2,0,0
0.0031025052000000003,-0.00165817998,-0.002442428,-7.623579999999999e-05,-0.0016620344,4.201,0,0
0.0022971314,-0.0012267999800000002,-0.0025375320000000003,0.0005320152,-0.001845864,4.202,0,0
0.0021916082000000003,-0.00034579477999999994,-0.0020784275400000003,0.0013956192000000001,-0.0018613940000000002,4.203,0,0
0.0015213357999999998,-0.00027033278,-0.0015165971400000003,0.0014176918,-0.0026494360000000002,4.204,0,0
-0.0003999622000000002,-0.000235373,-0.0007738995400000002,0.0009594028000000001,-0.0028359780000000003,4.205,0,0
-0.0014697022000000003,0.00035889100000000007,0.00021534046000000004,0.001038828,-0.0021540248,4.206,0,0
-0.0019417724000000002,0.0012939170000000001,0.0007406118400000001,0.0007285378,-0.0021418768000000003,4.207,0,0
-0.0026962000000000006,0.0011652578000000001,0.00158864938,0.0002894814,-0.001515121,4.208,0,0
-0.0024065480000000005,0.0004778538000000001,0.00261166498,0.0008520844,0.0003179890000000001,4.209,0,0
-0.0015071386000000003,0.0019562720000000002,0.00203693138,0.0012523334000000001,0.0011163030000000001,4.21,0,0
-0.0012306054,0.004963656,-0.0005573326200000004,0.0007019534000000001,0.0011411016,4.211,0,0
-0.0007422954000000003,0.007480545999999999,-0.0033675960000000005,-0.00017569039999999997,0.0020130756000000002,4.212,0,0
0.0003894145999999999,0.008677264,-0.0064325219999999995,-0.00045045999999999997,0.0023941858000000003,4.213,0,0
0.000751528,0.007426290000000001,-0.008126584,-0.0009330802,0.0013552844000000001,4.214,0,0
0.00031012860000000005,0.0019960200000000003,-0.0065858340000000005,-0.0016296782000000004,0.0010282342000000001,4.215,0,0
0.00048504340000000013,-0.004221879999999999,-0.0033352160000000002,-0.0010342182,0.0010416512,4.216,0,0
0.0008953334,-0.00847408,0.0007244279999999998,-0.00027874580000000006,-0.00032289079999999994,4.217,0,0
0.0003110008,-0.011716991999999999,0.00429211,-8.101660000000005e-05,-0.0018025748000000002,4.218,0,0
0.0004995154000000001,-0.012012058,0.005548864000000001,0.0003508836,-0.0021153214,4.219,0,0
0.0014303634000000002,-0.008826558,0.0045872202,0.00045345879999999996,-0.0024476532000000002,4.22,0,0
0.0005104194,-0.0060789176,0.0037543422000000004,-0.00019322120000000005,-0.002677694,4.221,0,0
-0.0009764786,-0.0047362635999999994,0.0030400082000000004,-0.00035926960000000005,-0.0016987502000000002,4.222,0,0
-0.001381686,-0.0018365096000000003,0.0020774762,-0.00033549100000000004,-0.0006343336000000002,4.223,0,0
-0.00228729,0.0011691024000000001,0.0020545362,-0.0010210430000000001,-0.0003235028,4.224,0,0
-0.0032814100000000002,0.0035778344000000004,0.002423506,-0.0013053142000000002,0.0006328492000000001,4.225,0,0
-0.002092892,0.005384994000000001,0.0020948806,-0.0011404574000000002,0.0019437412000000002,4.226,0,0
-0.00033940399999999996,0.0046341659999999995,0.0016906428,-0.0011890596000000001,0.0018662492000000002,4.227,0,0
0.0006669220000000001,0.00240045,0.0016883008,-0.0014024494000000002,0.0017536270000000002,4.228,0,0
0.002183196,0.000356758,0.0007467368,-0.0012913992,0.0020237922000000005,4.229,0,0
0.00400613,-0.0005717939999999999,-0.0008144012,-0.0009042292000000001,0.0010536282,4.23,0,0
0.00470457,-0.0001787140000000004,-0.0019195497999999998,-0.0007260280000000001,-0.0007542718000000001,4.231,0,0
0.004702774000000001,0.0019974439999999997,-0.0032421480000000003,-4.069180000000009e-05,-0.0009933008000000002,4.232,0,0
0.0052085560000000005,0.004835894,-0.004080478,0.0011121161999999999,-0.0005339871999999999,4.233,0,0
0.004846284,0.006295284,-0.003043524,0.0015706679999999999,-0.0013304172,4.234,0,0
0.0033735812000000006,0.005589620000000001,-0.0010812600000000006,0.002078896,-0.0016675612000000002,4.235,0,0
0.0021136170000000004,0.00233138,0.0010787499999999998,0.0027525139999999997,-0.0011651772,4.236,0,0
0.000469441,-0.001298468,0.002661608,0.001966554,-0.0012131668,4.237,0,0
-0.0017558110000000001,-0.003227366,0.002466052,0.0007461460000000002,-0.0013829128,4.238,0,0
-0.003090633,-0.004051774,0.0008855039999999998,0.00037495080000000014,-0.00010395880000000008,4.239,0,0
-0.0033860042000000003,-0.0036766060000000007,-0.001088852,-0.0004666232,0.0010947912000000002,4.24,0,0
-0.003299238436,-0.000668594,-0.003377068,-0.0018725372000000001,0.0017240692000000002,4.241,0,0
-0.0024673610360000002,0.0034118300000000002,-0.005595806,-0.0021249872,0.0028040540000000003,4.242,0,0
-0.0011501790360000002,0.005386008,-0.006344720000000001,-0.0017553332,0.0029949200000000003,4.243,0,0
-0.00022845423599999998,0.005359232,-0.0047489080000000005,-0.0017545080000000001,0.0022658266,4.244,0,0
-3.892835999999989e-06,0.0031447180000000003,-0.002132382,-0.0013694564000000002,0.0018787012,4.245,0,0
0.00011980900000000002,-0.0015199540000000002,0.0005922699999999998,-0.0005182673999999999,0.0017900852000000001,4.246,0,0
0.0005944916000000001,-0.005883594000000001,0.004902356,9.457060000000001e-05,0.0005774311999999998,4.247,0,0
0.0010403676000000001,-0.00787126,0.008523507999999999,0.00022910980000000002,-0.0005082828000000001,4.248,0,0
0.0014056548,-0.008319766000000001,0.008273722,0.0004784202000000001,-0.0005122382000000001,4.249,0,0
0.0015404384,-0.007626944,0.006877169999999999,0.0009416706,-0.0010908348000000002,4.25,0,0
0.0009873529999999998,-0.004380476,0.0053845175999999995,0.0013784616,-0.0022704888000000005,4.251,0,0
2.8398999999999916e-05,-0.0006361580000000002,0.002240865599999999,0.0018275755999999999,-0.0023695948000000003,4.252,0,0
-0.001312965,0.001772102,-0.00047676040000000004,0.0021285824,-0.0018893891999999999,4.253,0,0
-0.003894085,0.004394688,-0.0019087884000000004,0.002198998,-0.0025135604,4.254,0,0
-0.006785942,0.00709225,-0.0034457204000000003,0.0017769008000000001,-0.0023312584000000003,4.255,0,0
-0.008814232,0.008581275999999999,-0.00492872,0.0011187761999999998,-0.0010299644,4.256,0,0
-0.01105948,0.00865782,-0.004614348,0.00019590020000000011,-0.0005786766,4.257,0,0
-0.01276376,0.007849546,-0.003772934,-0.0008546878000000001,-0.0002662539999999999,4.258,0,0
-0.009903094000000001,0.0054248379999999995,-0.002641816,-0.0014153518,0.0009369780000000001,4.259,0,0
-0.0017875540000000002,0.0008009240000000006,0.0006822220000000001,-0.0019907386,0.0014941020000000002,4.26,0,0
0.005952006000000001,-0.004435110000000001,0.0033710600000000004,-0.00227852,0.0009633796000000001,4.261,0,0
0.011097746000000002,-0.008078932,0.0038414790000000005,-0.001618,0.0011439398000000001,4.262,0,0
0.014937436000000002,-0.009741270000000002,0.002523729,-0.0006371279999999998,0.0013357436000000001,4.263,0,0
0.0143930172,-0.008989556000000001,-0.0002833629999999996,-0.00017413480000000003,0.0004533496,4.264,0,0
0.008216067200000001,-0.0047001379999999995,-0.0044566250000000005,0.0005156916,-0.00012553640000000007,4.265,0,0
0.0016454651999999997,0.0007312020000000002,-0.008204683,0.0016652116,0.00017325339999999992,4.266,0,0
-0.0018610028,0.0034586500000000006,-0.009453504,0.0018180296000000003,-0.00042884860000000005,4.267,0,0
-0.0031083295999999997,0.0036352280000000003,-0.006366102,0.0013909350000000003,-0.0013776726000000001,4.268,0,0
-0.0025803688000000003,0.003121792000000001,0.00015889799999999977,0.001392556,-0.0011007198,4.269,0,0
-0.0016886560000000002,0.0015217960000000002,0.005488557999999999,0.0013457576000000001,-0.0012424358,4.27,0,0
-0.00019690400000000008,-0.0015505240000000002,0.010067264,0.0007270432000000001,-0.0017430752,4.271,0,0
0.0016254900000000003,-0.0031899660000000002,0.0113615634,0.00032887352000000007,-0.0008776972,4.272,0,0
0.0011653468,-0.0028372980000000003,0.0067777634,0.00058768632,0.00037833880000000004,4.273,0,0
0.0003012806000000001,-0.00393832,0.0017940973999999992,0.00020966412000000004,0.000679372,4.274,0,0
0.0007517358000000002,-0.005574428,-0.00037046460000000024,-0.0005934298800000001,0.0015919520000000002,4.275,0,0
0.0006651794,-0.004722520400000001,-0.0017506505999999999,-0.0008081242800000001,0.002790896,4.276,0,0
-0.00018577979999999999,-0.0021328264,-0.0013799620000000002,-0.0010753766,0.0021708874,4.277,0,0
-0.00012783180000000005,4.302759999999994e-05,0.002158986,-0.0016089428,0.0012959954,4.278,0,0
0.0008089523999999999,0.0033206516,0.003977892,-0.0014671922,0.0012614734,4.279,0,0
0.0015034604,0.0070817096,0.002747182,-0.0009486088000000001,0.000658385,4.28,0,0
0.0016734147999999996,0.008843228,0.001368708,-0.0008152354,-0.0009389590000000001,4.281,0,0
0.0015024219999999998,0.010235788000000001,1.3967999999999945e-05,-0.0002152514,-0.0014231544000000002,4.282,0,0
0.001351798,0.011860818000000002,-0.002595224,0.00037034860000000004,-0.001251921,4.283,0,0
0.0006430444000000001,0.013551158,-0.006352844,0.0004515736,-0.0021063090000000002,4.284,0,0
0.0003961703999999999,0.013633963999999998,-0.008930552000000001,0.0008629201999999999,-0.0022682966,4.285,0,0
0.0012239424,0.008007957999999999,-0.010404178000000002,0.0011690756,-0.0013010466000000004,4.286,0,0
0.001673706,-0.0020354419999999984,-0.011044310000000002,0.0008839264000000001,-0.0007771972,4.287,0,0
0.0014086359999999996,-0.009671682,-0.008348940000000001,0.0007009972,-0.0005678944,4.288,0,0
0.0007845595999999998,-0.0138783,-0.00340994,0.0009195720000000002,0.0010008856,4.289,0,0
-3.984859999999998e-05,-0.015751174,0.0003053120000000003,0.0005791160000000001,0.0020915436,4.29,0,0
-0.0016032966000000001,-0.013048975999999999,0.004683172,-0.000437182,0.0020786536,4.291,0,0
-0.0023851642000000004,-0.006972464,0.009705918000000001,-0.0011644948000000001,0.0031462622000000004,4.292,0,0
-0.0021970902,-0.0028011522000000004,0.009819158000000001,-0.0016870456,0.0038622100000000005,4.293,0,0
-0.0031201422000000003,-0.0026112502000000004,0.00636455,-0.002535132,0.0029023438,4.294,0,0
-0.004489572000000001,-0.0028580942000000003,0.0030208780000000003,-0.002785082,0.0019026396000000004,4.295,0,0
-0.004618397999999999,-0.0017423322000000002,-0.0018595420000000005,-0.0020887494,0.0015125742,4.296,0,0
-0.0038533986000000003,-0.0010542122,-0.006207156,-0.0011160754,-0.0001060818,4.297,0,0
-0.0031925942,-0.00114835786,-0.006241038000000001,-0.0003299833999999999,-0.0017937717999999998,4.298,0,0
-0.0019013766000000002,-0.0004613738600000001,-0.003635356,0.0006287546,-0.0019074838,4.299,0,0
0.00017934340000000002,0.00048174413999999997,0.0008129999999999997,0.0015627746,-0.001944993,4.3,0,0
0.0015553414000000002,0.0016671881399999999,0.00521102,0.0019317239999999997,-0.0023540196,4.301,0,0
0.0016885340000000002,0.00278189614,0.00565266,0.001977014,-0.0020140856,4.302,0,0
0.00163025716,0.0033119820000000006,0.0037624060000000003,0.0015850124,-0.0011545798,4.303,0,0
0.0009328655599999999,0.00393311,0.0020544919999999998,0.0010893804000000002,-0.0014510496,4.304,0,0
-0.00097616044,0.003543926,0.0008333479999999999,0.0005204224,-0.0015269122000000001,4.305,0,0
-0.00300717044,0.00236846,0.001140306,0.0003456444,-0.00042735820000000004,4.306,0,0
-0.0045412184400000005,0.0012430100000000003,0.0025243,5.9277199999999995e-05,-7.337600000000016e-06,4.307,0,0
-0.005527036,-7.452399999999997e-05,0.0034896460000000003,-0.0003651372000000001,0.0002365446,4.308,0,0
-0.0047074166,-0.001217942,0.0039945054,-0.0003113362000000001,0.0016546386000000001,4.309,0,0
-0.0016123826,-0.001057306,0.003044861,-0.0005997122,0.0023016026,4.31,0,0
0.0012237933999999996,-0.00048820999999999994,0.0010100994000000001,-0.0011930962000000001,0.0016126254,4.311,0,0
0.0029142794000000002,-0.00024011060000000002,-0.0001818182,-0.001304828,0.0018807868000000002,4.312,0,0
0.0044407194,1.3163399999999983e-05,-0.0005808076,-0.0008485262000000001,0.0017538960000000002,4.313,0,0
0.00473441,-0.00024646659999999997,-0.001175215,-0.0006941704840000002,0.0003820180000000001,4.314,0,0
0.0033814660000000005,6.393940000000008e-05,-0.0024759186,-0.00039036508400000004,-5.324899999999998e-05,4.315,0,0
0.002711538,0.0008920434000000002,-0.003907145,0.000314172916,0.00034258620000000004,4.316,0,0
0.002959034,0.00153557,-0.0047914334,0.0007544179160000001,-0.0002975278,4.317,0,0
0.002905488,0.0018196719999999998,-0.00521597,0.0011577941160000002,-0.000972503,4.318,0,0
0.003317932,0.0013211919999999995,-0.0047756840000000005,0.0019522854000000001,-0.000649365,4.319,0,0
0.00350716,0.0004980027999999999,-0.0030930000000000003,0.002177098,-0.001229258,4.32,0,0
0.0023880806,0.00038657679999999997,-0.001199888,0.0013106060000000002,-0.002254482,4.321,0,0
0.0013564326,0.0018180208,0.0001252339999999999,0.0006107339999999999,-0.002183092,4.322,0,0
0.0007393004000000001,0.0038199327999999997,0.001108702,0.00015099300000000014,-0.0016520052,4.323,0,0
-0.00014799159999999997,0.0046735386,0.0018870620000000001,-0.001048939,-0.00156975298,4.324,0,0
-0.0008609776000000001,0.003345587799999999,0.002185112,-0.0016371150000000002,-0.0005872369800000001,4.325,0,0
-0.0006387854,0.0006498317999999996,0.0020111268,-0.0009778168000000001,0.0011108670200000001,4.326,0,0
-0.000426981,-0.0025138362000000003,0.0017175306599999998,-0.0009058608,0.0015977870200000002,4.327,0,0
-0.0011474348,-0.0044941482,0.0014277556600000001,-0.0010314978,0.00163463302,4.328,0,0
-0.0015427308,-0.0047087,0.0010119672600000002,-0.0007246942000000001,0.0019800488,4.329,0,0
-0.0015214277400000002,-0.004403988,0.00047800926000000004,-0.0007243062,0.0016080652,4.33,0,0
-0.0015415055,-0.0026378318000000005,-0.00026664154000000003,-0.0011438984,-3.75947999999999e-05,4.331,0,0
-0.0013021603,-0.0004294638000000002,-0.0011965814,-0.0010274210000000002,-0.0006198908,4.332,0,0
-0.0002798229000000001,0.00023934819999999997,-0.0018532884,-0.00019113300000000001,-0.00067669556,4.333,0,0
0.0003451364,0.0005068808,-0.0020649436,0.0006874094,-0.0020184515600000005,4.334,0,0
0.00014232674,0.0031488688000000003,-0.0025243336000000003,0.0014878574000000001,-0.0023651759600000002,4.335,0,0
0.0006130317,0.005682936600000001,-0.0032534516000000003,0.0022463174,-0.0016477339600000003,4.336,0,0
0.0008130120999999999,0.0046141765999999996,-0.0027443876000000002,0.0025605248,-0.0018764939600000002,4.337,0,0
-0.0002463353000000001,0.0025099225999999997,-0.0010201156,0.001888244,-0.0019700848000000003,4.338,0,0
-0.0018867426,1.0907999999999144e-05,0.0010804299999999998,0.0011575868,-0.00047503880000000006,4.339,0,0
-0.003457178,-0.004361528,0.003568732,0.0005825248,0.00036447719999999995,4.34,0,0
-0.005494822000000001,-0.008511756,0.006183626,-0.00039758920000000007,0.00040550319999999994,4.341,0,0
-0.006734696,-0.009227862,0.007299854000000001,-0.0009356820000000002,0.0015608812000000001,4.342,0,0
-0.006934900000000001,-0.008389852,0.006286984,-0.0009978698000000002,0.002557086,4.343,0,0
-0.005336073000000001,-0.006397434,0.0041966276,-0.0013197306000000003,0.0022218528,4.344,0,0
-0.00040711100000000036,-0.002439652,0.0016262956000000005,-0.0015891226000000003,0.0021621268,4.345,0,0
0.003305911,0.0005880019999999998,-0.0005874284,-0.0012264894,0.0029802388000000003,4.346,0,0
0.004448577,0.0033020140000000003,-0.0021519784000000003,-0.0009270184000000001,0.0026642108000000005,4.347,0,0
0.0056784378,0.005855904,-0.0027386604000000005,-0.0011948998000000002,0.0014612408000000002,4.348,0,0
0.005632012600000001,0.0065064424,-0.0028832186,-0.0007659056000000001,0.0008254119999999998,4.349,0,0
0.0037040226000000006,0.0063131324,-0.0034498706,1.119039999999998e-05,-0.00018383199999999993,4.35,0,0
0.0034103086,0.007322146400000002,-0.0042606626,-7.974280000000005e-05,-0.0019179260000000001,4.351,0,0
0.0045669806,0.0070586524000000005,-0.0051731006,-6.826760000000004e-05,-0.002682986,4.352,0,0
0.0053620138,0.0043943164,-0.0058604006,0.0007276484000000001,-0.0028024120000000002,4.353,0,0
0.005847676,0.00126158,-0.0055732282000000005,0.0005911236000000001,-0.003421106,4.354,0,0
0.0044199033999999995,-0.0027802919999999997,-0.003976044200000001,-0.00021561639999999996,-0.003367564,4.355,0,0
0.002184533400000001,-0.005448641000000001,-0.0025619262,-3.18125999999999e-05,-0.002176094,4.356,0,0
0.0005568993999999999,-0.0053563330000000004,-0.0026456381999999997,-0.00028177479999999994,-0.0016601898,4.357,0,0
-0.0006877126,-0.002486889,-0.0027733322,-0.0011008068,-0.0013684324,4.358,0,0
-0.0009183801999999997,0.0031443910000000007,-0.0018982479999999997,-0.0011594588000000002,0.00041119160000000003,4.359,0,0
-0.0009389816000000001,0.007190635000000001,-0.0016654220000000002,-0.0010277648,0.0016169976,4.36,0,0
-0.0015698816000000002,0.005640854000000001,1.9907999999999688e-05,-0.0010943596000000002,0.0013482208,4.361,0,0
-0.0022449376,0.0008448539999999999,0.005342975999999999,-0.0002094095999999999,0.0014640694000000003,4.362,0,0
-0.0029638356000000004,-0.0050487660000000005,0.009497453999999999,0.0010359944000000003,0.0019323860000000001,4.363,0,0
-0.0037372740000000005,-0.010404626,0.009491870000000001,0.0015923170000000002,0.0011159614,4.364,0,0
-0.0035697494000000007,-0.0115631402,0.008270754000000002,0.002466765,4.3591400000000024e-05,4.365,0,0
-0.0026155446000000002,-0.0094657942,0.006412852,0.0032088900000000003,6.73032000000001e-05,4.366,0,0
-0.0019401686000000001,-0.0062157562,0.0030416616000000004,0.0027196360000000005,-0.0007381576,4.367,0,0
-0.0013295306,-0.0022834162,0.0005688075999999999,0.0017539662000000003,-0.0018334376,4.368,0,0
-0.0008568478,0.0005638918,0.00023522759999999984,0.0011334948000000001,-0.0015209556,4.369,0,0
-0.0007414958,0.0013516880000000002,0.0009684931999999999,0.00046277420000000007,-0.0012030026,4.37,0,0
-0.0010305986,0.002238714,0.0012261772,-0.0003074284,-0.0013269494,4.371,0,0
-0.0017959726,0.004419376000000001,0.001082587,-0.0006815064,-0.0004703234,4.372,0,0
-0.0022102646,0.007309536,0.0006322612,-0.0006700116000000001,0.0009681886,4.373,0,0
-0.0019722856,0.008324072,-0.00032933880000000004,-0.0009491962,0.0015548112,4.374,0,0
-0.0014975242000000004,0.006543318,-0.0008550824000000001,-0.0012706216,0.0025051861999999996,4.375,0,0
-0.00028628019999999994,0.004878320000000001,-0.0017684144,-0.0010573144,0.003922014,4.376,0,0
0.0014501018000000001,0.003954564,-0.0032437618000000002,-0.0010750624000000002,0.00398218,4.377,0,0
0.0022568598,0.001825498,-0.004189886,-0.0014229594,0.002991862,4.378,0,0
0.0022063416000000003,-0.0016027060000000002,-0.0038410630000000005,-0.0013156254,0.0019189639999999996,4.379,0,0
0.0020009396,-0.0032819780000000005,-0.002500551,-0.0012103334,0.00031462799999999996,4.38,0,0
0.0011969622,-0.004138342,-0.0010829650000000004,-0.001502338,-0.002076206,4.381,0,0
0.00011253820000000004,-0.006116624,3.5922999999999825e-05,-0.0011431865999999998,-0.0030305640000000003,4.382,0,0
6.98962e-05,-0.0069060960000000005,0.000638617,-0.00027920059999999994,-0.0028607052000000003,4.383,0,0
0.00011194619999999999,-0.004546316367999999,0.00018947999999999985,0.0002041454,-0.0031176892000000004,4.384,0,0
-2.0283799999999984e-05,-0.000648638368,-0.0014412040000000002,0.0005814794,-0.0024659704,4.385,0,0
0.0003814956,0.001307765632,-0.00198058,0.0012906934,-0.0008674164,4.386,0,0
0.0007418836,0.001325969632,-0.0016196446000000001,0.0013776544000000002,2.9727599999999996e-05,4.387,0,0
0.0010973896,0.0016465416320000001,-0.0014238386000000002,0.0006788944000000001,0.000327755,4.388,0,0
0.001275476,0.00219902,-0.0002005586000000002,0.0007552344000000001,0.0013915250000000002,4.389,0,0
0.0012038856,0.0016310300000000001,0.0014043594,0.0008191544,0.0019551582000000003,4.39,0,0
0.0005609564,0.0016643139999999999,0.0021390134,3.214239999999995e-05,0.0017282222000000002,4.391,0,0
-0.00038780360000000014,0.003468604,0.0024727879999999996,-1.7572400000000042e-05,0.0024126962,4.392,0,0
-0.0015301736000000003,0.0038212700000000003,0.002384473,0.00036206720000000006,0.0031056,4.393,0,0
-0.0023750056000000005,0.0023654520000000005,0.000705717,-0.00018188279999999997,0.0027237316000000003,4.394,0,0
-0.0019835612,0.0018006294000000003,-0.0018979449999999998,-0.0006038408000000001,0.0021069588,4.395,0,0
-0.0006051380000000001,0.0015730794000000004,-0.0039773890000000004,-0.0002476195999999999,0.0015401628000000001,4.396,0,0
0.0010426759999999998,0.00040951080000000014,-0.0036047710000000005,-0.0003283376,0.00010163879999999998,4.397,0,0
0.0018120908000000002,0.00012587880000000006,-0.001155732,-0.0007599592,-0.0017791652,4.398,0,0
0.0018617047999999999,0.0009795264,0.000852724,-0.00023803719999999998,-0.0028051428,4.399,0,0
0.0012456138,0.0007534970000000001,0.0029029600000000004,0.0005475027999999999,-0.003389044,4.4,0,0
-0.00016760919999999995,0.00010784519999999994,0.004762234000000001,0.0008749736,-0.003885808,4.401,0,0
-0.0018362412000000002,-0.0003632042,0.004178370000000001,0.00165753,-0.0034877692,4.402,0,0
-0.0029515,-0.0010122682000000003,0.0018274504000000003,0.002512152,-0.0021158472,4.403,0,0
-0.004586748,-0.0016292698000000003,0.0006327268000000001,0.0021699404,-0.0009275112000000001,4.404,0,0
-0.007768433000000002,-0.0031042798,0.0007312908,0.0011407184000000001,-5.954140000000003e-05,4.405,0,0
-0.010076968,-0.004766542,0.0010132388,0.0005708838000000001,0.0011600046,4.406,0,0
-0.009997800000000001,-0.005145208,0.0015425668,-0.0003990958000000001,0.0016981338000000002,4.407,0,0
-0.0089867866,-0.004841245506,0.0022398184,-0.0017097338,0.0019647118000000003,4.408,0,0
-0.005496024600000001,-0.0033696095060000006,0.0021363758,-0.0019958942,0.0030740058,4.409,0,0
0.0019356554000000007,-0.0007767655059999996,0.0012034658000000002,-0.0017362382,0.0036996700000000004,4.41,0,0
0.008318375400000001,0.0013305224940000002,0.0002460418000000001,-0.0019348996,0.0031554006,4.411,0,0
0.011399465400000001,0.0030714024940000006,-0.0019196022000000004,-0.001788652,0.0028470637999999998,4.412,0,0
0.013178602000000001,0.003944862,-0.0043881822,-0.0007721240000000001,0.0023907829999999996,4.413,0,0
0.01229937,0.004081782,-0.00511111,-0.000412688,0.00037262700000000005,4.414,0,0
0.007576238,0.00443742,-0.004348258000000001,-0.00020288200000000004,-0.001285723,4.415,0,0
0.0031504620000000006,0.003488758,-0.002690510000000001,0.000537852,-0.0016911816000000001,4.416,0,0
0.00023544800000000008,0.00033468599999999984,-0.0005608460000000004,0.0006835236,-0.0027887748,4.417,0,0
-0.0016584820000000002,-0.00220747,0.0014585832,0.000353315,-0.004006782,4.418,0,0
-0.001254808,-0.002904378,0.0020813572,0.0005664590000000001,-0.0035704166,4.419,0,0
-0.0006408018000000001,-0.0022325440000000004,0.0008317611999999998,0.000978545,-0.0030244606000000007,4.42,0,0
-0.0012307338000000002,0.000762626,-0.0005961210000000001,0.00045710779999999995,-0.0028904106000000006,4.421,0,0
-0.0014727298000000002,0.004717056000000001,-0.000646073,-2.7255800000000065e-05,-0.0014615966,4.422,0,0
-0.0005725358000000002,0.006144996000000001,-0.0004090682000000002,0.00033159479999999994,0.00026804540000000004,4.423,0,0
-0.0004987078,0.0033511219999999998,-0.00020636380000000005,0.0002827703999999999,0.000877184,4.424,0,0
-0.0005283565999999999,-0.0006796800000000002,0.0007551896,-5.714160000000003e-05,0.0015995780000000004,4.425,0,0
0.0010945754000000001,-0.0035611060000000005,0.0015227778000000002,0.0004111276,0.0026746400000000003,4.426,0,0
0.0018741276000000002,-0.005360711400000001,0.0017979198,0.0005921476,0.0023104876,4.427,0,0
0.0009235156000000002,-0.0050209448000000005,0.0017970698000000004,0.0001152676,0.0012392456000000001,4.428,0,0
0.0012789976000000002,-0.0029950188,0.0014141614000000003,0.00011049679999999994,0.0008837286000000001,4.429,0,0
0.0023511882000000002,-0.0010683788,0.0009434600000000001,-7.15220000000005e-06,0.00023018859999999992,4.43,0,0
0.0021936182,-0.0005452142,-0.000324394,-0.0006733722000000001,-0.0010230374,4.431,0,0
0.0023498758,-0.0011349308000000002,-0.003155436,-0.0005087134200000001,-0.0011425896000000003,4.432,0,0
0.0024599578000000003,-0.0019978294,-0.006024492,0.00015247058000000005,-0.0007625276,4.433,0,0
0.0012867272,-0.0023486914,-0.006878534,-6.205541999999996e-05,-0.0016459426,4.434,0,0
0.00015646699999999998,-0.0023226474000000003,-0.006184308,-2.742041999999996e-05,-0.0019731906,4.435,0,0
-0.00024849400000000004,-0.002626756,-0.00395761,0.0006386275800000001,-0.0012854498,4.436,0,0
-0.00044441580000000004,-0.0022912008,-0.0003160779999999998,0.0003969208000000001,-0.0016776932000000001,4.437,0,0
-0.00039594400000000007,-0.0010128028,0.0027860140000000007,-0.00039829519999999997,-0.0022049692000000003,4.438,0,0
-0.0006215688000000001,0.0009380911999999998,0.004629424000000001,-0.00068336,-0.0013641352000000001,4.439,0,0
-0.0008612966000000001,0.0022122571999999997,0.004621068000000001,-0.00106189,-0.0007076874000000001,4.44,0,0
-0.0010237976,0.0031462892,0.0026419740000000005,-0.0015720160000000003,-0.0007326868,4.441,0,0
-0.0015514256000000001,0.004398778000000001,0.00047127200000000023,-0.0014413082,0.0004966412000000001,4.442,0,0
-0.0018987394000000001,0.0037898202000000002,-0.00044240400000000003,-0.0009711037999999999,0.0021172132,4.443,0,0
-0.00207412,0.0030999082000000002,-0.0015566160000000002,-0.0003668938,0.0024608012000000004,4.444,0,0
-0.002675514,0.0040510042000000005,-0.0021376240000000003,0.00035866420000000003,0.0027379754000000003,4.445,0,0
-0.002937078,0.0037824102,-0.0007499420000000003,0.0010698582,0.0031879720000000007,4.446,0,0
-0.0024546420000000004,0.0017680062000000004,0.0011149380000000002,0.0016195144000000002,0.0025056164,4.447,0,0
-0.002653424,0.0015665260000000004,0.002523978,0.0012139920000000001,0.0009576244000000002,4.448,0,0
-0.002796038,0.0019470060000000003,0.0031781778,0.0007752966,0.00044229420000000005,4.449,0,0
-0.0017803056,0.000353248,0.0027523598000000005,0.0008175806,3.151620000000011e-05,4.45,0,0
-0.0011069553999999999,-0.00034205999999999993,0.00035928580000000026,0.00033610924,-0.0012853278,4.451,0,0
-0.00046287740000000013,-0.0006347060000000001,-0.0024319882000000004,-0.00026692976000000006,-0.0016796801999999999,4.452,0,0
0.0011907706,-0.002534924,-0.0042670042000000005,-0.00035490576,-0.0014841522000000002,4.453,0,0
0.0023757826,-0.0043655560000000005,-0.004297909000000001,-0.0007742263600000001,-0.0016456120000000003,4.454,0,0
0.0027022622000000005,-0.004355344000000001,-0.001909619,-0.0013039361600000001,-0.0013626837999999998,4.455,0,0
0.0027175928,-0.0031305000000000005,0.0013924270000000001,-0.0012311072,-0.0004849872,4.456,0,0
0.0018273528000000002,-0.0019253219999999997,0.0042133610000000005,-0.0015595102,-0.00023930359999999997,4.457,0,0
-0.0002993132000000001,-0.0012919340000000002,0.005744339000000001,-0.0015899602000000001,-1.3741000000000016e-05,4.458,0,0
-0.0020131672000000002,-0.00180868,0.005689408000000002,-0.0007857221999999999,0.0012705190000000001,4.459,0,0
-0.0028619372000000002,-0.002743562,0.0038254592000000007,-0.00027062039999999993,0.0019990348,4.46,0,0
-0.00406,-0.003108996,0.0019905406799999997,-0.00043677319999999996,0.0019056294,4.461,0,0
-0.004772784,-0.002215072,0.00078083848,-0.0001290852,0.0024740898000000003,4.462,0,0
-0.0037830320000000004,-0.0002726660000000001,-0.00012022412000000003,0.0007247668,0.0027508112,4.463,0,0
-0.0022337220000000005,0.0011577532000000001,-0.00032358812000000004,0.0009189148000000001,0.0010803632,4.464,0,0
-0.0013841720000000006,0.0015303180000000001,-0.00036068332,0.0008002008,-0.0004095368,4.465,0,0
0.0001720799999999998,0.0005905260000000003,-0.0007526008,0.001267298,-0.000599043,4.466,0,0
0.002251078,-0.0006671660000000001,-0.0010354548000000002,0.001928056,-0.001464695,4.467,0,0
0.003219154,0.0004213480000000002,-0.0010033286,0.001934698,-0.0017150910000000002,4.468,0,0
0.0034553160000000004,0.0032513008,-0.0017479106,0.001817996,-0.0007138630000000001,4.469,0,0
0.003932826,0.005481518,-0.0031160526,0.001351258,-0.0005369890000000001,4.47,0,0
0.003919692000000001,0.00751317,-0.004803936599999999,0.000461908,-0.000971108,4.471,0,0
0.0031295188000000007,0.007925000400000002,-0.005376652400000001,-0.0001362822,-0.0008352876,4.472,0,0
0.0023311562,0.0039639324,-0.003958876,-0.0004059902,-0.0008915193999999999,4.473,0,0
0.0011969622,-0.0007979275999999997,-0.0023815960000000006,-0.0006916062000000001,-0.0018659794,4.474,0,0
-0.0002944218,-0.0026009716,-0.002268326,-0.0008602222000000001,-0.0019576614,4.475,0,0
-0.0011556018,-0.0027088396000000004,-0.00213193,-0.0005836122,-0.0006882893999999999,4.476,0,0
-0.0010680798,-0.001845346,-0.001781016,-0.000723634,-1.7025800000000104e-05,4.477,0,0
-0.0012009052,0.00043986200000000023,-0.0028349020000000003,-0.001312142,0.0003191660000000001,4.478,0,0
-0.0013106932000000002,0.0020764,-0.002081298,-0.0012310125999999998,0.001558532,4.479,0,0
-0.0015517752,0.0007307399999999997,0.0025399980000000003,-0.0004222646,0.0019249954,4.48,0,0
-0.0022644832,-0.0019067280000000001,0.008097042,0.00013036740000000002,0.0006674414000000001,4.481,0,0
-0.002790406,-0.003632998,0.01035324,0.0006267314000000001,0.00010432800000000012,4.482,0,0
-0.003671176,-0.004253656000000001,0.00935892,0.001243855,0.000235876,4.483,0,0
-0.005073216,-0.0039735352,0.006971840000000001,0.0010947744,-0.000109758,4.484,0,0
-0.004739092,-0.0022674512,0.002558906000000001,0.0007147014000000001,0.0003178086,4.485,0,0
-0.0015524880000000003,-0.0007739612,-0.0009357213999999998,0.0006849834,0.0013116806000000002,4.486,0,0
0.0013042280000000002,-0.0006347552,0.0004401886000000004,0.00048825060000000006,0.001030886,4.487,0,0
0.0032971339999999997,0.00044952079999999997,0.003654156600000001,0.00022504840000000002,0.0003957679999999999,4.488,0,0
0.004314974,0.001199832,0.0053268306000000005,0.000267091,0.000800096,4.489,0,0
0.003976591999999999,-0.00010969799999999998,0.0062229366,0.00011575920000000001,0.00101837,4.49,0,0
0.0039433720000000005,-0.000797472,0.004069464000000001,-0.0002455532,0.000831862,4.491,0,0
0.0036243920000000006,-1.833179999999985e-05,-0.0012789959999999993,-7.21424e-05,0.001806748,4.492,0,0
0.003836504000000001,-0.0005189217999999998,-0.005151328,0.00039002620000000004,0.002484682,4.493,0,0
0.006223994000000001,-0.0014737238,-0.006499438,0.0006558048,0.0016526968000000002,4.494,0,0
0.007817578000000002,-0.0006002638,-0.006608574000000001,0.0008698896,0.0009477798,4.495,0,0
0.005824622400000001,0.00015287620000000015,-0.005219044,0.0008758914,0.0004073338000000001,4.496,0,0
0.0035423010000000003,0.0006223700000000001,-0.003504988,0.00028481339999999995,-0.0011460502,4.497,0,0
0.0012394589999999998,0.0020268020000000003,-0.002838668,-0.00047871260000000005,-0.0026669802000000003,4.498,0,0
-0.001790731,0.0035098460000000005,-0.0029507400000000003,-0.0006531872,-0.0025508164,4.499,0,0
-0.0029138290000000006,0.003865148,-0.0027626660000000004,-0.0007708374,-0.0024937522,4.5,0,0
-0.0039354054000000005,0.002640748,-0.0019079140000000004,-0.0011813568,-0.0027554782,4.501,0,0
-0.005261268000000001,0.001023338,-0.001182788,-0.0007289522,-0.0016472228000000003,4.502,0,0
-0.005323822000000001,-0.0009372200000000002,-0.0003751776000000002,-0.00015425719999999997,-0.00041640879999999995,4.503,0,0
-0.006092314000000001,-0.0037515980000000005,0.0002740927999999999,-0.0005180146,-0.00040542880000000005,4.504,0,0
-0.0066616900000000005,-0.0049919100000000004,0.00010206479999999997,-0.0008406804,-0.00027198224,4.505,0,0
-0.004494396,-0.002419714,-0.0009938652,-0.0006686884,0.0008662517600000002,4.506,0,0
-0.0017223619999999999,0.0006782300000000002,-0.0027086432000000002,-0.0008289150000000002,0.00130877836,4.507,0,0
0.00036311800000000016,0.00292221,-0.004480623600000001,-0.0011728718000000003,0.00121165776,4.508,0,0
0.0027955460000000003,0.005505736,-0.0047514,-0.0004848818,0.0016267011600000002,4.509,0,0
0.00369588468,0.004581778,-0.003510502,0.00026187220000000003,0.0015099634000000002,4.51,0,0
0.00200110868,0.0006242720000000004,-0.00043297400000000047,0.00027350619999999987,0.00046572339999999995,4.511,0,0
0.00032487868,-0.00218389,0.004065522,0.0004844667999999999,-0.0003378045999999999,4.512,0,0
-0.00047632292,-0.003849694,0.006930186,0.0010917706,-0.000715208,4.513,0,0
-0.0006638737199999999,-0.00445157,0.008080458,0.00084297,-0.001685462,4.514,0,0
-0.00030345439999999985,-0.0025169019999999997,0.007255774599999999,0.00021874399999999988,-0.001946484,4.515,0,0
0.0006524156,-0.00038295479999999997,0.004083330599999999,0.0002382499999999999,-0.001198894,4.516,0,0
0.0011932118,-0.0006655608000000001,9.464260000000024e-05,-0.00032327260000000014,-0.0012055006,4.517,0,0
0.0007026174,-0.0011025888,-0.0029988214,-0.0009981786000000002,-0.001065855,4.518,0,0
0.0008452266,-0.0009436808000000002,-0.0048150854,-0.0009348700000000001,-0.0002609348,4.519,0,0
0.0011448766000000002,-0.0006508108000000004,-0.00550554,-0.0006770674000000001,4.3692800000000016e-05,4.52,0,0
0.0006211766000000001,0.000178716,-0.006285678,-0.0004775782,-0.00019362319999999999,4.521,0,0
-0.0003163676,0.001911782,-0.00544131,-0.00025458619999999996,0.00025338940000000005,4.522,0,0
-0.0007340456000000001,0.004150948,-0.0004009679999999998,-0.00012011899999999995,0.0008493978000000001,4.523,0,0
-0.00133675,0.005261906,0.0039321600000000005,-0.0004704774,0.0004450376,4.524,0,0
-0.0019613836000000003,0.005540534000000001,0.005881060000000001,-0.00042000779999999997,0.000622854,4.525,0,0
-0.0013804156,0.005023626,0.007233756000000001,0.000528977,0.0016163660000000002,4.526,0,0
-0.00040804159999999987,0.003078562,0.0060189660000000015,0.0009322240000000002,0.0016187600000000001,4.527,0,0
0.0003608274000000001,0.0009675440000000002,0.0016782740000000009,0.0007518188000000001,0.001086078,4.528,0,0
0.00078661382,-0.00079323,-0.0025977279999999997,0.0009631002000000001,0.0017247360000000002,4.529,0,0
0.0005688360200000001,-0.003085864,-0.003375122,0.0006974596000000001,0.001370816,4.53,0,0
-0.00024823398,-0.005352162000000001,-0.0014484100000000002,-0.0007091304,-0.0007125100000000002,4.531,0,0
-0.00021321597999999998,-0.005523572000000001,0.0003406139999999998,-0.0012498314,-0.0013791300000000001,4.532,0,0
0.00083547902,-0.005752264,0.00200721,-0.0008466859999999999,-0.0012094126000000002,4.533,0,0
0.0015788626,-0.006414136000000001,0.0033207120000000004,-0.001013164,-0.0020792686,4.534,0,0
0.0020574020000000003,-0.004124030000000001,0.0019414020000000005,-0.0007760016000000001,-0.0022895906000000004,4.535,0,0
0.0027054460000000002,0.00015488199999999985,-0.0006839659999999999,-2.2373600000000053e-05,-0.0010695386,4.536,0,0
0.0027400080000000004,0.003927798,-0.001826364,7.495440000000004e-05,-0.0009175906,4.537,0,0
0.0018949872000000004,0.0058060740000000005,-0.0023232916,-0.00013244760000000002,-0.0012356860000000002,4.538,0,0
0.0011046018000000002,0.0066967008,-0.002453676,0.0003310454,-0.00019517599999999992,4.539,0,0
0.00011416979999999996,0.0049711828,-0.0012413479999999998,0.0003824728000000001,0.000719082,4.54,0,0
-0.0014178142,0.0006280707999999999,3.488060000000006e-05,-0.00011570519999999998,0.0007974860000000001,4.541,0,0
-0.0025424621999999997,-0.0022950532,0.00023939260000000004,0.0001835708000000001,0.001575472,4.542,0,0
-0.0026287157999999996,-0.0029030472,-0.0004131438000000001,0.0005946014000000001,0.002240372,4.543,0,0
-0.0024648229999999997,-0.001880332,-0.0018291374000000003,0.00034951800000000005,0.0015704488000000002,4.544,0,0
-0.0019477604000000003,0.0003388239999999997,-0.0032096774000000003,0.00038521820000000007,0.0008223968,4.545,0,0
-0.0006081864000000001,0.0026921680000000004,-0.0038831980000000005,0.0010650882000000001,-1.7353200000000076e-05,4.546,0,0
0.0001658898,0.0018846900000000005,-0.0027484280000000002,0.0011633084,-0.0012863532000000001,4.547,0,0
-0.00043245580000000005,-0.000796106,5.23199999999998e-06,0.0007235708,-0.0024586072000000003,4.548,0,0
-0.0009387892000000001,-0.0030214900000000004,0.002418804,0.0008347542,-0.0024533038000000003,4.549,0,0
-0.0006433612000000001,-0.005287916,0.004071342,0.0010833326,-0.0019170478000000001,4.55,0,0
-0.0007332047999999999,-0.006033114,0.00511407,0.0008699466,-0.0014106968,4.551,0,0
-0.0007437540000000001,-0.004587012600000001,0.004486497000000001,0.0008302544,-0.00024680679999999997,4.552,0,0
5.7765999999999975e-05,-0.0021960466000000007,0.0024996362,0.0010256826,0.0007069594000000001,4.553,0,0
0.0003659384,-0.00017170059999999988,0.0013951074,0.0006271008000000001,0.0008142882,4.554,0,0
-7.552620000000009e-05,0.0020783194000000005,0.0010029628,-0.00025092319999999997,0.0006675676,4.555,0,0
-0.00010806040000000005,0.0034618934,0.0004802670000000001,-0.0008086312,0.0014009286,4.556,0,0
-0.00028823340000000007,0.0031990440000000003,0.00015544559999999997,-0.0012299092,0.0020431606000000002,4.557,0,0
-0.0013955334000000002,0.002577048,-0.00010915219999999999,-0.0019041178000000001,0.0025447184,4.558,0,0
-0.0018985898000000003,0.0012594380000000003,-0.00042372140000000003,-0.001897028,0.0033416674,4.559,0,0
-0.0013013478000000003,-0.00043389000000000025,-0.0007919168,-0.0011908819999999999,0.0033411774,4.56,0,0
-0.000723684,-0.000756574,-0.00081437354,-0.0009238091999999999,0.0023577994,4.561,0,0
0.00022825200000000008,0.001354564,-0.00071047734,-0.0005773749999999999,0.0012122467999999998,4.562,0,0
0.0018264020000000002,0.0034858099999999998,-0.0009261527400000002,9.800940000000003e-05,0.0004808723999999999,4.563,0,0
0.002844198,0.004383558,-0.00134279074,0.00018284600000000004,-0.0009293716,4.564,0,0
0.0026771470000000004,0.0045460544,-0.0021051967400000002,0.000116067,-0.0019087670000000002,4.565,0,0
0.0019782922000000005,0.0028656844,-0.0025023542,0.0005136342000000001,-0.0020548730000000005,4.566,0,0
0.0012761442000000002,-0.0005751355999999998,-0.0020435920000000003,0.000791496,-0.0030691784000000007,4.567,0,0
0.0006208968000000001,-0.0034596416000000005,-0.000967278,0.0009446876,-0.004094616000000001,4.568,0,0
0.00023388100000000005,-0.0036712296000000005,0.001015852,0.0013090030000000002,-0.0038808180000000003,4.569,0,0
-0.00010663999999999998,-0.0028891539999999997,0.0032131300000000002,0.0012259562000000001,-0.0034454640000000005,4.57,0,0
-0.0011659032,-0.003095222,0.004141348,0.0005503401999999999,-0.0034877420000000003,4.571,0,0
-0.0020047452,-0.00366239,0.003229996,8.326199999999893e-06,-0.0024299572,4.572,0,0
-0.0014646198000000002,-0.0029734460000000002,0.001322274,-7.949320000000005e-05,-0.00044232119999999993,4.573,0,0
-0.00039562400000000024,-0.001405898,-0.0005900419999999999,-7.77792e-05,0.0007748348,4.574,0,0
0.000997898,0.00044514599999999956,-0.002019858,-0.0002555844000000001,0.0018830887999999998,4.575,0,0
0.003133698,0.003244639999999999,-0.002340736,2.0031599999999973e-05,0.0031245228,4.576,0,0
0.004312798,0.006392332,-0.0017453072,0.000360147,0.0032284962,4.577,0,0
0.003134572,0.00749457,-0.0007554574000000001,-0.00018930360000000003,0.0024313318,4.578,0,0
0.001679882,0.005209312,0.0003391846,-0.0005701344000000001,0.0018977538,4.579,0,0
0.00039704279999999996,0.0011565199999999996,0.0007874726,-0.00023180540000000002,0.0014581657999999998,4.58,0,0
-0.0009786992,-0.0027481999999999997,0.00021838859999999996,-0.0004263614,0.0008009476,4.581,0,0
-0.0012483643999999998,-0.004803024,-0.0007613282,-0.0007695868000000001,0.0012961074,4.582,0,0
-0.0006292569999999999,-0.005051328000000001,-0.0018930400000000001,-0.00027286659999999996,0.0018838618000000002,4.583,0,0
-1.1250999999999991e-05,-0.003907264000000001,-0.0029214780000000004,-0.0002821134,0.0013048498000000001,4.584,0,0
0.00013371580000000002,-0.0011902220000000003,-0.0033148504000000004,-0.000379991,0.0009518422,4.585,0,0
0.0007523758000000001,0.002041684,-0.0026165504,0.0005823430000000001,0.0008248442,4.586,0,0
0.0006989066600000001,0.0025066039999999995,-0.0010422004000000002,0.0010364290000000002,-0.0004001338,4.587,0,0
-0.0009041967400000001,-0.00014140400000000036,-1.4934400000000058e-05,0.0009124128000000001,-0.0017011458,4.588,0,0
-0.0023615207400000003,-0.0024812240000000006,0.00012046959999999983,0.0008874846000000002,-0.0010805518,4.589,0,0
-0.00322488234,-0.0036691194000000003,-2.8900000000000215e-06,0.00027231019999999996,-0.00047014619999999986,4.59,0,0
-0.004840086340000001,-0.0035022094,-0.0003828476000000001,-0.0007219698000000001,-0.0006874199999999999,4.591,0,0
-0.006089218,-0.0014575253999999996,-0.0008341008000000002,-0.0009348565200000001,0.0002295060000000001,4.592,0,0
-0.004871974000000001,0.0018098945999999998,-0.0002431467999999999,-0.0007538957200000001,0.0014368480000000001,4.593,0,0
-0.003599152,0.004692828600000001,0.0011544291999999999,-0.00065537852,0.0011775496000000002,4.594,0,0
-0.0028396658,0.004830372800000001,0.0021412951999999997,-0.00019406252000000004,0.0005711626,4.595,0,0
-0.00015287380000000026,0.0024586028000000005,0.0021444648,7.632228e-05,0.0005757986000000001,4.596,0,0
0.0031884742,0.0009202056000000005,0.0018512493999999998,-0.000198215,8.26906e-05,4.597,0,0
0.0041190302,0.0006514616000000001,0.0018199753999999999,-0.0006872958,-0.0009296854,4.598,0,0
0.0042196742,0.0012472976,0.0014604794,-0.0006045696000000001,-0.0011609724,4.599,0,0
0.004869686,0.0031663088000000003,0.0015348234,-0.0003542896000000001,-0.0012581074000000002,4.6,0,0
0.0036328391999999998,0.0035063268000000004,0.0022594634000000003,-0.00036188820000000006,-0.0019255874,4.601,0,0
0.0012236832000000002,0.00045245200000000076,0.0028290400000000005,7.765700000000002e-05,-0.0017248968000000001,4.602,0,0
-0.0003666047999999999,-0.003602904,0.0030415160000000006,0.000600497,-0.0011327580000000002,4.603,0,0
-0.0006109154,-0.007295546,0.00265988,0.0006456236,-0.0015544366000000002,4.604,0,0
0.00033132059999999995,-0.009686150000000001,0.0013095760000000002,0.0006496676,-0.0013502826,4.605,0,0
0.0009388853999999999,-0.008540593800000001,-0.0005966500000000001,0.0012821794,0.00046597539999999996,4.606,0,0
0.0012480945380000002,-0.0039668158000000005,-0.0025592040000000003,0.0013306942,0.0010926528,4.607,0,0
0.0016923525379999996,0.0018388241999999998,-0.0038029180000000006,0.0006339122,0.001129108,4.608,0,0
0.0005510111379999998,0.0062800242,-0.003932402200000001,0.0006091173999999999,0.002566544,4.609,0,0
-0.0016952108620000002,0.0065540684,-0.0034228915999999997,0.00014414940000000007,0.0028881519999999997,4.61,0,0
-0.0025614088620000003,0.0031394682000000004,-0.0016356316,-0.0010500686,0.0014417379999999997,4.611,0,0
-0.00218197,-0.0001865717999999998,0.0006990224,-0.0013282124000000002,0.0004915940000000001,4.612,0,0
-0.0007764580000000003,-0.0028370574,0.0016303922,-0.0009838876,-0.00013437399999999993,4.613,0,0
0.00105952,-0.00534909216,0.0016066454,-0.0009651012000000001,-0.0015989,4.614,0,0
0.002084958,-0.004632954359999999,0.0020031468,-0.0006166802,-0.002329924,4.615,0,0
0.003007896,-0.00025725835999999987,0.0014443387400000002,9.615479999999999e-05,-0.0018215104,4.616,0,0
0.0031757560000000005,0.00216455164,-6.808325999999997e-05,7.607579999999998e-05,-0.0018278704000000002,4.617,0,0
0.002047158,0.0018783432399999997,-0.00014083506000000005,0.00010613619999999999,-0.0018972764000000002,4.618,0,0
0.000870266,0.0015730319999999994,0.00044575594000000003,0.0004943024,-0.0014323862000000002,4.619,0,0
8.733600000000014e-05,0.0008244269999999996,-0.00025647005999999994,0.00030991479999999995,-0.0015548022000000002,4.62,0,0
-0.000877055,-5.281099999999999e-05,-0.000993856,-0.00012609220000000003,-0.0019539218000000002,4.621,0,0
-0.0015642753999999999,-0.0001328770000000001,-0.0002527071999999999,-0.00027062540000000006,-0.0010919218,4.622,0,0
-0.0018133353999999998,0.001167497,0.00026938880000000007,-0.00039800860000000003,0.00045406419999999997,4.623,0,0
-0.0027001954,0.0028401470000000003,-0.00014594920000000005,-0.0011441486000000002,0.0007701128,4.624,0,0
-0.0031434154000000002,0.004146955999999999,-0.0007904311999999999,-0.0014589660000000003,0.0014056052000000004,4.625,0,0
-0.0023036564000000004,0.0040571088,-0.0012452172000000001,-0.0008120500000000001,0.0028763152,4.626,0,0
-0.0014379800000000002,0.0026303728,-0.0017875120000000002,-0.0003415600000000001,0.0025479266,4.627,0,0
-0.0008150224000000003,0.0010579048,-0.0022506938,-0.000474656,0.0013068507999999999,4.628,0,0
0.0007585864000000001,-0.0006824372000000002,-0.0011590417999999998,-0.00036997500000000003,0.001611818,4.629,0,0
0.0021562764000000005,-0.0015215892,0.0004567401999999998,-0.00014138779999999995,0.001714742,4.63,0,0
0.0015797666000000002,-0.0008481220000000001,0.0004531381999999999,-0.000605834,5.144399999999999e-05,4.631,0,0
0.0007660576000000001,0.001543638,-0.00043215979999999994,-0.0007342011999999999,-0.00041240940000000006,4.632,0,0
0.001086034,0.0030787080000000003,-0.00017904600000000014,-0.00019899179999999998,0.00015100839999999987,4.633,0,0
0.0011327712,0.002012776,-0.0007684260000000002,5.0246800000000035e-05,-0.0005851156,4.634,0,0
0.0005208088,0.0007687420000000001,-0.0031284800000000003,0.0003353068,-0.0008739421999999999,4.635,0,0
0.0008621586,-0.00011566559999999973,-0.004121844,0.001012115,0.0001927818,4.636,0,0
0.0015168156,-0.001755042,-0.004871418000000001,0.000924936,0.000426912,4.637,0,0
0.0008364335999999999,-0.0026219040000000004,-0.005344545800000001,0.0005057846,-0.00011447160000000006,4.638,0,0
-2.9588400000000125e-05,-0.0010157993999999999,-0.0018177238000000005,0.0003647266,0.0002512222,4.639,0,0
-0.000388586,-0.0006473853999999999,0.0036172021999999987,2.1623399999999994e-05,0.00011438639999999999,4.64,0,0
-0.001357486,-0.0022969858,0.0073248302,-0.0006068366,-0.0010525476,4.641,0,0
-0.002174116,-0.0024758194,0.010335398199999998,-0.0008803364,-0.0008651222000000001,4.642,0,0
-0.001714622,-0.0021681634,0.010529736199999999,-0.00036525840000000006,-0.0001547266000000001,4.643,0,0
-0.0010130980000000003,-0.003154612,0.0059976581999999995,0.00013657199999999995,-0.0005934984000000001,4.644,0,0
-0.0008791020000000001,-0.003301308,0.002107080200000001,0.000908576,-0.0004438570000000001,4.645,0,0
-0.0004422234,-0.001311096,0.0005097220000000002,0.001819434,0.000500123,4.646,0,0
-0.000241231,0.00012921600000000014,-0.00087272,0.002530732,2.1575399999999943e-05,4.647,0,0
-0.001655017,0.0012309980000000003,-0.0019217002000000002,0.0026072060000000004,-0.0010615986000000002,4.648,0,0
-0.002618861,0.002928598,-0.0026098422000000003,0.0022062586,-0.0006894614000000001,4.649,0,0
-0.0025429310000000004,0.003974134,-0.0033949222,0.0014903784,-0.0005970359600000001,4.65,0,0
-0.0032736116000000003,0.0037962194,-0.003513252,0.0004714484,-0.0013893959600000002,4.651,0,0
-0.004200386,0.0024712474000000008,-0.001637732,0.0002383603999999999,-0.0013454999600000003,4.652,0,0
-0.003693298,0.0013130854000000002,0.000679212,1.8119199999999994e-05,-0.00129088596,4.653,0,0
-0.001922554,0.0003314606,0.0023114060000000002,-0.00031370540000000003,-0.00214492116,4.654,0,0
-0.0005024239999999998,-0.0013826454000000002,0.0033582004,-0.0005245792,-0.0019668426,4.655,0,0
0.0011202800000000002,-0.0031181148000000002,0.0026116824000000003,-0.0005130111999999999,-0.0005069826,4.656,0,0
0.003702782,-0.0038417168,-7.360160000000017e-05,-0.0006689507999999999,-9.762659999999992e-05,4.657,0,0
0.005298374000000001,-0.0045946068000000005,-0.0025106176,-0.0011368796,0.0005786414000000001,4.658,0,0
0.004953820000000001,-0.004907056000000001,-0.0035224016000000003,-0.0007005296,0.0025007653999999995,4.659,0,0
0.004471858,-0.0034310456000000004,-0.0033803412,-7.46996e-05,0.002547692,4.66,0,0
0.0037616900000000007,-0.0011401396000000003,-0.0020439572000000004,-0.00021003960000000001,0.001071692,4.661,0,0
0.0019790146,0.0004456064,-0.0005185331999999999,-0.0002115772,0.0007664259999999997,4.662,0,0
0.0011998318,0.0007633624000000002,0.0003085808000000001,0.0005236928,0.0005396619999999999,4.663,0,0
0.0010311078000000001,0.0012914148000000001,0.00022614080000000006,0.0003247172,-0.0009588480000000001,4.664,0,0
0.0003006416,0.0025918404,-0.00054885,1.9173600000000016e-05,-0.0018114920000000003,4.665,0,0
0.0005570676,0.0038916064000000003,-0.002311328,0.0007846736,-0.0011798008000000002,4.666,0,0
0.0015518770000000001,0.0048705884000000005,-0.004613234000000001,0.0008857992,-0.0008397206000000001,4.667,0,0
0.0017898138000000002,0.0060441224,-0.005549706,0.0004499734,-0.0006105326,4.668,0,0
0.0013714206,0.006155362,-0.005387388,0.000290551,0.0003681234,4.669,0,0
0.0009619208000000001,0.0035667620000000002,-0.0041931239999999995,0.00015611100000000012,0.0012963214000000002,4.67,0,0
-6.75920000000013e-06,0.0002765819999999996,-0.0017351520000000002,-0.000425094,0.0014341422,4.671,0,0
-0.0017083512000000002,-0.0010445480000000002,0.00022547960000000015,-0.0008872664,0.0015048564,4.672,0,0
-0.0032133392000000005,-0.0009609639999999997,0.0013322772000000003,-0.0007651356,0.0020211584000000005,4.673,0,0
-0.004388868000000001,-0.0012309944,0.0031407132,-0.0007694576000000001,0.0021672964,4.674,0,0
-0.0039376744000000005,-0.00028162440000000015,0.003922777200000001,-0.000932794,0.0026320784,4.675,0,0
-0.0013324304,0.0006478476,0.0033102072,-0.0007243823999999999,0.0036637624000000002,4.676,0,0
0.0006940796,-0.0012487544,0.0045160476,-0.0006015766,0.003856512,4.677,0,0
0.0010189036,-0.0027984144,0.005453088000000001,-0.0010539956,0.0030578898,4.678,0,0
0.0012112036,-0.001754308,0.0040056762,-0.0011252156000000001,0.0025615117999999997,4.679,0,0
0.000779198,-0.0005497359999999997,0.0028556982000000003,-0.0008132428000000001,0.0020015798,4.68,0,0
-0.001938586,-0.0006992840000000002,0.0029810162,-0.0008697094000000001,0.0007341054000000001,4.681,0,0
-0.003661566,-0.000788194,0.0029103182000000003,-0.0003326712000000001,0.0005759934,4.682,0,0
-0.001448618,-0.0008675359999999999,0.0022110942,0.0005153968,0.0007547384,4.683,0,0
0.0005485800000000002,-0.0021251100000000004,0.0011058600000000002,0.0006718999999999999,-0.00023137159999999995,4.684,0,0
0.0002836100000000001,-0.0036118059999999995,-4.981999999999968e-05,0.0007720641999999999,-0.0009944336,4.685,0,0
0.0012720920000000003,-0.003152089,-0.0011085679999999999,0.0008828821999999998,-0.0012036092,4.686,0,0
0.0021382600000000003,-0.001036941,-0.0022416746,0.00037675079999999997,-0.0019948472,4.687,0,0
0.0003866540000000002,-0.000959455,-0.0024801326,-0.00045248120000000003,-0.0028471240000000004,4.688,0,0
0.0004686340000000001,-0.002291159,-0.001702187,-0.0009593164000000001,-0.002466326,4.689,0,0
0.002935178,-0.002388401,-0.001673595,-0.0016323314000000002,-0.00217433,4.69,0,0
0.0028028616000000004,-0.0020870419999999995,-0.002514161,-0.0025342814000000003,-0.0023383200000000005,4.691,0,0
0.0013580276,-0.0015403039999999997,-0.0034221784000000002,-0.0030429380000000002,-0.001339198,4.692,0,0
0.0009847976,2.8154000000000286e-05,-0.0038234944000000003,-0.0025506514000000007,-8.297000000000003e-05,4.693,0,0
-0.0009582104000000001,0.0022644680000000004,-0.003120578,-0.0015351573999999998,0.00020521400000000003,4.694,0,0
-0.004297026400000001,0.0034555539999999996,-0.0018378480000000002,-0.0006800174000000001,0.000460392562,4.695,0,0
-0.005677812000000001,0.0031303382,6.603400000000019e-05,0.00030821339999999997,0.0007655757620000001,4.696,0,0
-0.004931846,0.0020425978,0.001965464,0.0011586314000000002,-2.867223800000001e-05,4.697,0,0
-0.0038571619999999995,0.0014719838,0.0027586900000000003,0.0016961048000000002,-0.0010036202380000001,4.698,0,0
-0.0015371380000000004,0.0020464058,0.0024109256,0.0021570608000000004,-0.0009355946980000001,4.699,0,0
0.0021737279999999998,0.0023528878,0.0020373035,0.0026461108000000004,-0.00086193906,4.7,0,0
0.004666046,0.0018526496000000003,0.0019261095000000002,0.0028311720000000003,-0.00125877626,4.701,0,0
0.005356696,0.001633242,0.0016001315,0.0029029280000000004,-0.00126318626,4.702,0,0
0.005253786000000001,0.0014780560000000002,0.0015358875,0.0026166320000000002,-0.00094503866,4.703,0,0
0.0039493202,0.00033407140000000005,0.0015729357,0.00178089362,-0.0012688302,4.704,0,0
0.0013336602,-0.000617511,0.0015331583999999999,0.00102590562,-0.0015123442000000002,4.705,0,0
-0.0006429678000000001,-0.000964639,0.00104373134,0.0007198360199999999,-0.0007139402,4.706,0,0
-0.0013889938,-0.001459111,0.00043947754000000003,0.00033375861999999993,-0.00014100619999999998,4.707,0,0
-0.0015806759999999998,-0.0015264649999999999,5.841953999999997e-05,-0.00021795298000000003,0.0002515242000000001,4.708,0,0
-0.0012841782,-0.0012660303999999997,-0.00047773626,0.00025503539999999995,0.0013774642000000002,4.709,0,0
-0.0009022128000000001,-0.0005964339999999999,-0.00101515686,0.0007631174,0.0015940402,4.71,0,0
-0.0010796808,0.0009301320000000001,-0.0017130537999999998,0.00047405699999999995,0.00046722020000000003,4.711,0,0
-0.0016972108,0.0013006760000000002,-0.002665374,0.0005090095999999999,-0.00021106980000000004,4.712,0,0
-0.0020257686,0.00019245800000000028,-0.003375134,0.0007263332,-0.0008437058,4.713,0,0
-0.0019389586,-0.0008981079999999999,-0.00335558,1.3463200000000058e-05,-0.0025213598,4.714,0,0
-0.001356686,-0.0021758619999999998,-0.0027191674,-0.0008410328000000001,-0.0032852420000000003,4.715,0,0
0.00012366800000000017,-0.0028428802,-0.0016263153999999998,-0.0008857468,-0.002160402,4.716,0,0
0.001961394,-0.0021815380000000002,-0.00017658140000000012,-0.001225222,-0.0017628434,4.717,0,0
0.002632764,-0.0007353479999999998,0.0010295346000000001,-0.001709914,-0.0020722974000000004,4.718,0,0
0.0022361788000000004,0.0008561660000000001,0.0017056746000000001,-0.0016001512,-0.0012783456,4.719,0,0
0.0016257009999999998,0.0017317378000000002,0.0021484060000000003,-0.0014979812,-0.0006418966000000001,4.72,0,0
0.0003755710000000001,0.0017088280000000003,0.001965576,-0.0016158732000000002,-0.0009767808,4.721,0,0
-0.0012094430000000001,0.0017152230000000003,0.001509294,-0.0013525498,-0.0005301274,4.722,0,0
-0.0025230590000000002,0.002590505,0.00131937,-0.0006376977999999998,0.0008850425999999999,4.723,0,0
-0.0035164478000000005,0.003774689,0.0008031034000000001,-0.0002803986,0.0016093428,4.724,0,0
-0.002841782,0.0036310874,-0.00011846059999999996,0.0001472358000000001,0.0021554478000000003,4.725,0,0
-0.0006077960000000003,0.0034541674,-0.0007028546,0.0008741878000000001,0.003055788,4.726,0,0
0.000835062,0.0042016122000000005,-0.00046497659999999996,0.0009740766000000001,0.003333474,4.727,0,0
0.0014379600000000003,0.0037414802000000002,-2.7470599999999913e-05,0.00062359,0.002756045,4.728,0,0
0.0024462698000000003,0.0019845962,0.00028086400000000014,0.00027384440000000006,0.0027445789999999996,4.729,0,0
0.0028215538000000004,0.000950326,0.00010315800000000011,-5.283599999999998e-05,0.003058457,4.73,0,0
0.0016454178000000004,-0.00042867999999999964,-7.842999999999999e-05,-0.000522657,0.0020504278000000003,4.731,0,0
0.0008412718000000003,-0.0034246320000000004,-0.0003937903999999999,-0.0007507831999999999,0.0012107354,4.732,0,0
0.0012198752,-0.005745386000000001,-0.0009394084,-0.0008224650000000001,0.0009717806,4.733,0,0
0.0009959138000000002,-0.007300672,-9.542240000000009e-05,-0.0009270614,-0.00042446739999999996,4.734,0,0
-0.0003115702,-0.00800813,0.0013812516000000002,-0.0004118114000000001,-0.0018636194,4.735,0,0
-0.0010545582,-0.007256508,0.0029979476,0.0003153096,-0.0020995522000000003,4.736,0,0
-0.0014345242,-0.005831308,0.004870016,0.0009040756,-0.0027923838,4.737,0,0
-0.0021931536,-0.0044652814,0.005017384,0.0016651400000000003,-0.0030151440000000004,4.738,0,0
-0.0020736820000000003,-0.0025558294,0.0029513479999999995,0.002253092,-0.001363938,4.739,0,0
-0.001116306,-0.0005666114,0.0006899539999999996,0.0017931182,8.310599999999978e-05,4.74,0,0
-0.0005992648,0.0006142826,-0.002042644,0.0007688942000000001,0.0009264339999999999,4.741,0,0
-0.0005241608,0.0018494006,-0.005078058,5.315420000000004e-05,0.0025544,4.742,0,0
-0.00011651279999999999,0.0018603550000000002,-0.005858816,-0.0009181818,0.0033480260000000005,4.743,0,0
-7.151739999999996e-05,0.0013779670000000001,-0.0049351884,-0.0017311357999999998,0.0022346399999999995,4.744,0,0
-0.0006237193999999999,0.0019585970000000003,-0.0040227604,-0.0017301436000000002,0.0013661790000000001,4.745,0,0
-0.0006846789999999999,0.002969353,-0.0035688284,-0.0015392676,0.0007697966,4.746,0,0
-0.0001412726,0.003786129,-0.0034064184,-0.0017017695999999999,-0.0007914154,4.747,0,0
0.000249416,0.005134652,-0.0034651424,-0.0017700396000000001,-0.0024076854000000003,4.748,0,0
0.0004456206,0.0066470340000000004,-0.002677464,-0.0014905868,-0.0027474034000000004,4.749,0,0
0.0008206746,0.005856630200000001,-0.0006918639999999999,-0.0012383708000000002,-0.0033512964000000003,4.75,0,0
0.001032487,0.0036746922000000003,-0.00012026599999999984,-0.0007463528000000002,-0.004350742,4.751,0,0
0.0013293126000000002,0.0020222422000000006,-0.0009224939999999997,4.452520000000008e-05,-0.0036401842,4.752,0,0
0.0018616420000000002,0.0007581288000000002,-0.0011150919999999998,0.0009432992,-0.0018709062000000004,4.753,0,0
0.0018621160000000002,-0.0007788555999999999,-0.0026662039999999997,0.0014722704,-0.0008395642,4.754,0,0
0.001191024,-0.0027776338,-0.003751542,0.0012296198000000002,0.00026210580000000005,4.755,0,0
0.00028945800000000014,-0.0044090278,0.00035295200000000056,0.0009406086,0.0024414938,4.756,0,0
-0.000629508,-0.0051119858,0.005271418,0.0007482710000000001,0.003562486,4.757,0,0
-0.00138618,-0.0057250244,0.007570375999999999,2.8025000000000044e-05,0.003325934,4.758,0,0
-0.001346318,-0.006143128,0.009560148,-0.00010518299999999999,0.0034500380000000003,4.759,0,0
-0.0007607420000000001,-0.0038496140000000008,0.009770068,0.0005543412,0.0036097480000000003,4.76,0,0
-0.00019168499999999992,-0.0001528059999999997,0.006561282,0.0009340464,0.002560964,4.761,0,0
0.0008077430000000001,0.001595862,0.0034087424000000003,0.0014603060000000002,0.0016809315999999999,4.762,0,0
0.0015329030000000002,0.002366142,0.0018502044000000002,0.0018790048000000001,0.0015649435999999998,4.763,0,0
0.0013731192,0.0032490240000000005,0.0002524564000000001,0.0017060952,0.0004900516000000001,4.764,0,0
0.0009233430000000001,0.00313004,-0.0017307096000000002,0.0009868948000000002,-0.0006349504,4.765,0,0
0.000964102,0.001544212,-0.0040508236000000005,0.0004369365999999999,-0.0010163964,4.766,0,0
0.000949904,-3.3196000000000093e-05,-0.004848926000000001,0.00014730259999999997,-0.0018911980000000002,4.767,0,0
0.0002591596,-0.001472628,-0.004361144000000001,-0.00014477380000000006,-0.00288974,4.768,0,0
-0.0004195166,-0.003267506,-0.002958572000000001,-0.00013959440000000002,-0.0027655920000000003,4.769,0,0
-0.0006412044,-0.004044912,-0.00023778200000000018,-0.000188712,-0.0024553160000000004,4.77,0,0
0.00013942360000000005,-0.0029306740000000003,0.0017655906,-0.0004104278,-0.002389188,4.771,0,0
0.0009037076000000001,0.0003526600000000003,0.0015186445999999998,-0.0007126804000000001,-0.001364966,4.772,0,0
0.0010532436000000001,0.004017944000000001,-0.0009240234000000001,-0.0007106924000000001,0.000368604,4.773,0,0
0.0009514416000000001,0.005872574000000001,-0.0028585354,-0.0011170702,0.0012468320000000002,4.774,0,0
-0.0001451324000000002,0.0061915500000000005,-0.0027759533999999995,-0.0016498241999999999,0.0018838560000000002,4.775,0,0
-0.0024977784,0.004390868000000001,-0.0009597739999999992,-0.0016149882000000002,0.0032108200000000005,4.776,0,0
-0.0053105584,0.0007595640000000001,0.0013891400000000003,-0.0016873438,0.003335766,4.777,0,0
-0.006436090000000001,-0.002455952,0.0035217152000000004,-0.0015608311899999998,0.0023695758,4.778,0,0
-0.004908262,-0.003937136,0.0036079192000000007,-0.00082097319,0.0023527138,4.779,0,0
-0.002532274,-0.003930874,0.0012956032000000003,0.00036323481,0.0023956078000000004,4.78,0,0
-0.000794223,-0.0029776117999999996,0.00017725120000000008,0.0009899948100000001,0.0012746772000000002,4.781,0,0
0.0021974290000000003,-0.0013690278,5.712120000000032e-05,0.0012516150100000002,0.0008790605,4.782,0,0
0.0058910690000000005,-0.00021237580000000005,0.0004757860000000004,0.0016458360000000001,0.0011431227,4.783,0,0
0.006378885000000001,1.3126199999999983e-05,0.0011783,0.0016179080000000001,-4.70112999999999e-05,4.784,0,0
0.0056571320000000005,7.492060000000001e-05,0.0003715940000000007,0.001396178,-0.0013093633000000001,4.785,0,0
0.005625198400000001,0.0013283444,-0.00168163,0.001454816,-0.0017785567,4.786,0,0
0.003932542400000001,0.0024948924000000004,-0.0040619539999999996,0.0014321624,-0.003210048,4.787,0,0
0.0006357584,0.0020326498000000004,-0.005604436,0.0008191803999999999,-0.004921536,4.788,0,0
-0.0021065316000000002,0.0013630578000000005,-0.003468542,0.00030228899999999996,-0.005201662,4.789,0,0
-0.0040870706,0.0009958654,0.0006274520000000008,5.851499999999994e-05,-0.0049847319999999995,4.79,0,0
-0.006181914,0.00031034139999999987,0.0025896240000000004,-0.000894611,-0.004388416,4.791,0,0
-0.007843024,-0.0007530506000000001,0.003908386020000001,-0.0014977714,-0.002231788,4.792,0,0
-0.007809740000000001,-0.0005192720000000003,0.004403078020000001,-0.0010421054,0.00020059799999999997,4.793,0,0
-0.006122992000000001,0.001088634,0.0021556940200000005,-0.0009990437999999999,0.001565988,4.794,0,0
-0.00481259,0.002120916,-0.00026745618,-0.0009979237999999998,0.0029066939999999996,4.795,0,0
-0.001752106,0.001998648,-0.00115059618,-0.0002244432,0.00406399,4.796,0,0
0.0034127340000000006,0.0009199000000000002,-0.0016812682000000002,-0.0001024652,0.0034717646,4.797,0,0
0.0056552680000000015,-0.00044185800000000005,-0.0011344814000000003,-0.0007966252000000001,0.0019798105999999996,4.798,0,0
0.005883348000000001,-0.0019392120000000003,-0.00041695940000000014,-0.0006850996,0.0011674926,4.799,0,0
0.006676228000000001,-0.004193384,0.0005641308,-0.0006755996,0.00017051859999999986,4.8,0,0
0.0051407300000000005,-0.006256488,0.0026819308,-0.0008163542000000001,-0.0012151854,4.801,0,0
0.001528594,-0.0060414119999999995,0.0029279088,-0.00012094820000000002,-0.0014588438,4.802,0,0
0.0004644440000000001,-0.0036073139999999995,0.0005797959999999996,0.00039928520000000005,-0.0012473398,4.803,0,0
0.00046615999999999997,-4.157399999999995e-05,-0.0029330920000000004,0.00018003339999999996,-0.0017030478,4.804,0,0
-0.000266304,0.004697122,-0.0067806720000000015,1.7802399999999977e-05,-0.0016842778,4.805,0,0
-2.5084000000000006e-05,0.009011556,-0.009206194000000001,0.0003828824,-0.00047242379999999987,4.806,0,0
-0.0003133499999999999,0.00928089416,-0.007688312000000001,0.0002397004,0.00044983000000000024,4.807,0,0
-0.0021370160000000003,0.005852502160000002,-0.0032419920000000013,0.00016490899999999998,0.001051742,4.808,0,0
-0.003313958,0.0015005461599999995,0.00160472,0.001077117,0.0032178360000000004,4.809,0,0
-0.002890032,-0.0024353338400000006,0.00485901,0.001900218,0.0045931520000000005,4.81,0,0
-0.002169056,-0.004433451840000001,0.005064724000000001,0.001549318,0.0033612280000000004,4.811,0,0
-0.000781382,-0.0038069820000000004,0.0028036000000000007,0.0007109119999999999,0.002261544,4.812,0,0
0.0009044240000000002,-0.0017866514,-4.458999999999995e-05,0.0001099199999999999,0.0015237260000000002,4.813,0,0
0.0016213116000000003,0.00016954566000000016,-0.0013701240000000003,-0.00132624,-0.001155614,4.814,0,0
0.0015429548000000003,0.0013593496600000005,-0.00084333,-0.003312682,-0.004377838,4.815,0,0
0.0009871082000000003,0.00111249766,0.0009279779999999999,-0.004565004,-0.005702322,4.816,0,0
0.0004792666000000001,0.00020850166,0.002826628,-0.005230598,-0.006945644,4.817,0,0
-8.80396e-05,-0.0012506549400000003,0.004027246,-0.005510072,-0.007864684,4.818,0,0
-0.00024378840000000002,-0.0031793280000000004,0.00416428,-0.004561268,-0.0058981020000000006,4.819,0,0
0.0001117464,-0.0043291760000000006,0.0034207566000000003,-0.0018780020000000001,-0.0018450039999999995,4.82,0,0
0.0008049590000000001,-0.0041432560000000005,0.002153447,0.0014049000000000002,0.0019951180000000006,4.821,0,0
0.0021393126,-0.002032158000000001,0.0011581214000000002,0.004010226,0.00529961,4.822,0,0
0.0034764908000000003,0.0011662499999999998,0.0007837646000000001,0.005609494,0.007761970000000001,4.823,0,0
0.003963564,0.003418608,0.0005968826000000001,0.005937362,0.007526388,4.824,0,0
0.003427454000000001,0.003981238,0.000923792,0.0045305074,0.005724570600000001,4.825,0,0
0.0023985580000000007,0.003820952,0.0010375224,0.0024271352,0.0044932606,4.826,0,0
0.0005501240000000001,0.002612594,0.0008014380000000002,0.0015352691999999998,0.0033533386000000006,4.827,0,0
-0.001783472,0.0005532120000000002,2.599480000000005e-05,0.0013477872,0.0022003302460000002,4.828,0,0
-0.002802542,-0.0006995880000000001,-0.0018537752,0.0015273912,0.002302570246,4.829,0,0
-0.0024285598,-0.001650416,-0.0033262432,0.0023356378,0.0022860906459999998,4.83,0,0
-0.0022276604,-0.00329325,-0.0036058186000000004,0.0025985296,0.00045943064600000006,4.831,0,0
-0.0017873138,-0.004197960000000001,-0.0038143266,0.0022471496,-0.000816415354,4.832,0,0
-0.00020667780000000006,-0.0036541750000000004,-0.0032435694,0.0020240175999999997,-0.001024861,4.833,0,0
0.0004895925999999999,-0.0024210430000000003,-0.0015393126000000001,0.0012657418000000002,-0.0024707630000000004,4.834,0,0
0.00017883839999999996,-0.000531181,-0.0010436806000000002,9.309580000000013e-05,-0.00406905,4.835,0,0
0.0004901984,0.00040531500000000006,-0.001310846,-0.0001510924,-0.0039759980000000006,4.836,0,0
0.00013784180000000004,0.00018464300000000018,-0.000574085,-0.0004751084,-0.004165152,4.837,0,0
-0.0011868922,1.1772000000000083e-05,0.0007003998,-0.0014338984,-0.005061746,4.838,0,0
-0.0014518546,0.00018543600000000009,0.0018581150000000002,-0.0020770666,-0.00453542,4.839,0,0
-0.0004470065999999999,0.001315448,0.002626857,-0.0025816426,-0.00364543,4.84,0,0
5.0834000000000035e-05,0.0037125620000000004,0.0034648530000000004,-0.0033590440000000003,-0.0032533559999999998,4.841,0,0
0.00026351719999999996,0.006018632,0.0041499300000000005,-0.003514302,-0.0018898099999999998,4.842,0,0
0.0010993728000000002,0.005767720000000001,0.0027769372000000002,-0.002563582,-0.00031548800000000005,4.843,0,0
0.0011653666000000003,0.0030498380000000013,-4.842280000000006e-05,-0.0017912984,-1.963800000000064e-06,4.844,0,0
-0.00039526139999999997,-7.258799999999973e-05,-0.0017131288000000002,-0.0011741044,0.0002846981999999999,4.845,0,0
-0.0017623434000000001,-0.002361772,-0.0024813128000000005,-0.0003990566,0.0004627612000000001,4.846,0,0
-0.0024734326000000004,-0.0042132458,-0.0030264828,-2.6841800000000004e-05,-0.0008532588,4.847,0,0
-0.0041094962,-0.004202559800000001,-0.002154748,-0.0006512318,-0.0022785388000000004,4.848,0,0
-0.005569088,-0.0020339696,-8.211400000000032e-05,-0.0010473994,-0.0020892002000000003,4.849,0,0
-0.006026218000000001,-0.0007381942,0.001473218,-0.00041756940000000004,-0.0006500121999999998,4.85,0,0
-0.00527960268,-0.0005701300000000001,0.00212394,6.063679999999993e-05,0.0013827468000000003,4.851,0,0
-0.0026963266799999996,-0.0009718001999999999,0.001561334,0.0015498539999999998,0.0045638148000000005,4.852,0,0
0.0012277993200000001,-0.0015438442,-0.00019442600000000015,0.004457266,0.0081349348,4.853,0,0
0.00521123732,-0.0018123484000000002,-0.0015790360000000002,0.006841791999999999,0.010472072000000002,4.854,0,0
0.00787397732,-0.0012236058,-0.002821772,0.00781365,0.011092952000000003,4.855,0,0
0.008931338,8.846199999999987e-05,-0.004641804000000001,0.007920569999999998,0.010171316000000001,4.856,0,0
0.00791633,0.0012267000000000003,-0.005627274000000001,0.0065362596,0.007824954200000001,4.857,0,0
0.004946342000000001,0.0029048240000000003,-0.004765800400000001,0.0038369408000000003,0.005296935200000001,4.858,0,0
0.0016239440000000004,0.003795478,-0.0030970484,0.0021746968,0.0042229852,4.859,0,0
-0.0006141979999999999,0.002727826,-0.0012507284000000001,0.0017264728,0.0035595552,4.86,0,0
-0.00264349,0.0015422138000000002,0.0009821336000000003,0.0015661348000000001,0.0026318356,4.861,0,0
-0.004082406,0.0014276737999999998,0.0031175076,0.0011237892,0.00256545674,4.862,0,0
-0.0033151986000000003,0.000656816,0.004305710000000001,-0.0006004560000000001,0.0018724097400000003,4.863,0,0
-0.002380165648,-0.0008153620000000001,0.0043255540000000006,-0.004348112,-0.00203444026,4.864,0,0
-0.001756175248,-0.0011536200000000002,0.0040553360000000005,-0.009083494000000001,-0.00738692426,4.865,0,0
0.000555048752,-0.0018404758000000001,0.0033385812000000003,-0.013235820000000002,-0.01189060666,4.866,0,0
0.002644390752,-0.0032400078000000003,0.0016476991999999997,-0.016377924000000002,-0.016107606,4.867,0,0
0.002331409352,-0.0034018698,-0.00040524880000000004,-0.01696206,-0.01869134,4.868,0,0
0.0013980524,-0.0021079038,-0.0015057167999999999,-0.014348004000000001,-0.017892900000000003,4.869,0,0
5.3257999999999604e-05,-0.0011047524,-0.0016513948,-0.010446264080000002,-0.014925130000000002,4.87,0,0
-0.0041178560000000005,-0.0006989544000000001,-0.00148085,-0.0063638480800000015,-0.010931566,4.871,0,0
-0.009204164,3.410760000000002e-05,-0.0004925590000000002,-0.0024220020800000005,-0.005817986000000001,4.872,0,0
-0.012135182,0.0005558294,0.0007348831999999999,0.0010614599199999999,-0.00025308599999999916,4.873,0,0
-0.013069579999999999,0.0007043134000000001,0.0017624452000000001,0.00304528392,0.004040374000000001,4.874,0,0
-0.010358826000000002,0.001309312,0.0022112772000000003,0.0037983640000000003,0.0070759840000000004,4.875,0,0
-0.004122906000000001,0.0026340540000000003,0.0013030732000000001,0.005057382,0.009413864000000001,4.876,0,0
0.0024927540000000007,0.0037517419999999998,0.00017811219999999987,0.0061436400000000006,0.010116474000000002,4.877,0,0
0.008554034,0.0036546179999999997,0.0003886620000000001,0.006490760000000001,0.00904569,4.878,0,0
0.014229114000000001,0.00346686,0.000665786,0.007110692000000001,0.007533188,4.879,0,0
0.01700258,0.003431308,0.00035340199999999995,0.007435252000000001,0.0053747280000000005,4.88,0,0
0.015335566,0.0018162919999999997,0.00074327,0.006529378000000001,0.0019228360000000002,4.881,0,0
0.01337231,-0.00011463400000000007,0.0006558540000000002,0.006118282000000001,-0.0003805020000000001,4.882,0,0
0.01262483,-0.001219294,-0.0007543959999999998,0.005765134000000001,-0.000774548,4.883,0,0
0.009625464,-0.002474406,-0.002526532,0.0040997740000000005,-0.0013890159999999999,4.884,0,0
0.005099766000000001,-0.0034926620000000005,-0.0033914060000000005,0.0028855896,-0.00151776,4.885,0,0
0.002591506,-0.0031168988,-0.002539076,0.0024506076,0.00016761279999999998,4.886,0,0
0.00041935600000000007,-0.0018450527999999996,-0.000789606,0.0017369655999999998,0.0012736428000000002,4.887,0,0
-0.003272262,-0.0011382518,0.00048505000000000005,0.0011326056,0.0010239168,4.888,0,0
-0.006548336000000001,-0.0011780898,0.0009537480000000001,0.0014119776000000002,0.0016069428,4.889,0,0
-0.009765118,-0.0011686358000000002,0.0012284500000000003,0.0014877074000000004,0.0027670548,4.89,0,0
-0.013413604,-0.001135084,0.0009500800000000001,0.0001806774000000001,0.0027743472000000004,4.891,0,0
-0.016487618000000002,-0.0019500740000000004,0.00028770060000000004,-0.0020215866,0.0019964291999999997,4.892,0,0
-0.018778080000000003,-0.0019701452,0.00032510060000000003,-0.0044503706,0.00033815319999999996,4.893,0,0
-0.018503300000000004,-0.0006359712,0.0012954505999999998,-0.0073126146000000005,-0.0030094428,4.894,0,0
-0.015565468,-0.00028165540000000004,0.0020318046,-0.00974744,-0.0067669308,4.895,0,0
-0.010490426,-0.0005912164,0.0016563685999999998,-0.010209004,-0.009694268,4.896,0,0
-0.0005338060000000004,0.0002449596,0.0005835339999999999,-0.009195683999999999,-0.011692272,4.897,0,0
0.010797994,0.0013482638,-0.0007290500000000004,-0.007894204,-0.012142658,4.898,0,0
0.016547114,0.0013929978,-0.0014718422,-0.005816562,-0.009611804000000002,4.899,0,0
0.019622782,0.002128624,-0.0016010982000000005,-0.0031382657999999997,-0.006092310000000001,4.9,0,0
0.020435262,0.003137108,-0.0010291322000000004,-0.0018204398,-0.003673352000000001,4.901,0,0
0.014344130000000002,0.002126478,0.0005319238,-0.0016059337999999998,-0.0009497659999999999,4.902,0,0
0.007319104000000001,0.0009535652000000003,0.0019274698,-0.0011051416,0.001577758,4.903,0,0
0.0036831582000000002,0.0016410572,0.0018967352000000002,-0.0010064316000000001,0.0022342580000000003,4.904,0,0
0.0009272682,0.0026549352000000003,0.0007783052,-0.0014986437999999999,0.0024746480000000003,4.905,0,0
0.0006626382,0.0037372232000000005,-0.0003005308000000001,-0.0008295858000000001,0.003853858,4.906,0,0
0.0018311722000000001,0.0051971772,-0.0006998296,0.00041096819999999996,0.004213168000000001,4.907,0,0
-6.163179999999998e-05,0.004837032000000001,-0.00025105760000000005,0.000966464,0.0034256259999999998,4.908,0,0
-0.0014471360000000001,0.002068190000000001,0.0008573232,0.001743944,0.003379348,4.909,0,0
-0.0006391440000000001,-0.0016146019999999995,0.0017297751999999999,0.0028670760000000005,0.003314034,4.91,0,0
-0.0029183300000000002,-0.004367544,0.0010794092000000004,0.004234996,0.002881192,4.911,0,0
-0.005145632000000001,-0.004825226,-0.0009220979999999999,0.006324794,0.003051374,4.912,0,0
-0.003973282,-0.00325521,-0.0028962280000000003,0.009080496,0.003420404,4.913,0,0
-0.005561212000000001,-0.0010781320000000003,-0.00355847,0.011731723999999999,0.0034892119999999998,4.914,0,0
-0.011122474,0.0007584024000000002,-0.002421098000000001,0.013645547999999999,0.0038500040000000006,4.915,0,0
-0.014018780000000002,0.0008103664000000002,0.00033634600000000017,0.014509059999999999,0.004351374,4.916,0,0
-0.014573942000000003,-0.0023086176,0.0029432179999999996,0.014046179999999998,0.004566356,4.917,0,0
-0.015151018000000002,-0.0062178756000000005,0.0037216920000000004,0.012239911999999999,0.005289004,4.918,0,0
-0.010571280000000002,-0.008103525600000001,0.0030568680000000003,0.009815787999999999,0.00688498,4.919,0,0
-0.001335760000000001,-0.008378632,0.0010833519999999997,0.007924934,0.008172818000000002,4.92,0,0
0.00523572,-0.006659948000000001,-0.001975794,0.005882505999999999,0.009091714,4.921,0,0
0.00830758,-0.002350612,-0.004142308000000001,0.0035879460000000007,0.010751494,4.922,0,0
0.009912366,0.0024614080000000004,-0.004674818,0.0023669196000000005,0.012596052,4.923,0,0
0.007656285999999999,0.005794542000000001,-0.005390354,0.0011854776,0.012523432000000001,4.924,0,0
0.0020026400000000004,0.007410976000000001,-0.00605138,-0.0010116524000000002,0.011007438000000001,4.925,0,0
-0.0015514920000000002,0.006753564180000002,-0.005235206,-0.0026943784,0.00880677,4.926,0,0
-0.00214159,0.003159908180000001,-0.0035083140000000002,-0.0035399524,0.004536392,4.927,0,0
-0.001167394,-0.00017775781999999993,-0.0023881360000000003,-0.00438437,-0.0015931479999999997,4.928,0,0
0.002525928,-0.0008493658200000001,-0.0012228330000000004,-0.0036180480000000004,-0.00566692,4.929,0,0
0.006297834,-0.0006662438200000001,0.001142613,-0.001185194,-0.0057660540000000005,4.93,0,0
0.0074197176,0.000487508,0.0030310249999999997,0.0008718439999999997,-0.0044925220000000005,4.931,0,0
0.005802399599999999,0.0036598079999999996,0.003909925,0.0028917079999999998,-0.001097274,4.932,0,0
0.0013306335999999988,0.0054208979999999995,0.005580880999999999,0.004770954000000001,0.0035762560000000007,4.933,0,0
-0.003979806400000001,0.0030578619999999997,0.0077831440000000005,0.004478346400000001,0.005299928000000001,4.934,0,0
-0.008073086400000002,-0.0005731399999999995,0.008398276000000001,0.0027318363999999998,0.0037338239999999997,4.935,0,0
-0.010482578000000003,-0.003286966,0.006990246000000001,0.0008945723999999998,0.0012921760000000006,4.936,0,0
-0.011057736000000002,-0.0046027458,0.0034907020000000005,-0.0016551336,-0.0017854199999999998,4.937,0,0
-0.009697322,-0.0039530998,-0.0004901779999999995,-0.0047052596,-0.004680322000000001,4.938,0,0
-0.007493310800000001,-0.0011745638000000003,-0.0028084944,-0.007638988,-0.005493874,4.939,0,0
-0.0056702335999999996,0.0020281402,-0.0041044344,-0.010620648,-0.005659539999999999,4.94,0,0
-0.0040052176,0.0021734642,-0.0042053004000000005,-0.013691508000000002,-0.006679368,4.941,0,0
-0.0004061195999999999,0.000997486,-0.0031070864000000004,-0.016709012,-0.009445922,4.942,0,0
0.0032966664000000003,-0.00019519660000000003,-0.0023816584,-0.01936234,-0.01382527,4.943,0,0
0.0036946891999999998,-0.0028607346,-0.00293926,-0.0200854,-0.018738138,4.944,0,0
0.005952792,-0.004325292600000001,-0.0036223332000000002,-0.01867864,-0.0218536,4.945,0,0
0.010171716,-0.0039159286,-0.0026045552000000002,-0.015427426000000003,-0.020689494000000003,4.946,0,0
0.011593574,-0.0033475806,-0.0006372571999999999,-0.010991151400000001,-0.015990156000000002,4.947,0,0
0.015167994,-0.001456982,0.00020793880000000012,-0.0081700094,-0.010970510000000003,4.948,0,0
0.02201646,0.00213446,0.0007718712000000002,-0.0080831694,-0.00829527,4.949,0,0
0.024704760000000006,0.004183954,0.0016584704000000003,-0.0101362894,-0.009176090000000001,4.95,0,0
0.022658932,0.0048279080000000005,0.0006316204000000002,-0.0133538034,-0.013115896000000002,4.951,0,0
0.019177740600000003,0.005072864000000001,-0.00043602959999999993,-0.013952838,-0.015969594,4.952,0,0
0.013160551400000001,0.0030742500000000006,0.0009713904000000001,-0.00921472,-0.014861528,4.953,0,0
0.0056624074000000005,0.0003473555999999999,0.002253906,-0.0017930200000000002,-0.010618116,4.954,0,0
-0.0005304146000000001,-0.00125606424,0.0028241380000000003,0.00635454,-0.002974116000000001,4.955,0,0
-0.0036429086000000005,-0.00135634624,0.004138184,0.01394676,0.0054340840000000005,4.956,0,0
-0.0045578212,-7.884823999999998e-05,0.005022908,0.0183942,0.009482774000000001,4.957,0,0
-0.006969012000000001,0.0008232417599999999,0.0042318336,0.01990882,0.011272362000000001,4.958,0,0
-0.010779468,0.0006843301599999999,0.0019831116,0.0212571,0.014111970000000001,4.959,0,0
-0.013446946000000001,0.00020056799999999998,-0.0001431904000000001,0.02362088,0.017005870000000003,4.96,0,0
-0.015776704000000003,-0.001711122,-0.0016025564000000001,0.025705600000000002,0.021092810000000004,4.961,0,0
-0.0183724,-0.004519846,-0.0034818024,0.02661164,0.02659542,4.962,0,0
-0.017869859999999998,-0.0049944794,-0.004820584000000001,0.0255654,0.030211680000000005,4.963,0,0
-0.014409948000000002,-0.0039679634,-0.003955159200000001,0.020606426,0.029725440000000002,4.964,0,0
-0.011340728,-0.0021909493999999995,-0.0024099232,0.011893886000000001,0.025082244,4.965,0,0
-0.008297982,0.0022348706,-0.0018599255999999997,0.0029952260000000006,0.018395312,4.966,0,0
-0.005309544,0.0050849066,-0.0006158499999999998,-0.005819094,0.011047595200000001,4.967,0,0
-0.005351484,0.004479424,0.0013402800000000001,-0.014557014,0.0046715972,4.968,0,0
-0.0063806340000000005,0.004162542,0.0026320272000000004,-0.020292720000000004,0.00035798320000000005,4.969,0,0
-0.005097274000000001,0.0032060279999999997,0.0039805812000000005,-0.0245526,-0.005307320800000001,4.97,0,0
-0.003016838000000001,0.000809646,0.0059589536000000005,-0.029046680000000002,-0.014629848800000001,4.971,0,0
-0.0004117079999999998,-0.00086036,0.00738748,-0.030285580000000003,-0.025103132,4.972,0,0
0.006082972,-4.463199999999991e-05,0.007126144000000001,-0.027048120000000002,-0.034250514,4.973,0,0
0.01575091,0.0019655600000000007,0.0053888700000000005,-0.0219014,-0.040237140000000005,4.974,0,0
0.022657590000000002,0.0037248620000000007,0.0010253900000000006,-0.014225630000000003,-0.03929022000000001,4.975,0,0
0.025820888000000004,0.0041961046,-0.00488621,-0.004758256000000001,-0.031851324,4.976,0,0
0.026380220000000003,0.0028964346000000013,-0.008275132000000001,0.002785084,-0.021056102,4.977,0,0
0.023372982000000004,0.0004975606000000004,-0.009072938000000001,0.007435584,-0.009305802,4.978,0,0
0.018223762,-0.0035646574,-0.00889876,0.009547854,0.0012702979999999996,4.979,0,0
0.014651202,-0.006957927399999999,-0.006460725,0.009804504,0.009071158,4.98,0,0
0.011986934000000001,-0.006840967999999999,-0.0017227989999999997,0.008901260000000001,0.012367502,4.981,0,0
0.008497300000000001,-0.00355662,0.0011060470000000002,0.00757808,0.013307802,4.982,0,0
0.0029985579999999993,-0.000357256,0.0015510976000000002,0.0065733480000000006,0.013870042,4.983,0,0
-0.006339062,0.0013715425999999997,0.0019791830000000002,0.007289478000000001,0.014239722,4.984,0,0
-0.019305382000000003,0.0012320445999999996,0.0021307800000000005,0.012374438000000001,0.016450382,4.985,0,0
-0.031863594,-0.0008625294,0.0018499360000000004,0.020783148,0.021043042,4.986,0,0
-0.03564188,-0.0032344514000000003,0.001743682,0.028176568000000006,0.02462872,4.987,0,0
-0.03281659000000001,-0.0068938154,0.0027155854,0.0336158,0.02564206,4.988,0,0
-0.02884681,-0.008705938,0.0026420266,0.03641196,0.024883840000000004,4.989,0,0
-0.02190827,-0.005874664,0.0011352526,0.03338506,0.020328114,4.99,0,0
-0.015405789999999999,-0.00235124,5.512659999999984e-05,0.025955316,0.013836327399999999,4.991,0,0
-0.015701970000000003,0.00021816600000000032,-0.0009748494000000002,0.01824255,0.0101754494,4.992,0,0
-0.01879362,0.0033649480000000004,-0.0016930394000000003,0.010511755999999999,0.0079276814,4.993,0,0
-0.019312180000000005,0.005662276000000001,-0.0017070410000000005,0.0026417560000000003,0.0050085614,4.994,0,0
-0.018484840000000002,0.00515887,-0.0017892850000000003,-0.005301404,0.0029369774,4.995,0,0
-0.013787092,0.0036398432000000007,-0.002086557,-0.013690820000000001,0.0008809139999999996,4.996,0,0
-0.005313652,0.0034473112000000007,-0.002002783,-0.022046454000000004,-0.003955468,4.997,0,0
0.004684308000000001,0.004934989200000001,-0.0026979690000000006,-0.029873680000000003,-0.010414119999999999,4.998,0,0
0.015763928,0.0041085788,-0.0026240252000000004,-0.03649244000000001,-0.01703072,4.999,0,0
0.026856588,0.0014974128,-0.0008760932000000002,-0.04100194,-0.024370750000000004,5.0,0,0
0.03530322,0.0015356556,-0.0005178252,-0.04265958,-0.03036862,5.001,0,0
0.03826848000000001,0.0009742616000000001,-0.0013038332,-0.0418043,-0.03248112,5.002,0,0
0.03709772,-0.0006783323999999997,-0.0013199912,-0.038444120000000005,-0.031164780000000003,5.003,0,0
0.031255700000000004,-0.00016372999999999984,-0.0009883160000000002,-0.033214980000000005,-0.027892260000000002,5.004,0,0
0.024061660000000002,0.001352838,-0.000858874,-0.025654760000000002,-0.021997420000000004,5.005,0,0
0.01997076,0.0017445840000000002,0.00010850999999999992,-0.014733460000000002,-0.0141950918,5.006,0,0
0.0162967,0.0013085178000000002,0.00166006,-0.0024872999999999987,-0.0079185898,5.007,0,0
0.01029146,0.0015122878,0.002012004,0.00915268,-0.0025601878000000005,5.008,0,0
0.00342544,0.0024408818,0.0015742360000000001,0.021227340000000004,0.0055682322,5.009,0,0
-0.0022545,0.0020944578,0.00201292,0.033363460000000005,0.015319212200000001,5.01,0,0
-0.009469080000000001,-0.0006828542000000002,0.002348616,0.042313300000000005,0.023927124,5.011,0,0
-0.01762858,-0.003068354,0.001744643,0.04880054,0.032848322,5.012,0,0
-0.024332720000000002,-0.00482197,0.0028331529999999997,0.052895300000000006,0.04117486000000001,5.013,0,0
-0.03210168,-0.006917006,0.006452353000000001,0.052704100000000004,0.04521510000000001,5.014,0,0
-0.04352604,-0.006917474,0.008344761000000001,0.04863592,0.046113860000000007,5.015,0,0
-0.05460798,-0.004335082,0.007539855800000001,0.04078724,0.045033920000000005,5.016,0,0
-0.06068528000000001,-0.0025993279999999997,0.0079658028,0.027965598,0.03934348000000001,5.017,0,0
-0.058073240000000005,-0.0029984380000000004,0.0080129928,0.010780198000000005,0.028710584,5.018,0,0
-0.04042214,-0.002590578,0.0020002328000000005,-0.008197422,0.013643564,5.019,0,0
-0.017287260000000002,-0.001222608,-0.007367807200000001,-0.027692242000000002,-0.006121556,5.02,0,0
0.0017103599999999967,-0.0005737360000000003,-0.012258254000000001,-0.044494042000000004,-0.027437376,5.021,0,0
0.021671179999999998,5.382979999999987e-05,-0.014076520000000002,-0.054812160000000006,-0.044398716000000005,5.022,0,0
0.03927628,0.0022801918,-0.015849026,-0.05726888000000001,-0.054468760000000005,5.023,0,0
0.04926232,0.005568655800000001,-0.013556892600000002,-0.05352220000000001,-0.058579980000000004,5.024,0,0
0.05801624,0.008673275800000001,-0.00706024428,-0.046574800000000006,-0.0576059,5.025,0,0
0.06757862,0.0100837718,-0.0022097117800000004,-0.03847312,-0.052688040000000005,5.026,0,0
0.0715205,0.008297956,-0.00018981978000000006,-0.030026520000000004,-0.046565300000000004,5.027,0,0
0.06851458,0.004467284,0.0015384422199999999,-0.020867956000000003,-0.04100266,5.028,0,0
0.057966000000000004,-7.065200000000047e-05,0.0027070648199999997,-0.010946916000000003,-0.03343866,5.029,0,0
0.04202693800000001,-0.004548682,0.0034875424999999995,0.000252464,-0.022901124000000002,5.03,0,0
0.02650449,-0.006670298,0.004457308,0.012438084000000002,-0.010514243999999999,5.031,0,0
0.01098939,-0.004555756,0.005076958,0.023745124000000003,0.004618595999999999,5.032,0,0
-0.004723130000000001,-0.0006292340000000003,0.004949062000000001,0.03251628,0.021676216,5.033,0,0
-0.017386350000000002,0.00256436,0.004546354000000001,0.038237980000000005,0.037153956,5.034,0,0
-0.024580428000000005,0.005040066,0.004626056000000001,0.040243860000000006,0.049864420000000007,5.035,0,0
-0.024893490000000004,0.005440038,0.0045753880000000005,0.03837728000000001,0.05862164,5.036,0,0
-0.02271576,0.002455472,0.0031923040000000004,0.03384142,0.06115450000000001,5.037,0,0
-0.022406580000000002,-0.0021631900000000006,0.0010436060000000003,0.028383340000000003,0.059424960000000006,5.038,0,0
-0.023099220000000004,-0.006492928,-0.0003095840000000001,0.02254304,0.054806940000000005,5.039,0,0
-0.027222500000000004,-0.010257784,-0.0009146860000000003,0.015448759999999999,0.045654740000000006,5.04,0,0
-0.03722305000000001,-0.011710236,-0.0010386259999999997,0.00747556,0.03282130200000001,5.041,0,0
-0.046785020000000004,-0.009057478800000001,-0.00024642399999999997,-0.0001846000000000009,0.019174022000000006,5.042,0,0
-0.046935080000000004,-0.0044792068,0.0013383260000000004,-0.00879736,0.0033325019999999993,5.043,0,0
-0.038552432000000005,0.0004881331999999996,0.0021606288,-0.01967484,-0.016108218,5.044,0,0
-0.025252792000000003,0.0056065332,0.0013959128000000003,-0.030566700000000002,-0.035135478000000005,5.045,0,0
-0.005988532000000001,0.0084155492,0.00036639280000000005,-0.039212800000000006,-0.05045582,5.046,0,0
0.017016408,0.008362561000000001,4.1414800000000036e-05,-0.044465580000000005,-0.0609691,5.047,0,0
0.035744968,0.006513125,-8.862919999999997e-05,-0.045367580000000005,-0.06618216,5.048,0,0
0.04542224,0.0038461950000000006,-0.00014486919999999996,-0.039798440000000004,-0.06317796,5.049,0,0
0.04600056,0.0005236895999999998,0.0003633424600000001,-0.028358232000000004,-0.052091080000000005,5.05,0,0
0.036447414,-0.0024560324,0.00107208846,-0.015170332000000002,-0.03735941400000001,5.051,0,0
0.019841934,-0.0027187594000000004,0.0014924144600000002,-0.0015590120000000002,-0.020448974,5.052,0,0
0.000966774000000001,-0.0014967062,0.00186975846,0.012544228000000001,-0.0021039739999999998,5.053,0,0
-0.015962806000000003,-0.0008871390000000001,0.00250546366,0.024893848000000003,0.015562386000000001,5.054,0,0
-0.024888886,-0.0009134698,0.002903294,0.03366036,0.029485946,5.055,0,0
-0.024054108,-0.0014306978000000001,0.00192093,0.03971758000000001,0.04158762,5.056,0,0
-0.019277733999999998,-0.0032881598,-0.0005441940000000002,0.04140848000000001,0.04757386,5.057,0,0
-0.016770194,-0.005245907,-0.003261186,0.03786014000000001,0.043203040000000005,5.058,0,0
-0.013039874,-0.0058076382,-0.005385284,0.030978740000000005,0.0362154,5.059,0,0
-0.010861054000000002,-0.005069519999999999,-0.00658448,0.021669380000000002,0.028460900000000004,5.06,0,0
-0.017901846000000003,-0.0019473199999999993,-0.006749116,0.011508722000000002,0.015952166,5.061,0,0
-0.025176940000000002,0.0023561800000000003,-0.005908228,0.0015996820000000007,0.0018893259999999993,5.062,0,0
-0.02491954,0.007057418,-0.004454306000000001,-0.007397638,-0.006706854000000001,5.063,0,0
-0.022468746,0.011301092,-0.0028761102000000004,-0.015009558000000001,-0.012847654000000002,5.064,0,0
-0.017737314,0.01307109,-0.0016753142000000003,-0.020954338000000003,-0.017104454,5.065,0,0
-0.0064818140000000015,0.012477242,-0.0006260162000000001,-0.024920140000000004,-0.01698813,5.066,0,0
0.005573406000000001,0.00989066,0.0008205958000000001,-0.026031640000000005,-0.014260522000000001,5.067,0,0
0.015386666,0.0048795999999999996,0.0018002938000000002,-0.02393812,-0.010717172,5.068,0,0
0.022888492000000003,-0.00207996,0.0021696460000000003,-0.019770652000000003,-0.009456792,5.069,0,0
0.026634560000000005,-0.007392340000000001,0.0019760100000000003,-0.014294518,-0.010076472,5.07,0,0
0.028451800000000006,-0.009702278000000002,0.001225898,-0.0085257664,-0.011281362,5.071,0,0
0.028989240000000003,-0.009837320000000002,0.0008538308000000001,-0.0040006146,-0.01260035,5.072,0,0
0.028563900000000003,-0.008282744,0.0010571068000000002,-0.0026193526,-0.01508396,5.073,0,0
0.02629178,-0.0063061739999999995,0.0011934808,-0.0034608586,-0.017103280000000002,5.074,0,0
0.021635428,-0.0047895920000000005,0.0018203808000000002,-0.0037323366,-0.01708234,5.075,0,0
0.015159568000000003,-0.004027672,0.0029876628000000006,-0.0036632313999999996,-0.016844240000000003,5.076,0,0
0.007125208000000001,-0.003086366,0.0031187320000000004,-0.0024332611999999996,-0.015064776000000002,5.077,0,0
-0.0021076720000000005,-0.0012669080000000002,0.0023885208000000006,0.0023052768000000005,-0.008649236,5.078,0,0
-0.010022612,0.001385144,0.0013674188000000003,0.010370274799999999,0.0022024240000000006,5.079,0,0
-0.01629802,0.00396373,0.00032781679999999993,0.020894478799999998,0.015633124,5.08,0,0
-0.02166746,0.005039982,-0.0007039012,0.033147522000000006,0.032524004,5.081,0,0
-0.02245366,0.0045165112,-0.0015813232,0.044940640000000004,0.0509955,5.082,0,0
-0.01800329,0.0035281052,-0.002155498,0.052761640000000005,0.06556122,5.083,0,0
-0.010797910000000003,0.0022898152,-0.002321404,0.05436858000000001,0.07333804,5.084,0,0
-0.0028548500000000017,-9.168879999999998e-05,-0.0017935039999999998,0.04966720000000001,0.0743131,5.085,0,0
0.0017282640000000004,-0.0030880248,-0.000759416,0.039481178,0.06780624,5.086,0,0
0.0022218840000000012,-0.005022376,0.0008732760000000001,0.025133542,0.05473914,5.087,0,0
-0.00034012999999999925,-0.005610674,0.002639714,0.009481482000000001,0.038570894,5.088,0,0
-0.00599307,-0.00482359,0.0032113116000000003,-0.0062107180000000005,0.017586614,5.089,0,0
-0.010216488000000001,-0.002277062,0.0017187356000000003,-0.023246458000000005,-0.009551106000000002,5.09,0,0
-0.010349147999999999,0.00012422099999999988,0.00045852160000000035,-0.039602676,-0.037188566000000006,5.091,0,0
-0.007523558,0.0011351049999999998,0.0005860696,-0.0526432,-0.06238998600000001,5.092,0,0
-0.0025293939999999995,0.002350931,0.0002875636,-0.06213974,-0.08285912000000001,5.093,0,0
0.0026181060000000007,0.004184895,0.00012252220000000003,-0.06681304,-0.09160294,5.094,0,0
0.006515504000000001,0.006214903000000001,0.0007471282000000001,-0.06486576,-0.08724828000000001,5.095,0,0
0.009993722,0.0100483,-0.0004860538,-0.05710214,-0.07501542000000001,5.096,0,0
0.011124778,0.014390595999999999,-0.0035748378000000003,-0.046471860000000004,-0.05775842,5.097,0,0
0.009688870000000002,0.014517305999999999,-0.005081593800000001,-0.034240240000000005,-0.0378073,5.098,0,0
0.009281690000000002,0.010048561999999999,-0.005074625200000001,-0.020707368000000004,-0.01895844,5.099,0,0
0.00967891,0.003707982,-0.004360857600000001,-0.007818868,-0.00280546,5.1,0,0
0.010422878,-0.0026618179999999994,-0.0019426596,0.0030421119999999996,0.010067900000000001,5.101,0,0
0.012122172,-0.0076847320000000005,0.0006423103999999999,0.011351392000000002,0.01855888,5.102,0,0
0.013789880000000001,-0.01017337,0.0016163562000000003,0.016881752,0.02086624,5.103,0,0
0.01518004,-0.009846222000000002,0.0019316113999999999,0.02062314,0.018107688,5.104,0,0
0.016670860000000003,-0.008036928,0.0022646838000000002,0.02368692,0.013271336000000002,5.105,0,0
0.016749100000000003,-0.006557788,0.0023114418000000003,0.0261269,0.007223756000000001,5.106,0,0
0.014322788,-0.0063543,0.0018135192000000003,0.0289303,0.0035527600000000003,5.107,0,0
0.010217928,-0.007122008000000001,0.0015231216000000003,0.03267438,0.00437094,5.108,0,0
0.0038035080000000006,-0.008054252,0.0018043376000000002,0.03471444,0.007065572000000001,5.109,0,0
-0.005166532,-0.008180317999999999,0.0018018796000000001,0.03469552,0.012300184,5.11,0,0
-0.014186872,-0.007960282,0.0015533016000000002,0.034206639999999996,0.021153604,5.111,0,0
-0.02233668,-0.00751338,0.0021251962000000003,0.03180688,0.02932634,5.112,0,0
-0.029459940000000004,-0.005530927999999999,0.0029339580000000004,0.026518740000000002,0.0353573,5.113,0,0
-0.03422464,-0.0024256900000000003,0.0026078466000000002,0.020040966,0.04072110000000001,5.114,0,0
-0.03599456,0.00024902600000000007,0.0011989606,0.01313653,0.04254964,5.115,0,0
-0.034474660000000004,0.0024147260000000003,-0.0010687554,0.005026624,0.03843118,5.116,0,0
-0.03003758,0.005203842,-0.0042929574,-0.0038502560000000007,0.029496366000000003,5.117,0,0
-0.023072368000000003,0.00847429,-0.0079211334,-0.012210236000000001,0.017655406000000002,5.118,0,0
-0.013199408000000001,0.010820872,-0.0105341,-0.019871162,0.0033237860000000004,5.119,0,0
-0.00018554800000000066,0.010212108000000001,-0.011039216,-0.027180846,-0.012750774,5.12,0,0
0.013859772000000001,0.0067558720000000004,-0.0077982,-0.03284658,-0.026302854,5.121,0,0
0.025944012000000002,0.0028029200000000004,-0.0015788199999999999,-0.03382098,-0.03390494,5.122,0,0
0.033797780000000006,-0.0003112172000000004,0.003994560000000001,-0.030106920000000002,-0.03719446,5.123,0,0
0.03571838,-0.0020605372000000004,0.00818953,-0.023542442,-0.03625804,5.124,0,0
0.03147342,-0.0008878791999999995,0.011032102000000002,-0.014198378000000001,-0.029187414000000002,5.125,0,0
0.021834773999999998,0.0014851928,0.009816334000000001,-0.004391858,-0.019067112,5.126,0,0
0.010322294000000001,0.0015860128000000002,0.004486227999999999,0.0025978340000000003,-0.009583414000000002,5.127,0,0
0.001004413999999999,0.0006156880000000005,-0.0005462920000000003,0.006028394,-0.0007557739999999999,5.128,0,0
-0.005683746,-0.0006700761999999998,-0.004059804,0.006952344,0.007223926,5.129,0,0
-0.010795626,-0.0031846142,-0.0056664128,0.005330949999999999,0.01162322,5.13,0,0
-0.01302918,-0.004396104200000001,-0.004884792800000001,0.002040556,0.012381112,5.131,0,0
-0.011908558,-0.0030131942000000004,-0.003953216800000001,-0.000554288,0.01208913,5.132,0,0
-0.0095413826,-0.0022169302000000003,-0.0009441667999999998,-0.002639134,0.009746530000000002,5.133,0,0
-0.006593682600000001,-0.00168982,0.0039828552000000005,-0.004126818,0.004875008000000001,5.134,0,0
-0.0026285046,-0.000691314,0.006881468000000001,-0.00388857,0.00013792799999999984,5.135,0,0
0.0011600794000000002,0.00078848,0.007759564,-0.002445326,-0.004256466,5.136,0,0
0.0029270134,0.0036252100000000002,0.007607877999999999,-0.0017787552,-0.009632202,5.137,0,0
0.005483778000000001,0.007088488,0.0050884699999999995,-0.0007748272,-0.014664942,5.138,0,0
0.010348918,0.008880202,-0.0007485500000000002,0.0022833768,-0.01789274,5.139,0,0
0.01395096,0.007434286000000001,-0.0070756099999999995,0.005824818800000001,-0.01927848,5.14,0,0
0.015806496,0.006612710000000001,-0.009940588,0.0094227288,-0.018374280000000003,5.141,0,0
0.016198396,0.007212970000000001,-0.007743518,0.012973310000000002,-0.015377386,5.142,0,0
0.012008136000000003,0.006613870000000001,-0.003896172,0.014849908,-0.010800129,5.143,0,0
0.0033048560000000005,0.004554764000000001,0.0010649880000000002,0.013881546,-0.005256495,5.144,0,0
-0.005641444000000001,0.0007427940000000006,0.007999628,0.010681408362000001,0.0005313449999999997,5.145,0,0
-0.012245364000000002,-0.005287105999999999,0.012042322,0.005407124362,0.006100045,5.146,0,0
-0.014072884,-0.010918786,0.0121133,-0.00018875563799999992,0.011177791,5.147,0,0
-0.011041634000000002,-0.013487975400000001,0.011009762000000001,-0.0030908536380000002,0.016709414,5.148,0,0
-0.00600355,-0.0121532754,0.008528878000000002,-0.0038962136380000004,0.0221134,5.149,0,0
-0.0003920340000000001,-0.0045017354,0.003499688,-0.0027936000000000002,0.02710182,5.15,0,0
0.0033005433999999997,0.005459944600000001,-0.0025331520000000008,0.0006998839999999998,0.031800499999999995,5.151,0,0
0.0030385774,0.010672404600000001,-0.008363604,0.00469107,0.03426062,5.152,0,0
-0.0007490326000000006,0.01110058,-0.013891213999999999,0.007340392,0.03336368,5.153,0,0
-0.006417936600000001,0.009534141400000001,-0.018453570000000002,0.009231006,0.030133240000000002,5.154,0,0
-0.011286872600000001,0.0070584154,-0.01994566,0.010704430000000001,0.024112396,5.155,0,0
-0.01475219,0.0037181454000000005,-0.02010236,0.009924800000000001,0.013640735999999999,5.156,0,0
-0.017886460000000003,0.0010955073999999998,-0.01905892,0.007443504000000002,0.0018139559999999985,5.157,0,0
-0.018913560000000003,-0.0017289186,-0.0123651,0.005891146000000001,-0.007246084000000001,5.158,0,0
-0.015412798,-0.006301554000000001,-0.003386479999999999,0.003547476000000001,-0.014126704,5.159,0,0
-0.009950138,-0.008763268000000001,0.00271154,-0.0032095440000000004,-0.02211138,5.16,0,0
-0.004533578,-0.009173373,0.01037188,-0.012022574000000001,-0.030074999999999998,5.161,0,0
0.0021835820000000003,-0.008704983400000001,0.021553160000000002,-0.018625664,-0.03519142,5.162,0,0
0.007709082000000001,-0.004142343400000002,0.025985220000000003,-0.023849330000000002,-0.03776702,5.163,0,0
0.009676764000000001,0.0023158766000000003,0.02484128,-0.027537120000000002,-0.03692682,5.164,0,0
0.010521604,0.0068425966000000005,0.0248649,-0.025896400000000003,-0.030016363999999997,5.165,0,0
0.012449084,0.009632711600000001,0.022022626,-0.019154694000000003,-0.017732456,5.166,0,0
0.015050703999999998,0.011182526000000002,0.012939802,-0.011703616000000002,-0.005500216,5.167,0,0
0.018214084,0.0091242712,0.0018201420000000003,-0.005499466000000001,0.00339038,5.168,0,0
0.020852380000000004,0.0020775312000000006,-0.006654378,-0.0002434519999999999,0.007256556000000001,5.169,0,0
0.02043252,-0.0051847688,-0.014404258,0.0035054560000000005,0.0058117740000000005,5.17,0,0
0.01719451,-0.0088072528,-0.021304384000000003,0.00623219,0.0019278500000000003,5.171,0,0
0.0121519676,-0.0112647708,-0.0253271,0.008608012000000002,-0.001815684,5.172,0,0
0.005724827600000001,-0.013721736000000002,-0.023788920000000005,0.009635662000000001,-0.004712812,5.173,0,0
-0.0010759324000000005,-0.012180716000000001,-0.019537988,0.010258166,-0.005753576,5.174,0,0
-0.007003852400000001,-0.009618416000000001,-0.014114002,0.011752898000000001,-0.004093084,5.175,0,0
-0.011802802400000001,-0.01041163,-0.005917981999999999,0.011975538,-0.0016125319999999999,5.176,0,0
-0.016396340000000002,-0.011596426000000002,0.0011647420000000005,0.01093988,0.001660132,5.177,0,0
-0.02031294,-0.010524450000000001,0.0070931020000000004,0.010600478000000002,0.006229244,5.178,0,0
-0.022221380000000002,-0.006066108,0.012628690000000001,0.009698076,0.010840592,5.179,0,0
-0.022130180000000003,-0.0006567280000000001,0.015488804,0.0069604562,0.015696926,5.18,0,0
-0.019684478000000002,0.006452310000000001,0.014836364000000001,0.0044267642000000015,0.02150703,5.181,0,0
-0.013603944000000003,0.015257558000000001,0.014425414,0.0023199782000000004,0.025437720000000004,5.182,0,0
-0.0050058240000000025,0.022491482000000004,0.014815134,-0.0012347697999999998,0.02459472,5.183,0,0
0.004727236000000001,0.030225140000000005,0.012885294000000002,-0.0039331998,0.02121496,5.184,0,0
0.015388736000000002,0.03868762,0.0072629140000000005,-0.004391588,0.016458404,5.185,0,0
0.024057774,0.04279894000000001,0.0003097540000000006,-0.004615994,0.009537391999999999,5.186,0,0
0.02685982,0.0357939202,-0.0053034,-0.004576220000000001,0.0024207940000000004,5.187,0,0
0.024011262,0.013862080199999998,-0.00946765,-0.0024909420000000003,-0.002304368,5.188,0,0
0.018012241999999998,-0.0157086198,-0.009815349999999999,0.00047564000000000016,-0.005693027999999999,5.189,0,0
0.009641586,-0.0383251198,-0.01136587,0.0025958340000000004,-0.008825072,5.19,0,0
0.0010197000000000003,-0.0492605018,-0.01651657,0.004495922,-0.010776899999999999,5.191,0,0
-0.004512328,-0.04495910200000001,-0.020389030000000002,0.005834794000000001,-0.012003042000000002,5.192,0,0
-0.00781271,-0.025473782,-0.02407918,0.005256219800000001,-0.0133489,5.193,0,0
-0.011311670000000001,-0.007631902000000001,-0.02124946,0.0027408238,-0.0142472,5.194,0,0
-0.014140294000000001,-0.00017890199999999988,-0.005512099999999999,-0.0005204741999999998,-0.01373296,5.195,0,0
-0.016678148000000004,-5.232200000000113e-05,0.01387656,-0.0039198862,-0.012064458,5.196,0,0
-0.0199055,-0.0067904820000000005,0.02959324,-0.007231448200000001,-0.008501515999999999,5.197,0,0
-0.021058800000000003,-0.013679262000000001,0.039730680000000004,-0.009569642,-0.003231062,5.198,0,0
-0.019093160000000005,-0.013268142,0.03831626,-0.010272832,0.0015923580000000005,5.199,0,0
-0.01527107,-0.00972114612,0.02855116,-0.009765290000000001,0.005563450000000001,5.2,0,0
-0.009521106,-0.006427684120000001,0.018913464999999997,-0.0078869482,0.009271068,5.201,0,0
-0.0013962660000000002,-0.0010521441199999992,0.0076530250000000025,-0.005426992800000001,0.010980346,5.202,0,0
0.008449794,0.00793319588,-0.006599954999999999,-0.003157473,0.009955008000000001,5.203,0,0
0.018017654,0.017743855880000003,-0.021235695000000002,-0.0011109994000000002,0.008622412000000001,5.204,0,0
0.025327164,0.026198640000000002,-0.033957215,0.0002919486,0.007096056000000001,5.205,0,0
0.028585640000000002,0.03101306,-0.03866612,0.0010385628,0.003863934,5.206,0,0
0.026315594,0.02620322,-0.026956320000000006,0.0014130734,-0.0004428800000000001,5.207,0,0
0.0202473916,0.016353020000000003,-0.003647420000000002,0.0025714376000000004,-0.003918616,5.208,0,0
0.014185043600000002,0.009674772,0.017471059999999997,0.004328614,-0.00767406,5.209,0,0
0.009370143600000002,0.0018077739999999998,0.030587780000000002,0.005338932,-0.012027236,5.21,0,0
0.005467081600000001,-0.004618424,0.028066580000000008,0.005795556,-0.013148436000000001,5.211,0,0
0.0030643096,0.0010009960000000005,0.003017440000000003,0.006654524,-0.009827328,5.212,0,0
-0.0005869880000000001,0.004167028000000001,-0.027543859999999996,0.0067251080000000005,-0.004661607999999999,5.213,0,0
-0.008865620000000001,-0.004486064,-0.04472962,0.005197712,0.0017921920000000002,5.214,0,0
-0.017492800000000003,-0.010756986,-0.048812968,0.00414555,0.009951492000000001,5.215,0,0
-0.022734998000000003,-0.013037648,-0.037793547999999996,0.0036269500000000003,0.016048394,5.216,0,0
-0.0258242,-0.014168648000000002,-0.015246348,0.001846394,0.01805304,5.217,0,0
-0.0247897,-0.00954308,0.006040372,-0.00046406200000000033,0.01761528,5.218,0,0
-0.018647728000000002,-0.0012446640000000012,0.021939292,-0.0028141980000000004,0.014633015200000002,5.219,0,0
-0.012589819999999998,0.002703156000000001,0.03520402,-0.005844912000000001,0.008309875200000002,5.22,0,0
-0.008193736,0.003588272000000001,0.0413042,-0.008335874,0.0006919551999999998,5.221,0,0
-0.00367999,0.0012537058000000002,0.037349532000000005,-0.008583042,-0.005951524800000001,5.222,0,0
-0.00191073,-0.0027687962,0.026974072000000005,-0.007818140000000001,-0.0126734648,5.223,0,0
-0.001920648,-0.0026804381999999995,0.011953291999999997,-0.007090308000000001,-0.01832298,5.224,0,0
0.0012367840000000003,-0.0015998622000000001,-0.004571148000000001,-0.005294440000000001,-0.020198800000000003,5.225,0,0
0.006387620000000001,0.0005947798000000001,-0.018671788,-0.0040595679999999995,-0.019801940000000004,5.226,0,0
0.010690974000000002,0.005200606,-0.023713660000000004,-0.004610746000000001,-0.018562082,5.227,0,0
0.014731694,0.0069027080000000005,-0.01583212,-0.0048495380000000005,-0.015094002000000002,5.228,0,0
0.017024578000000002,0.0009445540000000002,0.0021645000000000015,-0.0038006532,-0.010508814000000002,5.229,0,0
0.014543476000000001,-0.007986622,0.019695360000000002,-0.0025067532,-0.007284872000000002,5.23,0,0
0.009785764,-0.016734100000000002,0.03256858,-0.00042485919999999994,-0.0036179360000000004,5.231,0,0
0.006949714,-0.021894608000000003,0.03675724400000001,0.0030319488,0.0005432659999999995,5.232,0,0
0.006241614,-0.015153868000000003,0.022505904000000007,0.0059095868,0.0032293919999999993,5.233,0,0
0.006380022,0.0024304519999999996,-0.008605636000000002,0.007767426,0.006047082,5.234,0,0
0.0063489272,0.020223092,-0.04421161600000001,0.0090551,0.008495282,5.235,0,0
0.0043542552000000005,0.02732501,-0.071595676,0.008688214,0.0084894,5.236,0,0
-0.00028395480000000016,0.023830178,-0.08356136000000002,0.007491274,0.007453886,5.237,0,0
-0.0055612148,0.014213872,-0.06642222,0.007093956,0.007537466,5.238,0,0
-0.009921220800000002,0.0023287062000000008,-0.022531080000000005,0.00748558,0.008963388000000001,5.239,0,0
-0.014091664,-0.0056568578,0.021079719999999996,0.007729044000000001,0.011521466000000001,5.24,0,0
-0.01804008,-0.0066935058,0.0507944,0.007836942000000001,0.015181972,5.241,0,0
