bandpass 1,bandpass 2,bandpass 3,bandpass 4,bandpass 5,time,onset,mark
0.004022162,0.007439854000000001,0.0009892168,0.004338234,-0.002862968,6.322,1,1
0.00532511,0.007797396000000002,0.0017043528,0.005318342,-0.004422296,6.323,0,0
0.00687925,0.007860573400000001,0.0021366968,0.006540222,-0.005157056,6.324,0,0
0.006682014,0.0055998054,0.0013890539999999998,0.006336494,-0.004989204,6.325,0,0
0.005481769399999999,0.0035955554,0.00020502999999999982,0.005156608,-0.0039255240000000005,6.326,0,0
0.004218304599999999,0.0014727054000000003,-0.0010325480000000003,0.0033830980000000006,-0.001514098,6.327,0,0
0.0025653326000000002,0.00016409140000000003,-0.002850552,0.0018236140000000003,0.0012345720000000002,6.328,0,0
0.0003608306000000001,-0.0034222260000000004,-0.0034230296000000004,-6.62900000000001e-05,0.0032079700000000005,6.329,0,0
-0.0028050774,-0.009554438000000002,-0.0021351796000000003,-0.0023793280000000004,0.004879138,6.33,0,0
-0.0055835368,-0.012038574,-0.0003556036000000001,-0.004214044,0.005099894000000001,6.331,0,0
-0.006138942000000001,-0.011052922000000001,0.0013992204000000002,-0.0058371460000000005,0.0035133920000000006,6.332,0,0
-0.006465424000000001,-0.009263026,0.0028448944000000003,-0.007283930000000001,0.0012340220000000002,6.333,0,0
-0.007034704000000001,-0.004421224,0.0028585902000000003,-0.008075914000000002,-0.0006652940000000001,6.334,0,0
-0.005658906,0.002304858,0.0017917202000000004,-0.008396052000000001,-0.0030320060000000003,6.335,0,0
-0.0030499259999999997,0.004705662,4.17382e-05,-0.007454794000000001,-0.005182702,6.336,0,0
-0.0021080039999999997,0.0036941570000000004,-0.0023132818,-0.005121496800000001,-0.004685966000000001,6.337,0,0
-0.0008426,0.003701427,-0.0047664278000000004,-0.0035017968,-0.004855356,6.338,0,0
0.001724784,0.0046698650000000005,-0.006160894,-0.0028501368,-0.006822158,6.339,0,0
0.0037727760000000003,0.005404631,-0.006444196,-0.0006618828000000001,-0.0054750400000000005,6.34,0,0
0.005116928,0.006554295,-0.006073238,0.0024701792000000004,-0.0017758580000000004,6.341,0,0
0.006274062,0.008389716,-0.00278223,0.004880842000000001,0.00021608,6.342,0,0
0.00677027,0.0082233,0.0020150100000000007,0.007433142,0.003425582,6.343,0,0
0.005639222,0.004519367999999999,0.004553906,0.009406594,0.0069614939999999995,6.344,0,0
0.0036718999999999996,0.0002866399999999999,0.005092772200000001,0.009221632,0.006678590799999999,6.345,0,0
0.0013728619999999999,-0.0026167700000000005,0.0047437062,0.007621584,0.0057883628,6.346,0,0
-0.0008542120000000001,-0.005711834000000001,0.0029182702000000002,0.006167588,0.006340786800000001,6.347,0,0
-0.002584662,-0.007706148000000001,0.00047781220000000005,0.004605438,0.0061033568,6.348,0,0
-0.003789988,-0.0066522940000000004,-0.00041753220000000004,0.002350118,0.005343088,6.349,0,0
-0.0043847,-0.0043173605999999995,-0.00022382120000000004,-5.537799999999981e-05,0.0043725412,6.35,0,0
-0.0032032180000000003,-0.0033864146000000006,-0.0003946732,-0.001998858,0.0016135851999999995,6.351,0,0
-0.0018325700000000002,-0.001945420886,-0.0016782072,-0.0035907480000000004,-0.0023048948000000003,6.352,0,0
-0.0016714620000000003,0.0016346951139999998,-0.0035978432,-0.0046489899999999995,-0.005536166800000001,6.353,0,0
-0.00046434400000000016,0.004697093114,-0.004508154800000001,-0.004656704,-0.006909102,6.354,0,0
0.000976996,0.005390159714,-0.0038468500000000006,-0.00367755,-0.008013714,6.355,0,0
0.0010282499999999999,0.004843235714,-0.001108834,-0.0042955860000000005,-0.008363844,6.356,0,0
0.0013462779999999998,0.004191481999999999,0.00287781,-0.007421080000000001,-0.006936144,6.357,0,0
0.002250374,0.001682102,0.005829226,-0.007842972,-0.006788832,6.358,0,0
0.0018910778,-0.0011555954,0.0066900216,-0.004453462,-0.006198486,6.359,0,0
0.0009691997999999999,-0.0024247474000000002,0.0053880816000000005,-0.0005746479999999997,-0.0019941860000000007,6.36,0,0
0.00016264579999999984,-0.0029092534000000002,0.0027375536,0.005924296,0.003581168,6.361,0,0
-0.0011648422,-0.0034577554,-0.0002061384,0.016146816,0.008799948,6.362,0,0
-0.0012258982,-0.0046176294,-0.0016546978,0.02545166,0.016956134,6.363,0,0
0.0006297899999999999,-0.004792834,-0.0016698295999999998,0.03126766,0.02496248,6.364,0,0
0.001781928,-0.003690166000000001,-0.0010259681999999998,0.030279300000000006,0.02517172,6.365,0,0
0.0009996539999999998,-0.0025880680000000002,-0.000288314,0.01926212,0.017206100000000002,6.366,0,0
-0.0007503400000000002,-0.0016351920000000002,-0.00019773320000000003,0.0013695600000000023,0.00342372,6.367,0,0
-0.002248542,-0.0003949276000000001,-0.00031848780000000006,-0.0175069,-0.012006320000000001,6.368,0,0
-0.0030163459999999996,-0.0005362956,-0.0013275876,-0.031697760000000005,-0.02436394,6.369,0,0
-0.002006887999999999,-0.0015602416000000002,-0.002226407,-0.03728848,-0.0297347,6.37,0,0
0.0006736940000000001,-0.0015921936000000002,-0.0022898316,-0.03305207,-0.026748849999999998,6.371,0,0
0.0034998240000000003,-0.0018127856000000001,-0.0021567004000000002,-0.02224773,-0.0180474246,6.372,0,0
0.005690404000000001,-0.0017880708000000002,-0.0014103023999999997,-0.011540022,-0.0087121886,6.373,0,0
0.006086872,-0.0007405428000000001,-8.552639999999991e-05,-0.0052637134,-0.0030410386000000005,6.374,0,0
0.005679332,0.0005265072,0.000573034,-0.0022198634000000004,-0.00022598880000000016,6.375,0,0
0.005122746,0.0015652032000000003,0.0005703686000000001,-0.0005037492000000001,0.0015760972000000001,6.376,0,0
0.004038318,0.0015378272,0.00038409459999999996,0.00030853479999999996,0.0031356298000000003,6.377,0,0
0.0021283360000000006,-0.0005111780000000002,-0.0010681374000000002,0.0012361688000000002,0.0043848758,6.378,0,0
-0.0008536420000000002,-0.0032150160000000007,-0.0025637414000000006,0.0024128002,0.0054084018000000005,6.379,0,0
-0.0034604020000000004,-0.004408068,-0.0025816018000000005,0.004080706200000001,0.007092388,6.38,0,0
-0.005021276,-0.004065246000000001,-0.001769002,0.005733422000000001,0.007939102,6.381,0,0
-0.005763664,-0.002935890000000001,-0.0014311692000000002,0.006626586000000001,0.00695074,6.382,0,0
-0.006205944,0.00032700999999999954,-0.0006592812000000001,0.007293044000000001,0.005345436,6.383,0,0
-0.00555312,0.004077082,0.0011317088000000002,0.007713678,0.003917102,6.384,0,0
-0.004475908,0.005745006,0.0024351128,0.0074087300000000005,0.0024867890000000005,6.385,0,0
-0.003139524,0.006097328000000001,0.0028855088000000004,0.006511302000000001,0.0007773370000000001,6.386,0,0
-0.0010292519999999998,0.0052950316,0.0032816840000000004,0.0054326606,-0.0004271290000000001,6.387,0,0
0.0008841239999999999,0.0037785016000000007,0.0032897140000000004,0.0039607206,-0.0007851726,6.388,0,0
0.00291735,0.0026459535999999997,0.0019043840000000007,0.0028996266,-0.0005605926,6.389,0,0
0.005205584,0.0017083456000000002,0.0006012210000000001,0.0026664766000000003,0.00043754039999999996,6.39,0,0
0.006016834,-0.0005129724,-0.00053809526,0.0018712078000000002,0.0015992063999999999,6.391,0,0
0.0049862666,-0.0006928160000000001,-0.00110435646,-0.00035797880000000017,0.0013517464000000004,6.392,0,0
0.0033410085999999997,-0.005404646,-0.00098255906,-0.0029883588000000003,5.891999999999963e-06,6.393,0,0
-0.0030469854000000005,-0.01619921,-0.0014493270600000002,-0.004429350800000001,-0.0008990280000000001,6.394,0,0
-0.0075314254,-0.017936026,-0.0009941740600000002,-0.0042757608,-0.0018497218000000002,6.395,0,0
-0.0056057834,-0.013683342,0.00041821419999999994,-0.0022437920000000005,-0.0023154318,6.396,0,0
-0.005754492000000001,-0.009978592000000001,0.0012710293999999998,0.001536186,-0.0003471818000000003,6.397,0,0
-0.004395244,-3.1520000000010567e-06,0.00236204,0.005591598000000001,0.0022258262000000003,6.398,0,0
0.0019981820000000003,0.012854228,0.004131028,0.007564498000000001,0.0031231542000000004,6.399,0,0
0.004055984,0.01580246,0.004065383999999999,0.007103768000000001,0.0030932380000000003,6.4,0,0
0.0005563971999999998,0.013082980000000001,0.0025713132000000005,0.004835702,0.0026299608000000005,6.401,0,0
0.0004523311999999999,0.010185046000000001,0.0011323432000000001,0.0013932420000000003,0.0008120868000000002,6.402,0,0
0.00043724519999999986,0.005546938600000001,-0.00038911680000000006,-0.00243097,-0.0016661252000000001,6.403,0,0
-0.0009204848000000001,0.0031297036000000004,-0.0012111248000000003,-0.006357238,-0.0030665431999999998,6.404,0,0
-0.000384896,0.0024197376,-0.0020571208000000002,-0.009302276000000002,-0.0042479212,6.405,0,0
0.0004882128000000001,0.0023167896000000003,-0.001811691,-0.012869622,-0.004640326,6.406,0,0
0.0012589728000000002,0.0014398575999999999,9.094699999999986e-05,-0.01595732,-0.004258832000000001,6.407,0,0
0.0015927048,-0.00014524699999999982,0.0005481276000000001,-0.014532222,-0.0044783719999999996,6.408,0,0
0.0022494868,-0.001016358,-6.613840000000012e-05,-0.01014819,-0.003993326,6.409,0,0
0.001981665,-0.002117374,0.0003287496000000001,-0.0053672500000000005,-0.0020832,6.41,0,0
0.0012266226000000001,-0.0029841179999999996,-0.0001247193999999999,0.0020551100000000006,0.0002655060000000004,6.411,0,0
0.0006479783999999998,-0.002798336,-0.0018378854000000002,0.01080337,0.0030780260000000006,6.412,0,0
-0.0005139776000000001,-0.0019044220000000002,-0.002162166,0.016090312000000002,0.007019670000000001,6.413,0,0
-0.0013383336,-0.0012960792,-0.0018964160000000002,0.018677060000000002,0.009980252000000002,6.414,0,0
-0.0016538886,-0.0010151201999999998,-0.002019672,0.01902336,0.010247254,6.415,0,0
-0.0017221814,-0.0004407782,-0.001086362,0.017023344000000003,0.008693074,6.416,0,0
-0.0017283734,1.1499800000000022e-05,-0.00024127999999999975,0.013208239400000002,0.006306963200000001,6.417,0,0
-0.0016162654000000001,5.212780000000007e-05,-0.00041021799999999995,0.007432379400000001,0.0024981912000000004,6.418,0,0
-0.000952814,0.000539383,-0.00024187999999999982,0.0008115194000000007,-0.0020708887999999997,6.419,0,0
-2.274800000000006e-05,0.001653126,0.0001296566000000002,-0.0049115606,-0.0048824428,6.42,0,0
0.0005627772,0.002281842,-0.0007362914,-0.0091931446,-0.0065426488,6.421,0,0
0.0010146714000000001,0.002429188,-0.0019122634000000001,-0.011933240000000001,-0.007930222,6.422,0,0
0.0015533408000000001,0.00276648,-0.0019578954000000004,-0.012902180000000001,-0.007550470000000001,6.423,0,0
0.0015277558,0.0022387124,-0.0021347254,-0.012295252000000001,-0.005795874,6.424,0,0
0.0008946388000000001,0.0010190632,-0.002773276,-0.010621522000000001,-0.00460505,6.425,0,0
9.667679999999997e-05,-5.95508e-05,-0.0027481062,-0.008954978,-0.0034788220000000003,6.426,0,0
-0.0005732432,-0.00062371,-0.001983386774,-0.0067533919999999996,-0.001178096,6.427,0,0
-0.0011026526000000002,-0.0008491580000000001,-0.0018167287740000003,-0.0039015879999999997,0.0015026599999999998,6.428,0,0
-0.001862977,-0.0013986924000000001,-0.002529924774,-0.0007487800000000001,0.003473998,6.429,0,0
-0.002295346,-0.0020314892,-0.003038256774,0.00248051,0.00540457,6.43,0,0
-0.002325194,-0.0023539992000000004,-0.003446320574,0.005647934,0.007151142,6.431,0,0
-0.002180488,-0.002034044,-0.004054,0.007507859999999999,0.007367594,6.432,0,0
-0.0015686580000000001,-0.001453536,-0.0036953318,0.007164695999999999,0.0062257039999999994,6.433,0,0
-0.0006825399999999999,-0.0006721442,-0.0019972137999999997,0.00605339,0.004390827799999999,6.434,0,0
0.00017234800000000006,0.0001880346,-0.0006786838000000001,0.0042716068,0.0019489258000000003,6.435,0,0
0.0007757420000000001,0.000664637,0.00024510419999999996,0.0019880388,-0.0010327362000000003,6.436,0,0
0.00102791,0.0010776190000000001,0.0016129922000000002,0.0005546716800000001,-0.0034781302000000004,6.437,0,0
0.0011162060000000002,0.001702935,0.0023532680000000004,0.00043845567999999997,-0.0049010762,6.438,0,0
0.00133895,0.0022134472000000004,0.002304968,0.0005698116799999999,-0.005792838000000001,6.439,0,0
0.0015843539999999998,0.0019053962000000002,0.0024795060000000002,0.0006241666799999999,-0.00588568,6.44,0,0
0.001781178,0.0009878658,0.002384012,0.00122263468,-0.004928478,6.441,0,0
0.0018543936000000002,-0.00022462820000000011,0.002096356,0.0018629858,-0.0036097608,6.442,0,0
0.0019097436,-0.0011897026,0.002624716,0.0017943898,-0.0024948827999999998,6.443,0,0
0.0018079936000000001,-0.0013148546,0.003263416,0.0015385238000000002,-0.0004464788,6.444,0,0
0.0012966814000000002,-0.0013025424,0.0032729379999999995,0.001963976,0.0021214252,6.445,0,0
0.0011418734000000002,-0.0007400064,0.003410748,0.0020491740000000004,0.0041221672000000004,6.446,0,0
0.0011486882000000002,0.0007401316000000001,0.0032605919999999992,0.001352958,0.0058605720000000005,6.447,0,0
0.0008833508,0.002211686,0.0021158018000000003,0.0004323259999999998,0.006822766000000001,6.448,0,0
0.0005996464,0.0019327010000000002,0.0010562674000000002,-0.001169304,0.006468018000000001,6.449,0,0
0.00039521939999999996,0.0005232430000000001,0.0009901734,-0.003055278,0.005418114000000001,6.45,0,0
0.0004699194,-0.00032427499999999995,0.0014527754,-0.004672296,0.003565342000000001,6.451,0,0
0.000431174,-0.0023391770000000004,0.0016547034000000001,-0.0056556340000000005,8.536000000000025e-05,6.452,0,0
-6.305860000000005e-05,-0.0053856830000000005,0.0019781936,-0.0062971880000000004,-0.0032546520000000002,6.453,0,0
-0.0006044642,-0.006640874000000001,0.0020611044000000004,-0.005674832,-0.006450624,6.454,0,0
-0.0015767710000000002,-0.005478174,0.0012363164,-0.005040524,-0.009135858,6.455,0,0
-0.0031299110000000004,-0.004642046,0.0007250164000000001,-0.006464372000000001,-0.009892442000000001,6.456,0,0
-0.0038261940000000006,-0.004332894,0.0008167944000000002,-0.00579773,-0.010063618000000003,6.457,0,0
-0.0039488480000000005,-0.0031678160000000004,0.0001635764000000001,-0.002493618,-0.009496126,6.458,0,0
-0.003950726,-0.0021610794000000003,-0.0004058219999999999,-0.0009165140000000004,-0.007326924000000001,6.459,0,0
-0.0028701778,-0.0015042474,-0.0001381739999999999,-2.2927400000000278e-05,-0.004541890000000001,6.46,0,0
-0.0016304788000000001,-5.594339999999984e-05,-0.000541573,0.0031432226000000004,-0.0018904280000000004,6.461,0,0
-0.0006976848000000001,0.0028988646000000003,-0.001363183,0.004740322600000001,0.0018300979999999998,6.462,0,0
0.0004360492000000001,0.0059110346,-0.0011244418,0.0035717846000000004,0.0052846,6.463,0,0
0.0012414392,0.008505512,-5.275780000000001e-05,0.0030711426,0.00745733,6.464,0,0
0.0011829786000000003,0.010534484,0.0004996682000000001,0.0030559688,0.008542965999999999,6.465,0,0
0.0014299236000000002,0.010017364,0.000636155,0.0031778967999999998,0.008560668,6.466,0,0
0.0024095096,0.007317097999999999,0.00100284,0.0041296128,0.008871098000000001,6.467,0,0
0.0021254936,0.005577572,0.0008839444,0.005905876800000001,0.008019992,6.468,0,0
0.0012660196,0.006564032,-2.5491600000000032e-05,0.0066603668,0.0054343740000000005,6.469,0,0
0.0019096900000000003,0.007811852,-0.0010318115999999999,0.006324006,0.0024721640000000002,6.47,0,0
0.002513474,0.00649314,-0.0015157194000000001,0.005485638000000001,-0.0011391180000000002,6.471,0,0
0.0014880440000000002,0.0033920859999999986,-0.0013357324000000002,0.0031110872000000003,-0.005428698000000001,6.472,0,0
0.0009836582000000002,-0.0007467480000000011,-0.000987117,-8.588080000000026e-05,-0.008085956,6.473,0,0
0.0011482102,-0.006550528000000002,-0.0004135027999999999,-0.0026000688000000004,-0.008556814,6.474,0,0
-0.00011158380000000001,-0.011863970000000001,0.0008870772000000001,-0.0043922788,-0.008265922,6.475,0,0
-0.0019622878000000003,-0.011670266,0.0015273772000000002,-0.0059710208,-0.0062063778,6.476,0,0
-0.0027189498000000003,-0.0076141820000000015,0.0008772912000000002,-0.00743518,-0.0027765698,6.477,0,0
-0.0023565702,-0.005341820000000001,0.00030007020000000006,-0.008942312000000001,0.0003033602000000002,6.478,0,0
-0.0013383082000000004,-0.00448061,-0.00034196199999999985,-0.009645202,0.0030103842000000006,6.479,0,0
0.00028636380000000004,-0.003377192,-0.000974926,-0.008994480000000001,0.005859570200000001,6.48,0,0
0.0019138538000000001,-0.002226048,-0.001069225,-0.0077386320000000005,0.008073346000000002,6.481,0,0
0.0026489738000000005,-0.0008713700000000004,-0.001063891,-0.006504500000000002,0.008232304000000001,6.482,0,0
0.0023390854000000004,0.00151595,-0.0007391804,-0.004719346000000001,0.007181262000000001,6.483,0,0
0.0020815634,0.002014956,-0.00016221000000000003,-0.00196502,0.00573264204,6.484,0,0
0.0009556174000000001,-0.0013402600000000002,3.8943199999999956e-05,0.00034206199999999997,0.0030099520400000005,6.485,0,0
-0.0017225086000000002,-0.0043073799999999995,0.0002837882,0.0016682240000000003,-0.0011694279600000003,6.486,0,0
-0.0028610086,-0.004573172,0.0008230042000000001,0.0027233540000000003,-0.0048055139600000005,6.487,0,0
-0.0018097100000000004,-0.004191027999999999,0.0010529812,0.004088604,-0.007406191960000001,6.488,0,0
-0.0008603820000000002,-0.0023568799999999996,0.0010516578,0.005534538,-0.009580872,6.489,0,0
0.00010657599999999972,0.0023107220000000003,0.000965792,0.007246874,-0.0086481386,6.49,0,0
0.0016628099999999998,0.004702510800000001,0.0007207318,0.009617296000000001,-0.004529358600000001,6.491,0,0
0.002115772,0.0033986038000000003,0.0002850588,0.011441104,-0.00021977860000000097,6.492,0,0
0.001725758,0.0021702638,0.00012511319999999995,0.011330917999999999,0.0034560954,6.493,0,0
0.0018156140000000001,0.0022693258000000003,0.0005569622,0.008316378000000001,0.0058554893999999994,6.494,0,0
0.002799026,0.0022418298,0.0005313424,0.004110933999999999,0.005803693800000001,6.495,0,0
0.00479187,-0.0003037790000000001,6.397459999999989e-05,0.0003449039999999997,0.0044700977999999995,6.496,0,0
0.005141333,-0.0031003820000000005,-0.00012745440000000007,-0.003020198,0.0039488978,6.497,0,0
0.002765849,-0.0033286662,-0.00046699040000000016,-0.0048072060000000005,0.0043206918,6.498,0,0
0.0007278670000000001,-0.0029098002000000006,-0.0010857494000000004,-0.0038269028,0.0054606658,6.499,0,0
-0.0002789369999999997,-0.0020705222000000005,-0.0012669280000000003,-0.0021677466,0.006234218,6.5,0,0
-0.002149265,0.0011020257999999998,-0.0011548,-0.0015812766,0.004684268000000001,6.501,0,0
-0.003127428,0.0039382292,-0.0012111880000000002,-0.0009706806000000002,0.0009252880000000002,6.502,0,0
-0.0013922963999999998,0.0028294594,-0.0009570352,-0.0008519606000000001,-0.00376656,6.503,0,0
-0.0010281838,0.0005657073999999998,-0.0011426942000000002,-0.0008430960600000001,-0.007971528,6.504,0,0
-0.0031019338,0.0006017393999999998,-0.0017329292,-0.0024179462600000005,-0.010456128,6.505,0,0
-0.0034059218,0.0017932633999999997,-0.0015171764,-0.0038649962599999997,-0.011065372,6.506,0,0
-0.0023233254000000004,0.002538578,-0.0012929104000000001,-0.0019667662600000003,-0.010324851999999999,6.507,0,0
-0.0029797470000000005,0.00437496,-0.0021455312,-0.0007670542600000001,-0.00823791,6.508,0,0
-0.0031842016,0.0052537082,-0.0029966132000000005,-0.0012933620000000002,-0.005313816600000001,6.509,0,0
-0.0023988596,0.0016248722000000004,-0.0032056372,-0.0006837220000000001,-0.0026736705999999997,6.51,0,0
-0.0038205616,-0.0008742497999999995,-0.0037768880000000004,-0.0009932979999999999,-0.0004497825999999998,6.511,0,0
-0.0040320239999999995,0.0005131722000000002,-0.0037774960000000004,-0.0036326180000000002,0.0020648814000000003,6.512,0,0
-0.0011125739999999999,0.0021355982000000008,-0.00232243,-0.0039877566000000005,0.0051826594,6.513,0,0
0.0019380500000000002,0.00012133000000000066,-0.0011655424000000002,-0.0025948866,0.007948666,6.514,0,0
0.0038444480000000003,-0.0041798899999999995,-0.0015085184,-0.0007435705999999998,0.009568422,6.515,0,0
0.00532827,-0.00435407,-0.0012594023999999999,0.0019904714000000003,0.010311102,6.516,0,0
0.006358740000000001,-0.0023360499999999992,-0.0001090644,0.003340279400000001,0.009413377,6.517,0,0
0.005258878,-0.0020506899999999995,-0.0002302004000000001,0.0033883680000000005,0.0061351489999999995,6.518,0,0
0.0026774004,0.0007043340000000005,-0.0003088,0.0025571198000000003,0.0021192769999999993,6.519,0,0
0.0013491544000000001,0.005922864000000001,0.00116226,0.0016894384000000003,-0.0012766350000000004,6.52,0,0
0.0010911523999999999,0.005532014000000001,0.001955014,0.0017209944000000001,-0.0036013070000000006,6.521,0,0
-0.0013144136000000002,0.000912198,0.001408768,0.0025063804,-0.004751710000000001,6.522,0,0
-0.003935105600000001,-0.0023513220000000003,0.001298134,0.0031835103999999998,-0.004982252,6.523,0,0
-0.004529592000000001,-0.0030169608,0.00135386158,0.0033162802,-0.004450946000000001,6.524,0,0
-0.004869984000000001,-0.0015979088000000002,0.00127421738,0.0025210036,-0.004029390000000001,6.525,0,0
-0.004794754,-0.000515653,0.0012478413800000002,0.0005689376,-0.003487622,6.526,0,0
-0.003407940000000001,-0.001422707,0.0013282513800000001,-0.0019207083999999998,-0.0021957540000000003,6.527,0,0
-0.002396652,-0.004015147,0.00129830938,-0.0038796824,-0.0005501859999999999,6.528,0,0
-0.00211998,-0.0038269142000000003,0.0013970698000000002,-0.0045594680000000005,0.001080512,6.529,0,0
-0.00047679800000000007,-0.0007709961999999991,0.001641432,-0.004560304,0.0031843920000000003,6.53,0,0
0.0012484520000000002,0.0007102820000000007,0.0013427498,-0.0038764639999999996,0.005022992,6.531,0,0
0.00197179,0.0020660604,0.0012499618,-0.0023737464000000005,0.0052934,6.532,0,0
0.0029393640000000007,0.005004112600000001,0.0017042378000000002,-0.0004901183999999999,0.0049766008,6.533,0,0
0.0027235700000000007,0.004267078600000001,0.0022398218,0.0013660756000000002,0.0038593226,6.534,0,0
0.0006318100000000003,0.0003766485999999999,0.0020745478,0.0029329116000000005,0.0010239025999999997,6.535,0,0
-0.00011262399999999992,-0.0010682202,0.001378644,0.004311399600000001,-0.0021368254000000003,6.536,0,0
-9.336399999999997e-05,-0.0008577206,0.0005915899999999999,0.005400694000000001,-0.0042918594000000004,6.537,0,0
-0.001346628,-0.0007361150000000001,-0.0003295480000000001,0.005971170000000001,-0.0060979562,6.538,0,0
-0.00155311,-0.00025238679999999995,-0.0010511818,0.0061793559999999996,-0.007306372,6.539,0,0
-0.0009573364,0.0005462882000000001,-0.0010805418,0.005971932,-0.00698662,6.54,0,0
-0.0020516364,0.0006846408000000001,-0.0001528258,0.0049533146,-0.00542924428,6.541,0,0
-0.0030671644,0.0008067968000000001,0.0008493341999999999,0.0032888686,-0.0037040078799999996,6.542,0,0
-0.0020336152,0.0008930138000000001,0.0016082362,0.0010406006,-0.00201709188,6.543,0,0
-0.0010847032,0.0007550248,0.002460032,-0.0012025154,0.0007417401200000002,6.544,0,0
-0.0008876077800000001,0.0014404298,0.003089114,-0.0028995234,0.0034668221200000004,6.545,0,0
5.7231820000000066e-05,0.003078556,0.002730106,-0.004430052,0.004701092400000001,6.546,0,0
0.00161025182,0.00335842,0.0020283223999999996,-0.00571198,0.006226176000000001,6.547,0,0
0.00308943662,0.0010815852,0.0022104704,-0.006316319999999999,0.007489624,6.548,0,0
0.004096354620000001,-0.0012258980000000004,0.0019097964000000002,-0.006471142,0.006389932,6.549,0,0
0.0046158676,-0.003051682,0.0001664863999999999,-0.00583665,0.0049466679999999996,6.55,0,0
0.0046181162,-0.005486640000000001,-0.0013223236,-0.00400646,0.003300958,6.551,0,0
0.0031837982000000003,-0.006808674000000001,-0.002117434,-0.0023869612000000004,0.0006101720000000002,6.552,0,0
0.0008567982,-0.0045246591999999995,-0.003015694,-0.0005136992000000001,-0.00220182,6.553,0,0
-0.0010027398000000002,-0.0013913972000000004,-0.0030300260000000003,-0.00023187720000000008,-0.003711066,6.554,0,0
-0.0024455738,-0.0006587651999999999,-0.00131261,-0.0021224772000000003,-0.004369388,6.555,0,0
-0.003398122,-0.0009734072,0.0006442660000000002,-0.0014974332,-0.004851662,6.556,0,0
-0.0034982240000000003,-0.0011347651999999999,0.001135058,0.0010187579999999998,-0.0037909714000000003,6.557,0,0
-0.003142098,-0.001751484,0.000500628,0.00242123,-0.0017458594000000003,6.558,0,0
-0.0024707074,-0.0024497364000000002,-0.000673806,0.00438934,0.00010426460000000017,6.559,0,0
-0.0010559433999999999,-0.0014776563999999999,-0.002162318,0.00684534,0.0013907666,6.56,0,0
0.0003630866000000001,0.0002633256,-0.0028677560000000004,0.0054695099999999995,0.0027374046,6.561,0,0
0.0013726226000000002,0.00098323,-0.002115016,0.0018916999999999996,0.002938834,6.562,0,0
0.0024486786000000003,0.001519698,-0.0009729800000000002,-0.0013926300000000004,0.0024487526,6.563,0,0
0.00330634,0.0025901024,-2.302000000000006e-05,-0.004254276,0.0016254893999999998,6.564,0,0
0.003480192,0.0035792844000000004,0.00086832,-0.005350378000000001,0.00011836940000000003,6.565,0,0
0.003152904,0.0044437744,0.0010298586,-0.004919782400000001,-0.0003056216000000001,6.566,0,0
0.0027653964,0.005231940000000001,0.000726095,-0.0031217684000000006,-0.00030706959999999997,6.567,0,0
0.0023204804,0.004766876000000001,0.0005084862,-0.0013043604000000002,-0.0008568062,6.568,0,0
0.0016433064000000001,0.002142754000000001,0.0006460042,8.27515999999999e-05,-0.001435421,6.569,0,0
0.0006753404,-0.0012669499999999995,0.0010394462,0.0014896636000000002,-0.001308373,6.57,0,0
-0.00035103960000000013,-0.0031980999999999997,0.0012770588000000002,0.002225412,-0.001767648,6.571,0,0
-0.0014829820000000003,-0.003613196,0.0011945068000000002,0.002299956,-0.0026516140000000005,6.572,0,0
-0.0030207360000000004,-0.003568226,0.0009366054,0.002509374,-0.002458242,6.573,0,0
-0.004607062,-0.0028175400000000003,0.0005572733999999999,0.0027095306,-0.0016912022000000002,6.574,0,0
-0.005239084,-0.0016335480000000003,-0.0001105542,0.0025701566000000003,-0.0011048812000000001,6.575,0,0
-0.004906996,-0.0011841632,-0.00046046860000000005,0.0024336406,-3.320720000000001e-05,6.576,0,0
-0.003916347640000001,-0.0011408252000000001,-0.0004340866000000001,0.0021272566000000003,0.0012856648,6.577,0,0
-0.00200881364,-0.0006113737999999999,-0.00041615360000000004,0.0017188474000000003,0.0015397736000000001,6.578,0,0
9.570436000000003e-05,0.00012013860000000001,-0.0009435336000000001,0.0007718748000000001,0.0012257678,6.579,0,0
0.00184565636,0.00021289059999999996,-0.0013589840000000001,-0.0014189291999999998,0.0006907068000000001,6.58,0,0
0.0032301003600000004,-0.0003057882,-0.0012167976000000001,-0.0036609772000000002,-0.0005173152,6.581,0,0
0.003928142000000001,-6.289020000000008e-05,-0.0010916720000000001,-0.0049632312,-0.0022005812,6.582,0,0
0.003683756,0.0013525444,-0.00042014480000000006,-0.005753524,-0.0032971680000000005,6.583,0,0
0.0029104016,0.003296284,0.00033573320000000013,-0.0049770218,-0.0033062860000000003,6.584,0,0
0.0021377746,0.0044888540000000005,0.0003168212000000001,-0.0019505358,-0.0024015040000000005,6.585,0,0
0.0017829166000000003,0.004566214000000001,3.5740000000000034e-05,0.0014885202000000002,-0.0008306660000000005,6.586,0,0
0.0013065786,0.005253738000000001,-5.3644799999999944e-05,0.004548050200000001,0.0017256419999999999,6.587,0,0
0.0003298486000000001,0.0056531160000000006,-0.0009746648,0.007794838200000001,0.004369164,6.588,0,0
-0.000297449,0.0036623554000000005,-0.0019972808,0.00967247,0.005661908,6.589,0,0
-0.001026888,0.0003794654000000004,-0.0016029696,0.008963944,0.0061341040000000005,6.59,0,0
-0.002259782,-0.0018429465999999996,-0.0009468116000000001,0.0069372456,0.005793378,6.591,0,0
-0.003030896,-0.0039367546,-0.0007136988000000001,0.0037137095999999993,0.0041924956,6.592,0,0
-0.0029377680000000003,-0.0068314606,6.184519999999995e-05,-0.0008870303999999999,0.0023021036,6.593,0,0
-0.00285623,-0.008251060000000001,0.0010331348,-0.0052270744,0.0007871016000000001,6.594,0,0
-0.002096796,-0.0067366200000000005,0.0010582900000000001,-0.008596066400000001,-0.0015027824,6.595,0,0
-0.0001079779999999999,-0.003958702000000001,0.0008304045999999999,-0.011261696,-0.0038634804,6.596,0,0
0.001594658,-0.0024616240000000004,0.0008383125999999999,-0.01233944,-0.004653548,6.597,0,0
0.00277083,-0.0007754800000000006,0.0006661886000000001,-0.011210908,-0.004900266,6.598,0,0
0.0036676,0.0008078946,0.0005843638,-0.008547173,-0.004894306,6.599,0,0
0.003804498,0.0005866746000000001,0.0009571554,-0.004409101,-0.0032661880000000006,6.6,0,0
0.002884828,0.00011972660000000011,0.0011631728000000001,0.0005275790000000007,-0.0007813919999999998,6.601,0,0
0.0017558152,8.740060000000005e-05,0.0009931828,0.0042136050000000005,0.0003167240000000001,6.602,0,0
0.0007493572,7.29906000000002e-05,0.0009604608000000001,0.005917971000000001,0.0010947227999999999,6.603,0,0
-0.0002982228000000001,0.0006744200000000002,0.0009586966000000001,0.004948336000000001,0.0027865848,6.604,0,0
-0.0011093008,0.002340982,0.0007468550000000002,0.0037018278000000003,0.0028340488000000003,6.605,0,0
-0.0019818368,0.002967658,0.0004046322,0.004423727800000001,0.0015273568,6.606,0,0
-0.0028218900000000005,0.0022817440000000005,-4.8527800000000034e-05,0.0045461918,0.0014978128000000001,6.607,0,0
-0.003332364000000001,0.0018747500000000001,-0.0010981458,0.0042738638,0.001127256,6.608,0,0
-0.003034086,0.00205368,-0.0023552824000000003,0.0054340398,-0.000545682,6.609,0,0
-0.0025267721999999997,0.002195966,-0.0027295548,0.005132124,-0.000720428,6.61,0,0
-0.0018308068,0.0026878,-0.002453134,0.0017071900000000004,-2.9734000000000038e-05,6.611,0,0
-0.00039398479999999995,0.0032502080000000005,-0.0021406704,-0.0007181040000000001,-0.000712616,6.612,0,0
0.000448616,0.002046478,-0.0012945804,-0.001984562,-0.00094503,6.613,0,0
0.0015025000000000001,0.0005076460000000005,-0.00014515640000000005,-0.003184558,-0.000676074,6.614,0,0
0.0034116602000000005,-0.0003238519999999999,-6.498240000000002e-05,-0.003324514,-0.0016202220000000002,6.615,0,0
0.004399372800000001,-0.001908972,-0.0003839398,-0.0029747560000000003,-0.002242862,6.616,0,0
0.0041822968000000006,-0.002848106,-0.00031223494,-0.0023298918000000004,-0.0016489532,6.617,0,0
0.0037263180000000006,-0.0020352432,-0.00035395434,-0.0015349546000000003,-0.0014142512000000001,6.618,0,0
0.0023492020000000003,-0.0018555772000000002,2.4395660000000046e-05,-0.0006911466600000001,-0.0018971132000000003,6.619,0,0
-3.146599999999985e-05,-0.0019575172000000003,0.0006428836600000001,-0.00014940026,-0.0017572772000000003,6.62,0,0
-0.001716778,-0.0012400553200000001,0.0005435906600000001,0.00111830374,-0.0011386062000000002,6.621,0,0
-0.002551726,-0.00033772732000000004,0.00018031220000000009,0.00278561154,-0.0008887370000000003,6.622,0,0
-0.002803272,0.00084225788,0.0004516916000000001,0.00360334434,0.00010177299999999966,6.623,0,0
-0.00251216,0.0023924978800000003,0.0006370936,0.0037492116,0.001834895,6.624,0,0
-0.0018698118000000001,0.0029954078800000002,0.00024793378000000007,0.0036818012,0.0032713430000000003,6.625,0,0
-0.0011977456,0.0021985880000000005,0.00046255798,0.0030236031999999998,0.004372732,6.626,0,0
-0.0005243316,0.0012638760000000004,0.0011842679800000001,0.0011411952,0.0048028,6.627,0,0
0.0004942184000000001,0.0004828360000000001,0.00141323198,-0.0008209228,0.003659662,6.628,0,0
0.0017041344,9.487200000000019e-05,0.0013675519800000003,-0.00259017,0.001436914,6.629,0,0
0.0024060522,-9.548599999999981e-05,0.001372245,-0.004403054,-0.00029330199999999984,6.63,0,0
0.002273298,9.87840000000002e-05,0.0008676932,-0.005400528000000001,-0.0020724,6.631,0,0
0.0013682700000000004,-1.5220000000000034e-06,-1.226479999999995e-05,-0.005230110800000001,-0.0038084939999999995,6.632,0,0
-4.965599999999992e-05,9.360000000000466e-07,-0.000413886,-0.003922418800000001,-0.003948592,6.633,0,0
-0.0013500020000000003,0.001063546,-0.0006563739999999999,-0.0014291168,-0.0022918139999999997,6.634,0,0
-0.0024397859999999998,0.0015662360000000001,-0.0006624011999999999,0.0013481552000000003,-0.0006263059999999999,6.635,0,0
-0.0027610459999999996,0.001657812,0.00015736679999999996,0.0031301612000000003,0.0006822760000000001,6.636,0,0
-0.0021409612000000003,0.001517876,0.0008889208,0.003982108,0.002505418,6.637,0,0
-0.0011551264000000002,-0.00016699800000000023,0.00031929599999999995,0.004263956,0.0037187420000000006,6.638,0,0
-0.0003930624000000001,-0.0028390280000000004,-0.000339334,0.0032553316000000004,0.0041057739999999995,6.639,0,0
-0.00014723680000000003,-0.004112236,-0.0003167182,0.0014467536000000003,0.0037971180000000004,6.64,0,0
-0.00029465280000000007,-0.0038789780000000004,-0.0009962142000000001,-0.0005945203999999999,0.0034235600000000004,6.641,0,0
-0.0005727156000000001,-0.0034326960000000003,-0.0017255322000000002,-0.0024111444,0.002610287,6.642,0,0
-0.0006743196000000001,-0.0027117320000000006,-0.0016840582000000003,-0.0041324264,0.001636345,6.643,0,0
-0.0009388232600000001,-0.002050818,-0.0015420142,-0.004774270000000001,0.0008200741999999998,6.644,0,0
-0.0007798006600000002,-0.0015572012000000003,-0.0015484316,-0.0042815940000000005,1.581219999999999e-05,6.645,0,0
1.5239340000000004e-05,-0.0013660148,-0.0009795256,-0.003962702,-0.0005376546,6.646,0,0
0.00086982134,-0.0012857022000000002,-0.00010615560000000007,-0.0029789826,-0.0017831696000000005,6.647,0,0
0.00154445254,-0.0008663696000000001,0.00038039326,-0.0020818026,-0.0028536316000000003,6.648,0,0
0.0021855162000000003,-0.0007697874,0.0009134272599999999,-0.0008833846000000001,-0.0045440448,6.649,0,0
0.0028207840000000002,-0.0003500322000000001,0.00127824086,-0.00014745459999999998,-0.0044923808,6.65,0,0
0.0023392712,0.0009571354,0.0006439328600000001,0.0018639114000000001,-0.005087602,6.651,0,0
0.0015493392,0.0025257348000000002,-0.0008924511399999999,0.003085992,-0.00827234,6.652,0,0
0.0006764391999999998,0.0036003922000000005,-0.001503716,0.0010569900000000003,-0.009492158,6.653,0,0
-0.0006157648,0.0026256260000000003,-0.0013433200000000003,0.0015785500000000002,-0.009797774,6.654,0,0
-0.0011196268000000001,0.0006882519999999999,-0.001218864,0.0036287660000000003,-0.009781409999999999,6.655,0,0
-0.000408568,0.0001607380000000001,-0.0002778120000000002,0.003330722,-0.006029851999999999,6.656,0,0
0.0004850420000000001,-0.00014936000000000007,0.0015312,0.00308209,0.0027442480000000008,6.657,0,0
0.0010011016,-0.000744796,0.0035700180000000003,0.005031576,0.010761308,6.658,0,0
0.001665966,0.0010853,0.004965918000000001,0.0040458568,0.01816807,6.659,0,0
0.0014950076,0.0037996820000000004,0.005145504,0.0012559388000000001,0.0236907,6.66,0,0
0.00031528360000000007,0.0036616640000000002,0.0041159280000000005,-0.0002905732,0.023876660000000004,6.661,0,0
-0.0022488104,0.002896424,0.0027179500000000002,-0.0016089412,0.020869012,6.662,0,0
-0.004343382000000001,0.002657839,0.0008610060000000004,-0.0016425572,0.014723208,6.663,0,0
-0.0043392832,0.0010354210000000003,-0.0014030320000000002,-0.0016100497999999997,0.006266687999999999,6.664,0,0
-0.0042523908,-0.001013411,-0.00271871,-0.0014879676,-0.003778572000000001,6.665,0,0
-0.0035597162,-0.002301321,-0.0031202420000000005,-0.0011751146,-0.012850852000000001,6.666,0,0
-0.0010827242000000003,-0.0036528390000000006,-0.0033724920000000004,-0.0002462745999999999,-0.020119664000000002,6.667,0,0
0.0015277778,-0.005015836,-0.003820586,0.0006083314000000001,-0.024770580000000004,6.668,0,0
0.0025652345999999998,-0.005331298,-0.004107786,0.0006804942000000001,-0.025180740000000004,6.669,0,0
0.0033596546,-0.004571134,-0.003659496,0.0008401288,-0.022493880000000004,6.67,0,0
0.003946594,-0.0031905780000000003,-0.0023671319999999997,0.0009208058000000001,-0.017302220000000004,6.671,0,0
0.003776774,-0.0013954999999999998,-0.0005853060000000001,0.0007027798,-0.010229092,6.672,0,0
0.003187828600000001,0.0006957379999999999,0.001481826,0.00021322559999999998,-0.002019851999999999,6.673,0,0
0.0020207330000000003,0.0020976913999999998,0.003481392,-0.0004049674,0.005630668,6.674,0,0
0.0006574249999999999,0.0024792684000000003,0.0048604,-0.0011258222,0.012208228,6.675,0,0
-0.0005749969999999999,0.0025078164,0.005725630000000001,-0.0017285802,0.017845048000000002,6.676,0,0
-0.001212435,0.0023449444,0.005398586,-0.0023230082,0.02076406,6.677,0,0
-0.0017109876000000002,0.0019434424000000002,0.003774576,-0.002414012,0.02014142,6.678,0,0
-0.002071106,0.0020190610000000004,0.0020146340000000004,-0.0015294659999999997,0.017287748000000002,6.679,0,0
-0.0018714019999999999,0.0021807460000000003,5.756200000000015e-05,0.00019405400000000014,0.0126495248,6.68,0,0
-0.0013862072000000003,0.0019192460000000003,-0.002222874,0.0020745560000000004,0.0053289448,6.681,0,0
-0.0008435631999999999,0.0017446800000000002,-0.0036611420000000005,0.003372252,-0.0023620752,6.682,0,0
-0.00019579320000000006,0.0018354060000000001,-0.004461292,0.004046734,-0.008844295200000001,6.683,0,0
0.00037596120000000003,0.002047208,-0.005375431999999999,0.003911406,-0.014715283200000002,6.684,0,0
0.0006034022140000001,0.001018878,-0.005457324,0.0027887024,-0.01842656,6.685,0,0
0.0012313354140000001,-0.0006339460000000001,-0.004709522000000001,0.0012005624,-0.019028460000000004,6.686,0,0
0.0016295174140000001,-0.0031777120000000005,-0.0035380666,5.390439999999991e-05,-0.017307850000000003,6.687,0,0
0.001407167414,-0.0065364,-0.0014199626000000005,-0.0008818216000000001,-0.01333163,6.688,0,0
0.000957005014,-0.006813614400000001,0.0009084654,-0.0015798956,-0.007192712000000001,6.689,0,0
-0.00032707800000000007,-0.0031563224,0.0024755194,-0.001845124,-0.00020139200000000032,6.69,0,0
-0.001890604,0.0008763995999999997,0.0033955254,-0.0021223500000000003,0.006539948,6.691,0,0
-0.0028144019999999997,0.0037955996000000004,0.0037277899999999995,-0.002522676,0.012286278000000001,6.692,0,0
-0.003226996,0.0061275336,0.003734624,-0.00289825,0.016030598,6.693,0,0
-0.00374995,0.005368708,0.0034888500000000004,-0.003174196,0.01669044,6.694,0,0
-0.003549158,0.00092194,0.0029225658,-0.0033426380000000006,0.014497995999999999,6.695,0,0
-0.002940166,-0.003308964,0.0022683798200000002,-0.0031751640000000003,0.01017244,6.696,0,0
-0.0031523320000000003,-0.004227003,0.0011699698200000003,-0.003048966,0.00397738,6.697,0,0
-0.003034228,-0.0034696346000000003,-0.0007296481800000001,-0.0025657540000000004,-0.00300678,6.698,0,0
-0.0016294139999999998,-0.0028382514,-0.00258003218,-0.0017946690882,-0.008733600000000001,6.699,0,0
0.0005388020000000001,-0.0014980294,-0.00394254998,-0.00021768908820000011,-0.012690056000000002,6.7,0,0
0.002085124,-0.0009882734000000002,-0.0048595140000000005,0.0018497049118,-0.013788552,6.701,0,0
0.003272248,-0.0024296824,-0.004046430000000001,0.0014475509117999998,-0.0115872316,6.702,0,0
0.004344454,-0.0040208388,-0.002123586,0.0005702589117999998,-0.0090707676,6.703,0,0
0.004571263999999999,-0.004549874,-0.0004822419999999998,0.0017205419999999998,-0.0062521116,6.704,0,0
0.004117452,-0.0038177719999999997,0.001316594,0.002245348,-0.0013678916000000004,6.705,0,0
0.0035643260000000005,-0.0017458940000000004,0.0025796360000000006,0.002135962,0.0040589004,6.706,0,0
0.0036396460000000003,0.002156114,0.002680528,0.004161522,0.008756400000000001,6.707,0,0
0.003582334,0.006785648,0.002853238,0.005770488000000001,0.013958576,6.708,0,0
0.003022976,0.009970326,0.003584648,0.00462688274,0.018647200000000003,6.709,0,0
0.0022573890000000003,0.01073278,0.003929940000000001,0.0024163647400000004,0.02017102,6.71,0,0
0.0012694289999999999,0.009129520000000002,0.003996206,-3.895725999999988e-05,0.0177503,6.711,0,0
-0.00027415500000000005,0.0063177400000000005,0.0035237370000000003,-0.0018673472600000004,0.013130600000000001,6.712,0,0
-0.002121735,0.0023292860000000003,0.001556815,-0.0028686672600000004,0.007684616,6.713,0,0
-0.0033427250000000004,-0.0019814220000000005,-0.0010155230000000004,-0.0032045140000000003,0.0007324559999999998,6.714,0,0
-0.0038378880000000007,-0.004371392,-0.0029369770000000003,-0.0025058418000000002,-0.005829844000000001,6.715,0,0
-0.0034974396000000004,-0.004625216,-0.004185595,-0.0011648418,-0.010341264000000001,6.716,0,0
-0.0024924016,-0.004895584,-0.005165752,-6.140179999999994e-05,-0.013768644,6.717,0,0
-0.0010819456000000002,-0.005128080000000001,-0.00503185,0.0006458060000000001,-0.01532284,6.718,0,0
0.0001786463999999999,-0.004146652000000001,-0.00344257,0.001036304,-0.014447540000000004,6.719,0,0
0.0009043382,-0.003278114000000001,-0.002103706,0.0010785852,-0.012399608000000003,6.72,0,0
0.0007712684,-0.0027833160000000005,-0.0011901916,0.0007554692000000001,-0.009279914,6.721,0,0
0.0002912444,-0.0024593220000000003,0.0006089004000000001,0.00015415719999999997,-0.005334054000000002,6.722,0,0
5.169599999999975e-06,-0.0017451800000000003,0.0023174664000000004,-0.0005456606,-0.0013916779999999997,6.723,0,0
-0.0003857274,-0.00011550800000000006,0.0026240444,-0.0011552685999999999,0.002355298,6.724,0,0
-0.0008435552,0.0018616459999999998,0.002833952400000001,-0.001640688,0.005407518,6.725,0,0
-0.0014936718,0.0038419079999999998,0.0034954960000000007,-0.002241996,0.007894864000000001,6.726,0,0
-0.0016782278,0.006109732,0.003091946,-0.002317844,0.009378768000000001,6.727,0,0
-0.001707823,0.007524786,0.0023281219999999997,-0.001344216,0.008772056,6.728,0,0
-0.00191522,0.0066507138,0.0019107336000000004,-6.679999999999902e-06,0.0069380852,6.729,0,0
-0.0015780392,0.0048822374,0.00047575760000000003,0.0011694980000000002,0.003976535200000001,6.73,0,0
-0.0008214642000000001,0.0030110936000000005,-0.0012173964,0.0024399820000000003,-0.0005524647999999995,6.731,0,0
-0.00014184820000000004,0.0012169582000000003,-0.0022527364,0.0032612780000000007,-0.0049490888,6.732,0,0
0.0007968438,0.0002020276,-0.0030461584,0.0032280620000000003,-0.0080427128,6.733,0,0
0.0021281098,-0.0003828702,-0.0033612408,0.0029063540000000003,-0.010240618,6.734,0,0
0.002915211,-0.0015230298000000002,-0.0028841267999999997,0.0023673420000000006,-0.011098892,6.735,0,0
0.0035058920000000005,-0.003733852,-0.0023507988,0.0016800476,-0.009908183999999999,6.736,0,0
0.003667398,-0.0052711846,-0.0022128688,0.0013445926,-0.00749812664,6.737,0,0
0.0030412560000000004,-0.005157372,-0.0022454308000000004,0.0008713446000000001,-0.00466139464,6.738,0,0
0.002412046,-0.0047770648,-0.0021542778000000003,-2.9739399999999954e-05,-0.00113572464,6.739,0,0
0.00166639674,-0.0036463591999999997,-0.0012364858000000001,-0.0008951234,0.00296808736,6.74,0,0
0.0009645279400000001,-0.0011323772,0.00022377219999999986,-0.001358889,0.00629807936,6.741,0,0
1.4709939999999941e-05,0.00032705780000000007,0.0020413422,-0.0019768880000000004,0.008528662000000001,6.742,0,0
-0.0013553500600000002,-0.00010072239999999999,0.0035218442,-0.002561112,0.010057666000000002,6.743,0,0
-0.00234850406,-0.00018363039999999995,0.0038095880000000005,-0.0024326039999999997,0.009944488,6.744,0,0
-0.00252919,0.00010411200000000006,0.0034840620000000004,-0.0019753582,0.008004246000000001,6.745,0,0
-0.0024356210000000007,0.0007092460000000001,0.0025711172000000004,-0.0012307222000000001,0.0051507060000000006,6.746,0,0
-0.002182471,0.002242209,0.0010807332000000005,-0.0005639722000000001,0.001775522,6.747,0,0
-0.0012912518,0.004104119200000001,-0.0002741768,0.00036703180000000003,-0.0019048420000000001,6.748,0,0
-0.0005488934000000001,0.0051346099999999995,-0.0008374928000000001,0.0007988942,-0.005098694000000001,6.749,0,0
-4.506220000000008e-05,0.004578384,-0.0014065328,0.0010638744000000002,-0.007647892000000002,6.75,0,0
0.00034850960000000004,0.0026423620000000005,-0.0018484300000000003,-0.0005809095999999999,-0.008452572000000002,6.751,0,0
0.0005600926000000001,-0.001276698,-0.0009558719999999999,-0.0035395536,-0.007625530000000001,6.752,0,0
0.0008109482,-0.0054232360000000005,-0.00015134199999999995,-0.0032386816000000004,-0.006843546000000001,6.753,0,0
0.00042374780000000004,-0.007544026000000001,-0.000213304,-0.0023534420000000007,-0.0047152238,6.754,0,0
-0.0004864582,-0.007570770000000001,0.00032454060000000005,-0.0025941210000000004,-0.0010544258000000004,6.755,0,0
-0.00078133164,-0.005842664000000001,0.0009102426,-0.0010986138000000003,0.0021729942,6.756,0,0
-0.00053706464,-0.0030067720000000004,3.1854599999999985e-05,0.0014189526,0.0048875362000000006,6.757,0,0
-0.00059775404,-1.1659999999999275e-06,-0.00031164540000000007,0.000844995,0.0077875922,6.758,0,0
-0.0004961432400000001,0.0017875880000000003,0.0005449046,-0.000781735,0.00950222,6.759,0,0
-0.0003950492400000001,0.0022058012000000004,0.000588724,-0.001404958,0.009261476,6.76,0,0
-0.0009426898000000001,0.0022497752000000004,0.000310214,-0.0022635652,0.007291883000000001,6.761,0,0
-0.0016322018,0.0022633852,0.000499417,-0.0026105276,0.004159733,6.762,0,0
-0.0022342512,0.0022357452000000004,0.00035635180000000003,-0.0023563521999999996,0.0011107029999999998,6.763,0,0
-0.0021381234,0.0022245292000000003,-0.0008115962,-0.0011022141999999999,-0.0019184389999999999,6.764,0,0
-0.0009913474000000002,0.0017991660000000005,-0.0018098842000000002,0.00046280980000000006,-0.004610373,6.765,0,0
0.0003584125999999999,0.0007229739999999999,-0.0019570224000000002,0.0018002138,-0.0065902980000000005,6.766,0,0
0.0016861086,-0.000402494,-0.0023017674,0.0029516538,-0.007871348,6.767,0,0
0.0031533306000000004,-0.001530782,-0.0024950342,0.003552932,-0.008474764000000001,6.768,0,0
0.0037397680000000005,-0.0023897579999999996,-0.0016900834000000001,0.0034885339999999997,-0.008352252,6.769,0,0
0.003438394,-0.001477964,-0.0007524354,0.0030732619999999998,-0.007024764199999999,6.77,0,0
0.003056472,0.00014174800000000013,-0.00021277920000000003,0.00273714,-0.0047434102,6.771,0,0
0.0026272520000000005,0.0008555874,0.0007204668,0.002414688,-0.0015835921999999998,6.772,0,0
0.0024148900000000003,0.0007418894,0.0016200308,0.002066084,0.0025497018,6.773,0,0
0.0021098492,0.00044577940000000034,0.0022019120000000003,0.002010972,0.0063067218,6.774,0,0
0.0013650992,-0.0004667365999999998,0.002800584,0.0017419796000000003,0.009173934,6.775,0,0
0.00042163120000000007,-0.0014580552,0.003310258,0.0010230076,0.011371038,6.776,0,0
-0.0008429848,-0.0007589766,0.0037873340000000003,0.00020222159999999992,0.011741074,6.777,0,0
-0.0023318648,0.00044476339999999985,0.00362663,-0.0011659484000000001,0.009462903200000003,6.778,0,0
-0.003405846,0.0017825154,0.0026903200000000004,-0.0023925084,0.0063451352,6.779,0,0
-0.00404281,0.0037306034,0.001229178,-0.002323602,0.0031906891999999997,6.78,0,0
-0.003788628,0.006197048,-0.0010160959999999998,-0.0017782607999999999,-0.0006033668000000001,6.781,0,0
-0.0029136258,0.007680836,-0.0031285520000000006,-0.0014604588000000003,-0.0032227168,6.782,0,0
-0.0025611938,0.00802427,-0.003879658,-0.00048781400000000004,-0.0043591,6.783,0,0
-0.0020193658000000002,0.006740450000000001,-0.004013584000000001,0.00027191300000000004,-0.005470228000000001,6.784,0,0
-0.0011348634,0.00127824,-0.0035849780000000004,-0.00020195700000000006,-0.006328028,6.785,0,0
-0.0011392414000000002,-0.005711580000000001,-0.001714204,-0.0003017204000000001,-0.005725492,6.786,0,0
-0.0012162041999999999,-0.009561690000000001,-0.00043034659999999984,0.0004800976,-0.004659385,6.787,0,0
-0.00047428420000000007,-0.010849518000000002,-0.00022589619999999997,0.0006163354,-0.003822845,6.788,0,0
-0.0002420556,-0.010822052000000002,0.0009826198,0.0003476064,-0.0014633850000000002,6.789,0,0
-0.00017381040000000002,-0.007225176000000001,0.0018659258,0.0007370598,0.0016199250000000004,6.79,0,0
0.0006161135999999999,-0.0028110903999999997,0.0017172598000000001,0.0007041456000000001,0.0037873790000000004,6.791,0,0
0.0012681182,-0.0006552144000000002,0.0020749764,-2.7325199999999987e-05,0.005616278000000001,6.792,0,0
0.0014117642,0.0008734616,0.002010818,-6.648920000000002e-05,0.007415002,6.793,0,0
0.0017111062,0.0017015136000000002,0.0007112259999999999,0.000294713,0.007234252,6.794,0,0
0.0019248652,0.0017898806,-0.00050911,-0.00017764440000000008,0.004986794,6.795,0,0
0.0015659934,0.001971985,-0.001152744,-0.0010117980000000002,0.0022503759999999997,6.796,0,0
0.0012264254,0.0015672304,-0.0014965854,-0.0011815892,-0.0017236340000000001,6.797,0,0
0.000985849,0.0007617124,-0.0010733058,-0.0019932278,-0.0058772040000000005,6.798,0,0
0.0008993769999999999,0.0013999823999999998,-0.0002247598000000001,-0.002712874,-0.00833767,6.799,0,0
0.0009858104,0.0029038754,0.0006794442,-0.0025734959999999998,-0.008810654000000001,6.8,0,0
0.0009186346,0.0030670294000000003,0.0010797102,-0.003479666,-0.008076438,6.801,0,0
0.0007679764,0.0021916,0.00045325359999999997,-0.003247338,-0.006880994000000001,6.802,0,0
0.0008320228,0.0020108355999999997,-0.000699758,-0.00022163200000000025,-0.004461132800000001,6.803,0,0
0.0009370822000000001,0.0017313956,-0.002188928,0.0021477400000000004,-0.0015952707999999998,6.804,0,0
0.000637007,0.000315947,-0.0031661680000000005,0.00339365,0.0002404852000000002,6.805,0,0
0.0001191966,-0.000940769,-0.0031319470000000004,0.005650367999999999,0.0020446372000000003,6.806,0,0
-0.0003057632,-0.0018505390000000002,-0.0014709070000000002,0.0057968136,0.0045735172,6.807,0,0
-0.0006828989999999999,-0.0033588526000000005,0.001217613,0.0034124736000000003,0.006127442000000001,6.808,0,0
-0.0009839014,-0.004211640600000001,0.003208019,0.00162544688,0.006512690000000001,6.809,0,0
-0.000856172,-0.0038882620000000004,0.004291997,0.0004250078800000001,0.006356716,6.81,0,0
-0.00040955660000000004,-0.0029676398000000005,0.00418805,-0.00037752012000000007,0.0050883586000000005,6.811,0,0
-4.597859999999999e-05,-0.0010161478000000003,0.0029341442,-0.00045173452000000006,0.0034338610000000003,6.812,0,0
0.000120996,0.0012266681999999998,0.0011577448,-7.461252000000003e-05,0.001769297,6.813,0,0
1.3103599999999974e-05,0.0028119162000000003,-0.00021242120000000003,0.00011550259999999995,-0.0004164910000000001,6.814,0,0
-0.000221558,0.0039442182,-0.0012322652000000003,0.00030483859999999997,-0.002482465,6.815,0,0
-0.00018889580000000002,0.004515552,-0.0018209652000000002,0.0005884888,-0.0040596516,6.816,0,0
-0.00015488940000000004,0.004001995,-0.0020947234000000003,0.0008272036,-0.005540930000000001,6.817,0,0
-0.0004321602,0.0022493749999999996,-0.0020883760000000003,0.0006589062000000001,-0.006810382,6.818,0,0
-0.0006820494,0.0001332490000000001,-0.000939348,0.00011783180000000005,-0.006828872,6.819,0,0
-0.0006123708,-0.0010517724,0.00014160200000000006,-0.00022920119999999996,-0.00544696548,6.82,0,0
-0.00019326639999999996,-0.0020525383999999997,0.00108487,-0.000129291,-0.00400551848,6.821,0,0
0.00013330920000000003,-0.0027376294000000002,0.0025169859999999997,-0.00017252119999999998,-0.00221140448,6.822,0,0
0.000542453,-0.0011072914,0.003605386,-0.0002990321999999999,0.0004361895199999999,6.823,0,0
0.0008755977999999999,0.0012857426,0.004051236,-0.0001321294,0.00279531752,6.824,0,0
0.0004591406000000001,0.0025133819999999998,0.004058122,-0.0001832754,0.004452291000000001,6.825,0,0
-0.0005530134,0.004036672,0.0034603666,-0.0005145810000000001,0.005878602,6.826,0,0
-0.0014394054,0.004627722000000001,0.0021632266,-0.0008015316000000001,0.00652258,6.827,0,0
-0.0017412153999999999,0.0030152540000000006,0.0007356545999999997,-0.0009667226,0.005541631,6.828,0,0
-0.0018547542,0.0006253699999999999,-0.0004345924000000001,-0.0011609494,0.0038487630000000003,6.829,0,0
-0.0014344498000000002,-0.0013048120000000002,-0.0018332744000000003,-0.0010037714,0.0019029990000000003,6.83,0,0
-0.0004670598,-0.0024361588000000006,-0.0036220370000000003,-0.0007000120000000001,-0.0004082649999999998,6.831,0,0
0.0002804362,-0.0043350848,-0.004380703,-0.0008223411999999999,-0.001921909,6.832,0,0
0.0006597263999999999,-0.006433776800000001,-0.004170330000000001,-0.0011698678,-0.002619212,6.833,0,0
0.0010416238,-0.0071662388,-0.0044150330000000005,-0.0009826764,-0.003211276,6.834,0,0
0.0012051540000000002,-0.007431886800000001,-0.004192061,-0.0008453422000000001,-0.0035556399999999997,6.835,0,0
0.0009604306000000001,-0.007212768000000001,-0.0027060590000000002,-0.0012410784000000002,-0.003135488,6.836,0,0
0.0010396386,-0.004834270200000001,-0.001987169,-0.0013204164000000002,-0.0025195804,6.837,0,0
0.0014138246,-0.0016603527999999998,-0.0021421580000000003,-0.0011740184,-0.0019313324,6.838,0,0
0.0019851292,0.0006922752,-0.0018728716000000001,-0.0009214987999999999,-0.00032784640000000015,6.839,0,0
0.0024481666,0.0024313852000000004,-0.0014470476000000001,-0.000399641,0.0016443616000000002,6.84,0,0
0.0024240766,0.0031927431999999997,-0.0009078878000000002,-5.798580000000001e-05,0.0029802736,6.841,0,0
0.0020496446000000004,0.0038326334,0.00019292219999999985,0.0005710882,0.0039060960000000004,6.842,0,0
0.0013053178,0.004185408,0.0017111822000000002,0.0014695742,0.004650420000000001,6.843,0,0
0.0003933040000000001,0.003856398,0.0024373418000000003,0.0015132046000000002,0.0038448052000000003,6.844,0,0
-0.000795268,0.004042068,0.002862501,0.0011659152,0.0022282272000000007,6.845,0,0
-0.0017772606000000001,0.00556807,0.0028332888000000005,0.0014870580000000003,0.0012371872,6.846,0,0
-0.0020802066,0.008854122,0.0010420588,0.0017603660000000002,7.029919999999997e-05,6.847,0,0
-0.0019911940000000004,0.011294710000000001,-0.0013033031999999999,0.0013466492,-0.0013182808,6.848,0,0
-0.0016819556000000002,0.009734162000000001,-0.0028397891999999997,0.0015568998,-0.002384724,6.849,0,0
-0.0013313216000000003,0.005632466000000001,-0.0032153843999999997,-0.0001817648000000001,-0.0018683939999999996,6.85,0,0
-0.0005339356,0.0006172259999999998,-0.002754072,-0.0034644908,-0.0017341662,6.851,0,0
0.00010125440000000006,-0.005926694000000001,-0.002006089,-0.0040113928,-0.0032845141999999997,6.852,0,0
-0.00016534139999999998,-0.011685194,-0.00040916900000000013,-0.003809940000000001,-0.0038821502,6.853,0,0
-0.0006029540000000001,-0.012567412,0.001469685,-0.0044091700000000005,-0.0038504802,6.854,0,0
-5.1958000000000006e-05,-0.009914824000000001,0.002049523,-0.002744458,-0.0047839402000000005,6.855,0,0
0.0008232720000000001,-0.0065678460000000004,0.002176729,7.294820000000001e-05,-0.004361396,6.856,0,0
0.000822616,-0.0028010860000000004,0.0024965314,5.9918700000000006e-05,-0.0016612399999999998,6.857,0,0
0.00114256824,0.00034724999999999974,0.0017044653999999998,-8.42130000000004e-06,0.000983932,6.858,0,0
0.00153560364,0.001807842,0.0005390706,0.0007830186999999999,0.003673474,6.859,0,0
0.00088365964,0.001732632,0.0011022446000000003,0.0012370966999999998,0.005920702,6.86,0,0
-0.00074987836,0.0009989337999999999,0.0015392086,0.0021033985,0.006599866,6.861,0,0
-0.00206808036,0.00014688579999999998,0.0008848312,0.002840752,0.006088938,6.862,0,0
-0.0025647846000000003,-0.0002867738000000001,0.0013179136000000002,0.0034628159999999996,0.004442354,6.863,0,0
-0.0030023600000000004,-0.0004934358,0.0016252602000000004,0.0036477379999999998,0.0018152260000000003,6.864,0,0
-0.00292146,-0.0007817818000000001,0.0007470196000000001,0.0034340900000000003,-0.000929022,6.865,0,0
-0.0021777896,-0.0010405232,0.0005582076000000001,0.0027819882,-0.0031652060000000003,6.866,0,0
-0.0010013736,-0.0011350052,0.0009769806,0.0018620094000000001,-0.004929712,6.867,0,0
-3.934360000000005e-05,4.28843999999999e-05,0.00023972019999999976,0.0006176254,-0.006081418000000001,6.868,0,0
0.0007999084,0.0018861504000000002,6.55713999999999e-05,-0.0006352386,-0.005599656,6.869,0,0
0.0015463404,0.0038249424000000006,0.00012157699999999983,-0.0013433746000000002,-0.00377847,6.87,0,0
0.0016530724000000001,0.005791160000000001,-0.0011875650000000002,-0.0019082948000000003,-0.0017310239999999998,6.871,0,0
0.0014792704000000001,0.006883058000000001,-0.0011159730000000001,-0.002021694,0.001004094,6.872,0,0
0.0011969624000000003,0.0071318860000000005,-0.000224625,-0.0015781738,0.0036476260000000006,6.873,0,0
0.0011767424,0.005219296000000002,-0.0004909900000000001,-0.0012524058000000001,0.004747010000000001,6.874,0,0
0.0012881224000000002,0.0014624920000000006,-0.0007231450000000001,-0.0013551537999999998,0.004785358,6.875,0,0
0.0011018846,-0.001232012,-0.00017639520000000002,-0.0015688638,0.004956576000000001,6.876,0,0
0.00043922060000000014,-0.003018574,-0.0004492102,-0.0014856924,0.004460516,6.877,0,0
-0.0005573773999999998,-0.004614446,-0.0010664382,-0.0012848106,0.0029706280000000003,6.878,0,0
-0.0012407434,-0.0039954764000000005,-0.000699739,-0.0010871256,0.0018933940000000003,6.879,0,0
-0.0020367374,-0.0021506104,-0.0007530314000000001,-0.0003500414000000001,0.000798484,6.88,0,0
-0.0024958460000000003,-0.0013915326000000002,-0.0014808132000000002,0.0007686606,-0.0010157360000000002,6.881,0,0
-0.0018528934000000001,-0.0008263206000000002,-0.0018140732000000003,0.0012472812000000001,-0.002408552,6.882,0,0
-0.0009617894000000002,-0.0004711414,-0.0013242776,0.0012122012,-0.00290667,6.883,0,0
-0.0005258134000000001,-0.000600231,-0.0008066727999999999,0.0015752762,-0.003580158,6.884,0,0
0.00016402859999999992,-0.000372969,-0.0002549303999999999,0.0016693900000000002,-0.004077278,6.885,0,0
0.0014567166,-1.3970799999999978e-05,0.0007692076,0.0012403452,-0.0034479896,6.886,0,0
0.002186538,7.176119999999995e-05,0.0017665596000000002,0.0008565176,-0.0029887508,6.887,0,0
0.002642966,0.00097503,0.001953458,7.690759999999996e-05,-0.0030889128,6.888,0,0
0.003115754,0.003627616,0.0017547560000000001,-0.0004999384,-0.0024927148000000003,6.889,0,0
0.00301205,0.007399608,0.001764472,-0.0007682334,-0.0012144128,6.89,0,0
0.001993572,0.00749821,0.0016911819999999998,-0.0007556862000000001,-0.0002495592000000002,6.891,0,0
0.0008505419999999999,0.0023855400000000002,0.0020830840000000002,-0.00022270460000000004,0.001300556,6.892,0,0
0.00044439300000000007,-0.00211469,0.002052604,0.0005991994,0.0038921100000000003,6.893,0,0
-3.939700000000004e-05,-0.00499424,0.0008295220000000002,0.0015765794000000002,0.005392666000000001,6.894,0,0
-0.00017525300000000016,-0.0084186794,-0.0005498359999999998,0.0022627204000000003,0.0058062,6.895,0,0
0.000405117,-0.008792941039999998,-0.001927262,0.0030067740000000003,0.005369720000000001,6.896,0,0
0.0007454606,-0.0032807910399999993,-0.0030323979999999995,0.00279709,0.0035753520000000004,6.897,0,0
0.0007478996,0.0019006469600000003,-0.0022989119999999997,0.0024895994,0.0008077220000000001,6.898,0,0
0.00034827579999999994,0.0023626369600000005,-0.0006169639999999996,0.0013966474000000001,-0.00013718360000000002,6.899,0,0
-0.0007669342,0.0005008683600000003,0.00020080800000000007,-0.0020196266000000003,0.00041753640000000006,6.9,0,0
-0.0014632802,-0.0008845559999999997,0.000500858,-0.0043226126,-0.0009463815999999999,6.901,0,0
-0.0013010258,-0.001376586,-0.0006530220000000002,-0.0048099506,-0.0023091116,6.902,0,0
-0.0012066978000000001,-0.00220711,-0.0023139080000000004,-0.00570817,-0.0023945295999999996,6.903,0,0
-0.0008338162000000001,-0.0018252499999999996,-0.0016218520000000002,-0.005831778,-0.00350334,6.904,0,0
-0.00030131220000000005,-0.0003027859999999999,0.0003521139999999995,-0.0037651480000000003,-0.0054855519999999994,6.905,0,0
-0.0002649402000000001,0.0006810500000000001,0.0020667619999999998,-0.003023622,-0.004822516,6.906,0,0
-0.00025914060000000003,0.0012963420000000002,0.004298372,-0.0032343239999999994,-0.0031346663999999996,6.907,0,0
-0.00027580660000000006,0.00208092,0.005425144,-0.0022232504,-0.00219388,6.908,0,0
-0.0008282204000000001,0.0039241400000000004,0.00400564,-0.0010919623999999998,-0.00035048799999999993,6.909,0,0
-0.0015662664,0.005345484,0.0023936637999999997,0.0006267536000000002,0.001409756,6.91,0,0
-0.0021402904,0.003116724,0.0016483638,0.0029358756000000003,0.0027200699999999998,6.911,0,0
-0.0029079360000000003,-0.001153828,0.0008777689999999999,0.0051510456,0.0037439424000000002,6.912,0,0
-0.003465488,-0.0036708580000000004,0.00016481099999999995,0.006509282,0.004474404,6.913,0,0
-0.0029080716,-0.005344056000000001,-0.00034604499999999996,0.006708268,0.004240324,6.914,0,0
-0.0014935456,-0.005629190000000001,-0.0012147348000000001,0.00608123,0.0032756544,6.915,0,0
8.463640000000005e-05,-0.002287476,-0.0019263188,0.005135546,0.0021840389999999996,6.916,0,0
0.0015574764,0.001534296,-0.002733706,0.003945636000000001,0.0008602189999999997,6.917,0,0
0.0024322124,0.002275983,-0.0029761139999999998,0.0024354140000000003,-0.00029921700000000017,6.918,0,0
0.0027855600000000003,0.0005032609999999999,-0.00183141,0.001158962,-0.0011984390000000001,6.919,0,0
0.002785312,-0.001332205,-0.0012342945999999997,0.00012180599999999991,-0.0017075334000000001,6.92,0,0
0.0021346800000000003,-0.0014673769999999997,-0.0014289306,-0.0012001240000000001,-0.0020714700000000006,6.921,0,0
0.0011638288,0.0005690110000000003,-0.0018758606,-0.0024592660000000003,-0.0020284540000000003,6.922,0,0
0.00017540280000000007,0.0027354420000000007,-0.0027784386,-0.002990202,-0.0011969720000000001,6.923,0,0
-0.0006013132000000001,0.003289450000000001,-0.0040671686000000006,-0.003042702,-0.0006158520000000001,6.924,0,0
-0.0011224972000000001,0.003587852000000001,-0.00547947,-0.0029615699999999997,-0.00037695520000000007,6.925,0,0
-0.0013018702,0.0025238400000000003,-0.007536698,-0.002780982,0.00038879480000000003,6.926,0,0
-0.0006978689999999999,-0.0006684919999999997,-0.00873579,-0.0024781739999999997,0.0007666568000000001,6.927,0,0
0.00023189100000000002,-0.0029182260000000003,-0.008055312,-0.00170765,9.835879999999994e-05,6.928,0,0
0.00018916700000000007,-0.002747504,-0.00624575,-0.0005304340000000001,-0.00034983240000000004,6.929,0,0
-0.00027550099999999994,-0.0021211396,-0.0018216580000000003,0.00034306200000000015,-0.0005024692,6.93,0,0
-4.256339999999987e-05,-0.0023047096,0.0041389619999999995,0.0008887120000000002,-0.0013998772000000002,6.931,0,0
6.764060000000004e-05,-0.0028525876000000004,0.009220002000000001,0.0014934630000000004,-0.0018317792000000002,6.932,0,0
-4.909399999999909e-06,-0.0031535676000000006,0.012685324,0.001483023,-0.0015645472,6.933,0,0
0.0006489366000000001,-0.0025290158000000006,0.0136566,0.0008776816,-0.0016731360000000002,6.934,0,0
0.0013657454000000002,-0.0021928298,0.011657828,0.00041577120000000007,-0.0015192044,6.935,0,0
0.0013919390000000002,-0.0011596378,0.0083166078,-2.016080000000008e-05,-0.0006707904,6.936,0,0
0.001130795,0.0017277962000000003,0.0048451998,-0.00027832980000000007,0.00029497160000000003,6.937,0,0
0.000717377,0.0041284182,0.0008774878000000002,-0.0006073420000000001,0.0009215056,6.938,0,0
0.00026971140000000003,0.0047057344,-0.0025486482,-0.0009002666,0.0014939355999999998,6.939,0,0
0.00016439400000000005,0.004107716000000001,-0.0034798174000000006,-0.0007375204000000001,0.0017799447999999997,6.94,0,0
0.0007635538,0.0030651979999999994,-0.0026463652000000004,-0.0006783464,0.0015674933999999998,6.941,0,0
0.0013913078,0.0006576379999999993,-0.0016935888000000007,-0.0015503344000000001,0.0005322614,6.942,0,0
0.0015733416,-0.0015766700000000003,-0.0006603626000000002,-0.0023629062,-0.0009018386000000001,6.943,0,0
0.0018680552,-0.0016448980000000005,-1.1982600000000104e-05,-0.0024049382,-0.0017108246000000003,6.944,0,0
0.0022289658,-0.0003821800000000002,-0.0001021088000000001,-0.0024205472,-0.0027292194000000003,6.945,0,0
0.001505859,0.0009490699999999998,-0.0008452538000000001,-0.0015426192000000003,-0.0034740280000000005,6.946,0,0
-0.00010190899999999996,0.0012859619999999999,-0.0017260282000000002,0.0008476328,-0.0026133920000000004,6.947,0,0
-0.0011786067999999999,0.0005078319999999999,-0.0023205524,0.0031051348,-0.001324894,6.948,0,0
-0.0021731128,-0.001197954,-0.0019513142000000003,0.0018279228,0.00014398199999999986,6.949,0,0
-0.0028596348,-0.002693264,-0.0017617764000000002,-0.0001690419999999999,0.001642354,6.95,0,0
-0.0028548501999999996,-0.002716226,-0.0020968734,0.0005202239999999999,0.001500488,6.951,0,0
-0.0023496742,-0.0007239919999999999,-0.0013248902,0.000236022,0.0011479787999999999,6.952,0,0
-0.0015447850000000001,0.0013684740000000006,-0.00048549180000000006,-0.00028280600000000003,0.0018435888,6.953,0,0
-0.0007858130000000001,0.0014706600000000004,-0.0003949618,0.0022433520000000005,0.0016414868000000002,6.954,0,0
-0.0002947168,0.0009045140000000001,1.581579999999997e-05,0.004721558,0.0012342008000000002,6.955,0,0
-0.000238574838,-0.00013525600000000005,0.0012701338,0.0041667200000000005,0.0023686168000000007,6.956,0,0
-6.35155799999999e-06,-0.0019880360000000003,0.0022230165999999997,0.003255074,0.002748032,6.957,0,0
0.00041524324200000004,-0.0028718988,0.0031627242,0.0023982702,0.0019531320000000002,6.958,0,0
0.000777763242,-0.0018431252,0.0045460380000000005,0.0007671682,0.0018841580000000004,6.959,0,0
0.000746105442,-8.974920000000004e-05,0.005383294,-0.00022292379999999987,0.0020510740000000004,6.96,0,0
0.0004211616800000001,0.0015573968000000002,0.005308802,-0.0007494424,0.0014422179999999999,6.961,0,0
0.0002563584,0.0025897208,0.004518386000000001,-0.0013058764000000002,0.0004544820000000001,6.962,0,0
-3.7168400000000015e-05,0.0024633650000000003,0.002936746,-0.0016980146,-0.00012183600000000006,6.963,0,0
-0.00033000460000000005,0.0025518964000000002,0.00011433399999999979,-0.0017456286000000001,-0.001241722,6.964,0,0
8.478100000000003e-05,0.0029090064,-0.0030021500000000003,-0.0020926506,-0.0026098980000000003,6.965,0,0
0.000758257,0.0022000264,-0.0053092420000000005,-0.003322606,-0.0034395140000000003,6.966,0,0
0.0009102346000000002,0.0014616210000000002,-0.007004530000000001,-0.0044659520000000005,-0.0040301239999999995,6.967,0,0
0.0009646436000000002,0.0013547586000000004,-0.00760682,-0.004947432,-0.00437821,6.968,0,0
0.0007930666,0.0009525156000000002,-0.006624718000000001,-0.004752422,-0.0038706941999999997,6.969,0,0
-5.246539999999994e-05,0.00026993739999999996,-0.005036924000000001,-0.0036081020000000006,-0.0017749181999999997,6.97,0,0
-0.0008386734,0.0007200694,-0.004001874,-0.0014639980000000002,0.0005372678,6.971,0,0
-0.001179327,0.0024451608,-0.003402774,0.0007244080000000002,0.0025095338,6.972,0,0
-0.0014918592000000002,0.0042599238,-0.0017476859999999998,0.001627018,0.0039796738,6.973,0,0
-0.001627362,0.005007367799999999,0.00029300400000000014,0.001408346,0.0040207656,6.974,0,0
-0.0017264840000000001,0.0036670519999999996,0.001027864,4.714599999999986e-05,0.0025861696,6.975,0,0
-0.001932972,0.0006950939999999998,0.0017367,-0.0017204920000000001,0.0005393676000000001,6.976,0,0
-0.001925892,-0.0033867259999999996,0.003133158,-0.00223988,-0.0013376844000000001,6.977,0,0
-0.0018966964000000002,-0.0073689440000000005,0.002973408,-0.00120203,-0.0026345744000000003,6.978,0,0
-0.0016566004000000002,-0.009049048,0.001975198,0.0006694940000000001,-0.002420586,6.979,0,0
-0.0009879432,-0.008024718,0.001959782,0.0030436860000000003,-0.0017056260000000002,6.98,0,0
-2.4021200000000006e-05,-0.005655642,0.0018623008,0.005227560000000001,-0.001223424,6.981,0,0
0.0013057868,-0.002746344,0.0018335148,0.006054358000000001,-0.0005532099999999999,6.982,0,0
0.0025538972000000004,-7.120599999999977e-05,0.0014566558,0.005662206,-0.000288816,6.983,0,0
0.0032948152,0.0013628480000000003,-8.299220000000001e-05,0.004760718,-0.00046882380000000005,6.984,0,0
0.00363165,0.0017998180000000001,-0.0012516502,0.0035244790000000005,8.92302000000001e-05,6.985,0,0
0.003501339,0.0015697166,-0.001110121,0.001884405,0.0018911302000000003,6.986,0,0
0.0027621750000000004,0.0013191966000000001,-0.001049955,0.00046419699999999996,0.0034697062,6.987,0,0
0.0018744176,0.0013310726000000002,-0.0006838559999999998,-0.0006931850000000001,0.004479438200000001,6.988,0,0
0.0013396996,0.0013102526,0.0008537099999999999,-0.0017634830000000002,0.005494534000000001,6.989,0,0
0.0012750956000000002,0.0013806266,0.001432168,-0.0017823698000000003,0.00574179,6.99,0,0
0.0010267312,0.0013379464,0.0006428560000000001,-0.0011533238000000002,0.005042092,6.991,0,0
-1.6566799999999924e-05,0.0008946357999999999,-8.595600000000004e-05,-0.0009271682000000002,0.0039477534,6.992,0,0
-0.0014528774,0.0003353118,-0.001075456,-0.0006489482000000002,0.0027517834,6.993,0,0
-0.0029282414,-0.0004646381999999999,-0.002478704,-0.0003849162,0.0008881794000000004,6.994,0,0
-0.0040214834,-0.0015971362,-0.002903026,-0.0008520064000000001,-0.0012548386,6.995,0,0
-0.004655484,-0.0019964006,-0.00219571,-0.0021390844000000004,-0.0027533186,6.996,0,0
-0.004527284,-0.001542228,-0.001360086,-0.0025928940000000005,-0.0045207960000000005,6.997,0,0
-0.0035821740000000005,-0.00097181,-0.00023301999999999996,-0.0038058380000000006,-0.00499884,6.998,0,0
-0.00287131,-0.0009699540000000001,0.0017771860000000003,-0.0065651880000000004,-0.004063036,6.999,0,0
-0.002520886,-0.0015789660000000002,0.003036006,-0.006288116000000001,-0.004170284,7.0,0,0
-0.0016062440000000002,-0.001941754,0.001836208,-0.0033108940000000004,-0.004021764000000001,7.001,0,0
-0.00026290000000000005,-0.0020396958,6.94999999999999e-05,-0.001133982,-0.0019726500000000003,7.002,0,0
0.0008517060000000001,-0.0014377558000000005,-0.001008564,0.0013951480000000004,-0.000293318,7.003,0,0
0.001707298,0.0007502881999999997,-0.002333726,0.004977326000000001,4.518000000000122e-06,7.004,0,0
0.002307018,0.0032694042,-0.0027068939999999996,0.005541796,0.0011751114,7.005,0,0
0.002790038,0.0044120402,-0.0013174199999999997,0.0036908,0.0021145614,7.006,0,0
0.002506682,0.004039263,0.0004119500000000001,0.0020240161999999996,0.0015250603999999999,7.007,0,0
0.0020821280000000004,0.002654061,0.0016759560000000001,0.0007360022,0.0003612583999999999,7.008,0,0
0.0023071,0.0006168850000000004,0.0022047580000000002,0.00017050819999999995,-0.0005765216000000002,7.009,0,0
0.0021562791999999997,-0.001577231,0.0023430440000000003,-0.00044573700000000003,-0.0014666890000000002,7.01,0,0
0.0016564212,-0.002947039,0.00256644,-0.000958975,-0.0030932470000000004,7.011,0,0
0.0014095738000000002,-0.002983248,0.002958408,-0.0017137732,-0.004695856,7.012,0,0
0.0011750180000000001,-0.0020732719999999997,0.0033468180000000005,-0.0021458332,-0.005883396000000001,7.013,0,0
0.0008364348,-0.0003836,0.003492236,-0.0020778172,-0.006988758,7.014,0,0
0.0009500115999999999,0.001914878,0.0035172280000000007,-0.0016200400000000001,-0.006697428000000001,7.015,0,0
0.0010282216,0.003087676,0.003589112,0.00029222600000000025,-0.0035773120000000005,7.016,0,0
0.0007484298000000001,0.002408886,0.0029146339999999997,0.0032481000000000003,0.0009434620000000004,7.017,0,0
9.914359999999988e-05,0.00115978,0.0017946697999999999,0.005357302,0.005155664000000001,7.018,0,0
-0.0009302692000000001,-0.000521756,0.0011755772,0.0058542659999999995,0.008753328000000001,7.019,0,0
-0.0017569072000000003,-0.0015671840000000001,-0.0003556268000000001,0.005273392,0.010460174000000001,7.02,0,0
-0.0021113624,-0.0002681019999999999,-0.0025098548000000004,0.0032838620000000002,0.009143970000000001,7.021,0,0
-0.0018980143999999999,0.0010923520000000002,-0.0041006928,0.0008373359999999999,0.0065666786,7.022,0,0
-0.0013231194000000001,0.0011380359999999998,-0.0061772906,-0.0007526616000000002,0.0044486006,7.023,0,0
-0.0002907535999999999,0.0015798023999999999,-0.008426048,-0.0011692024000000002,0.0025792396,7.024,0,0
0.0005320304000000001,0.0010473424,-0.007713706000000001,-0.0009602956,0.0011032796000000002,7.025,0,0
0.0004948338,-0.0009812596000000002,-0.004731941999999999,-0.0003899896,0.0005672026,7.026,0,0
0.00026256780000000006,-0.0012920096,-0.0012742220000000002,0.00029291039999999993,8.035999999999948e-06,7.027,0,0
0.0002806980000000001,-9.890160000000008e-05,0.0037746780000000005,0.0002786356,-0.001470292,7.028,0,0
0.00030322000000000004,0.0004937419999999998,0.007530050000000001,0.000253944,-0.002491655,7.029,0,0
0.0003708920000000001,0.0006485943999999999,0.007307242000000001,0.0006750711999999999,-0.0031009670000000005,7.03,0,0
0.0007856118000000001,-0.00032473159999999997,0.005426058000000001,0.0010612372,-0.0038466180000000004,7.031,0,0
0.0010065426000000002,-0.0021432596,0.0030881660000000003,0.0010639832,-0.0035482352000000003,7.032,0,0
0.0011467774,-0.0029599016000000002,-0.0006511519999999998,0.0011306194000000002,-0.0025578092000000004,7.033,0,0
0.0011533176,-0.0028005516000000003,-0.0032770660000000004,0.0009160118,-0.0018453414000000003,7.034,0,0
0.0004131856,-0.0018902620000000002,-0.003695312,5.332380000000003e-05,-0.0006097914000000002,7.035,0,0
-5.561740000000002e-05,0.0010249080000000002,-0.004103834000000001,-0.0006649982000000002,0.0008860026000000002,7.036,0,0
0.000274033,0.004257474000000001,-0.00482114,-0.0010858704000000002,0.0012863638000000003,7.037,0,0
0.000490677,0.005073708,-0.004824078,-0.0011948360000000001,0.0012474326000000001,7.038,0,0
0.0006775310000000001,0.0045235119999999995,-0.004190516,-0.0012086920000000001,0.001196122,7.039,0,0
0.0017096070000000001,0.003441738,-0.003924466000000001,-0.0016040340000000003,0.0005105420000000001,7.04,0,0
0.002415052,0.0022078320000000003,-0.003892314,-0.00272989,-0.0005348460000000001,7.041,0,0
0.0018182118,0.000950914,-0.004022384,-0.0037023718000000006,-0.0012447180000000001,7.042,0,0
0.0009544558,-0.001371626,-0.005024996,-0.004387332000000001,-0.0017850168000000002,7.043,0,0
6.433580000000006e-05,-0.003966526,-0.006473956000000001,-0.005111578,-0.002872026,7.044,0,0
-0.0009653462,-0.00518248,-0.004196066000000002,-0.005264648,-0.003929722,7.045,0,0
-0.0017659121999999998,-0.006549322,0.0016151139999999987,-0.004362024000000001,-0.003982114,7.046,0,0
-0.0018440300000000002,-0.006932029400000001,0.006676322,-0.0024514140000000007,-0.0032836460000000003,7.047,0,0
-0.0018545,-0.003838823400000001,0.01112871,-0.001797296,-0.0014961360000000003,7.048,0,0
-0.001736218,4.422260000000065e-05,0.014201720000000003,-0.0011158700000000001,0.0009049739999999998,7.049,0,0
-0.0012278898,0.0035875246000000006,0.012136662000000001,0.00179523,0.0019338860000000001,7.05,0,0
-0.0013173918,0.0061360366,0.005892036,0.003747358,0.002019626,7.051,0,0
-0.0012774698,0.006003266,0.0008885360000000005,0.0035609660000000005,0.0019953,7.052,0,0
-0.0006850958,0.0031698639999999997,-0.000888696,0.004352922,0.0013056340000000004,7.053,0,0
-0.0004238746,-0.0008223420000000002,0.0006797540000000001,0.00541318,0.0007997360000000001,7.054,0,0
-0.0007403788,-0.004084562000000001,0.0036435620000000004,0.004218118,0.0016179660000000002,7.055,0,0
-0.0004128548000000001,-0.005089078,0.0055779539999999996,0.0028167640000000007,0.003083632,7.056,0,0
-0.00021633460000000003,-0.003564196,0.006192349999999999,0.0022437862000000003,0.004050666,7.057,0,0
-0.0011991106,-0.0008728400000000004,0.004811574000000001,0.0018895002000000002,0.00399451,7.058,0,0
-0.0013543518,0.002394236,0.0016575480000000002,0.0014731882000000003,0.0034564116000000006,7.059,0,0
-0.0008139998,0.0036494780000000003,-0.0014353640000000002,0.0012174962,0.0026895836000000004,7.06,0,0
-0.0007863567999999998,0.002135332,-0.0028552560000000005,0.0014977042000000002,0.0010728075999999998,7.061,0,0
-0.0006143145999999999,0.00022930999999999993,-0.003167088,0.0014966698000000002,-0.0005736924000000001,7.062,0,0
0.0003684504,-0.0008901934,-0.003491498,0.0008503338,-0.0018241684000000003,7.063,0,0
0.000832406,-0.0017013794000000002,-0.003913730000000001,-0.00038784219999999986,-0.003273008,7.064,0,0
0.00047874000000000007,-0.0024351894,-0.003887812,-0.0022946462,-0.004726556000000001,7.065,0,0
0.0003176164,-0.0015507986000000001,-0.003766598,-0.0045963742,-0.0060660060000000005,7.066,0,0
-0.000190556,3.1121399999999976e-05,-0.0038563480000000003,-0.006422300000000001,-0.0075283880000000004,7.067,0,0
-0.000905699,0.0013798568,-0.003906696,-0.007856442,-0.00893741,7.068,0,0
-0.0011298484000000003,0.0023550268,-0.0038073599999999997,-0.008981840000000001,-0.009153738000000002,7.069,0,0
-0.0008356884000000003,0.0024046928,-0.0035584920000000003,-0.009047192,-0.008238618,7.07,0,0
-0.00038522379999999997,0.0017290560000000005,-0.0030164831000000004,-0.008281794,-0.007468427999999999,7.071,0,0
0.0004989102,0.00034902600000000006,-0.0016526491000000004,-0.007082136000000001,-0.005284328,7.072,0,0
0.0013241462,-0.0020640460000000004,0.0005686969000000002,-0.004190906000000001,-0.00040168799999999987,7.073,0,0
0.0011284720000000002,-0.004516208000000001,0.0026711289,0.0005538140000000006,0.004191802,7.074,0,0
0.0009607204000000001,-0.004235242,0.0040058049,0.005090140000000001,0.007915846,7.075,0,0
0.000815051,-0.002491356,0.004667073999999999,0.008720588,0.012217568,7.076,0,0
-1.3422999999999983e-05,-0.000910664,0.0033964679999999997,0.010901012,0.01461416,7.077,0,0
-0.00020717280000000004,0.001346564,0.000760042,0.010593264,0.013791815999999998,7.078,0,0
0.0004521812,0.0035160359999999997,-0.0011066580000000002,0.008699812,0.011480843999999999,7.079,0,0
0.00044089620000000004,0.004396972000000001,-0.002395442,0.006256181999999999,0.008319796,7.08,0,0
0.00045963159999999994,0.00406683,-0.003425914,0.0036097151999999995,0.004585984,7.081,0,0
0.0012535856,0.0033164699999999997,-0.00322754,0.0018310036000000003,0.00117424,7.082,0,0
0.0014903314,0.002422464,-0.002538272,0.000953756,-0.001526326,7.083,0,0
0.0011748104,0.0018825792,-0.002537794,-0.000206712,-0.00318492,7.084,0,0
0.0012194662,0.0015869378000000001,-0.0024138980000000003,-0.001365902,-0.0036511399999999998,7.085,0,0
0.0011571158,0.0010885286,-0.001828012,-0.0019884892,-0.0033509862,7.086,0,0
0.00028950979999999997,0.0002948446,-0.000900786,-0.0020410612000000003,-0.0029032082,7.087,0,0
-0.0005657542,-0.0008117554000000001,0.0008226440000000001,-0.0017909682,-0.0017345502000000001,7.088,0,0
-0.0011535351999999999,-0.0022819946,0.0031678060000000004,-0.0016686522000000001,-3.552420000000006e-05,7.089,0,0
-0.0020859584,-0.0037195592000000004,0.004591684,-0.0016800402000000001,0.0006205502,7.09,0,0
-0.002756746,-0.004112524,0.004938644,-0.0015463402,0.00043840039999999995,7.091,0,0
-0.002852598,-0.0030815940000000004,0.005221388,-0.0014610162,0.0003435964,7.092,0,0
-0.002822726,-0.001079606,0.0045679119999999995,-0.0016035024,-0.0003266496000000001,7.093,0,0
-0.002664878,0.001331314,0.001697432,-0.0007368763999999999,-0.0017058016,7.094,0,0
-0.0020093534,0.003531188,-0.001978788,0.0002632616000000001,-0.0020909820000000003,7.095,0,0
-0.0007498354,0.004846246,-0.004749808,0.0010353136000000001,-0.00212354,7.096,0,0
0.00029099659999999995,0.003934218,-0.007213238,0.0002055272,-0.001589276,7.097,0,0
0.0010912686,0.0006951679999999999,-0.008121508000000001,-0.002626508,-0.0013303357999999998,7.098,0,0
0.0020691366000000003,-0.0023059240000000004,-0.006397506000000001,-0.003479394,-0.0024666498000000003,7.099,0,0
0.002805992,-0.004311276000000001,-0.0033545680000000013,-0.0026195899999999998,-0.0027583958,7.1,0,0
0.0028015740000000003,-0.006037912000000001,-0.0006319120000000001,-0.002323906,-0.0026533418000000003,7.101,0,0
0.0024716020000000003,-0.0059424462000000015,0.0003209640000000001,-0.0007642619999999997,-0.0027520558,7.102,0,0
0.00241162,-0.0030302842000000003,-0.0007287299999999998,0.003118574,-0.001890222,7.103,0,0
0.002350902,-4.900020000000007e-05,-0.0029687620000000002,0.004610052,0.0004071219999999999,7.104,0,0
0.00217567,0.0016969478000000001,-0.00528066,0.0039721900000000004,0.002487712,7.105,0,0
0.0014548802000000003,0.0030253458,-0.0057813822600000005,0.00416255,0.003964156,7.106,0,0
0.0011443352,0.004007352,-0.00235127426,0.004233474,0.004599408,7.107,0,0
0.0007192052000000002,0.004381042,0.0035431537400000004,0.0038660260000000003,0.0044057359999999995,7.108,0,0
-0.0007178388000000001,0.004142282,0.00907699374,0.0030343,0.0040021992,7.109,0,0
-0.0017986368,0.004139206,0.012554063740000001,0.002679986,0.0023264851999999997,7.11,0,0
-0.0024061430000000003,0.003945188,0.0124570454,0.0018505686000000003,0.00038990720000000017,7.111,0,0
-0.002667074,0.0025145160000000005,0.0092211534,-0.00029435339999999994,-0.0015273128,7.112,0,0
-0.00245441412,0.000396326,0.0047596311999999995,-0.0025848114,-0.0033337808,7.113,0,0
-0.0018825781200000002,-0.001262742,0.0009398230000000002,-0.004397101400000001,-0.00432616,7.114,0,0
-0.00169378612,-0.00263773,0.0003139690000000001,-0.005461079400000001,-0.004538904,7.115,0,0
-0.00213525412,-0.0027868600000000004,0.0023865576000000003,-0.0055094278,-0.004217594,7.116,0,0
-0.00290989612,-0.0008599019999999996,0.0033923396,-0.0041803886,-0.0031815122,7.117,0,0
-0.0029146694600000003,0.0006331660000000002,0.0032548838000000004,-0.0017355446000000003,-0.0008977701999999998,7.118,0,0
-0.00137819346,-0.0008727440000000002,0.0030400920000000003,0.0011491614,0.0022494278000000003,7.119,0,0
0.0007245265399999999,-0.003951342,0.00046210399999999986,0.0041978014,0.0062826358,7.12,0,0
0.00255324854,-0.006567784,-0.00392854,0.007632105200000001,0.0103568318,7.121,0,0
0.0037218015400000003,-0.008979048,-0.00687257,0.010576618000000001,0.012699438,7.122,0,0
0.0032318390000000002,-0.0095443876,-0.008780452,0.010985066,0.011964444000000001,7.123,0,0
0.0007066989999999999,-0.0058975256,-0.010027628,0.0096954872,0.008149968,7.124,0,0
-0.002209383,0.0008318344000000002,-0.0087693402,0.007080001200000001,0.002705234,7.125,0,0
-0.004427139,0.0079805144,-0.0040457402,0.0016447212,-0.0036381060000000003,7.126,0,0
-0.004893326000000001,0.0139625724,0.0008499598000000002,-0.0040998988000000005,-0.009897826000000002,7.127,0,0
-0.0027003320000000006,0.015159890000000002,0.0039208138,-0.0079994808,-0.014090690000000001,7.128,0,0
0.0004544960000000002,0.010991148,0.0075682098,-0.011346226000000001,-0.016547834,7.129,0,0
0.002993934,0.0052443080000000005,0.009406916,-0.0136456,-0.01815266,7.13,0,0
0.004788808,-0.0018541919999999997,0.007188089200000001,-0.013203132000000001,-0.017376804000000003,7.131,0,0
0.004657100000000001,-0.007432693999999999,0.004354263200000001,-0.011103408,-0.01413839,7.132,0,0
0.0032905320000000005,-0.006523582000000002,0.0008604891999999999,-0.008686738000000001,-0.010149327000000001,7.133,0,0
0.0028295440000000007,-0.003920364,-0.0045009508,-0.005841828,-0.005602167000000001,7.134,0,0
0.0030389960000000004,-0.004266624,-0.007250908800000001,-0.0031176174000000006,-0.0007270410000000001,7.135,0,0
0.003738590000000001,-0.0025436860000000003,-0.006668786,-0.0007446773999999999,0.0034482230000000003,7.136,0,0
0.005007542,1.8103999999999907e-05,-0.005494044,0.0009925426,0.006378309,7.137,0,0
0.005331996,-0.0012226539999999997,-0.001960364,0.0013564234000000002,0.007636632,7.138,0,0
0.0039169772,-0.0005124739999999999,0.001863576,0.0009654974000000001,0.00804359,7.139,0,0
0.0025536578,0.0028370004000000002,0.002650668,0.00038826280000000006,0.007827448,7.14,0,0
0.0019913918,0.0022466663999999997,0.002504798,-0.0004293134,0.006265494000000002,7.141,0,0
0.0014764218000000002,-0.0007813456000000003,0.00248789,-0.0016587774,0.004547462,7.142,0,0
0.0013865118,-0.0030489116000000007,0.002465568,-0.0022130662,0.003157356,7.143,0,0
0.0017882566,-0.0047983716,0.0029500159999999997,-0.0014395187000000001,0.001496416,7.144,0,0
0.0014556240000000002,-0.004622414,0.0037390680000000003,-0.00034922869999999995,-0.00019193600000000008,7.145,0,0
0.001606288,-0.002576994,0.0030394593999999997,0.0002902795,-0.0007563418000000001,7.146,0,0
0.00242542,-0.0016266174000000003,0.0019758494,0.00021780549999999996,-0.00023006580000000006,7.147,0,0
0.0009399499999999998,-0.0009495414000000001,0.0027380773999999995,0.0020587775,-0.0004392058000000002,7.148,0,0
-0.0017833380000000002,0.000290606,0.0039092694,0.0058714660000000005,-0.0006453518,7.149,0,0
-0.0037354519999999998,-2.1418600000000032e-05,0.0037310373999999997,0.00896444,0.0002916162,7.15,0,0
-0.005986546000000001,-0.0007114340000000002,0.002352702,0.011394640000000001,0.0008946760000000001,7.151,0,0
-0.008479714000000001,-0.0003153746000000001,-0.0006938560000000009,0.013271312,0.001260132,7.152,0,0
-0.009938332000000001,0.00017345539999999999,-0.008206842,0.012617274,0.0029197620000000002,7.153,0,0
-0.010808932,0.00010102259999999997,-0.016370542000000002,0.009007774,0.004259668,7.154,0,0
-0.011117472,-1.0187000000000023e-05,-0.019259238,0.005254567400000001,0.004184070000000001,7.155,0,0
-0.010421332000000002,-0.0001393812,-0.017592556800000003,0.00234693144,0.003871096,7.156,0,0
-0.009251616,0.00012458080000000006,-0.013270072800000001,9.924343999999992e-05,0.0026184908000000005,7.157,0,0
-0.007442752000000001,0.0009452528000000001,-0.0068687748,-0.00194285456,0.001095628,7.158,0,0
-0.004935978000000001,0.0013863902,0.0003243391999999996,-0.00406598656,0.0007290570000000002,7.159,0,0
-0.002866908,0.0014006128,0.005576259200000001,-0.005699329960000001,0.0009572730000000001,7.16,0,0
-0.0018910726000000001,0.0013318128,0.009198796,-0.006912738000000001,0.001475105,7.161,0,0
-0.0011233766000000001,0.0009379718000000002,0.012123332,-0.008665088000000001,0.0013619656000000001,7.162,0,0
0.00016550539999999985,0.0005973538000000001,0.012627718,-0.011012086000000003,-3.463560000000008e-05,7.163,0,0
0.0022980934000000003,0.0011377218,0.010143478,-0.011592194000000002,-0.0008231986000000001,7.164,0,0
0.0057077633999999995,0.0018543354,0.006457429999999998,-0.009837196000000001,-0.0004156765999999999,7.165,0,0
0.009655302000000001,0.0031270870000000006,0.0025554145999999995,-0.006862368000000001,-6.290859999999996e-05,7.166,0,0
0.012325608000000002,0.004182006,-0.0006593634000000004,-0.002167508,0.0013292140000000002,7.167,0,0
0.013510686,0.002721996,-0.0005703634000000001,0.0037630320000000004,0.004356126,7.168,0,0
0.013461730000000002,-0.0002297219999999999,0.0018276386000000001,0.008439952,0.006790428,7.169,0,0
0.010821324,-0.002807902,0.0039178626000000005,0.010477944,0.00773679,7.17,0,0
0.005750834,-0.0050400720000000005,0.0039618034,0.010210192000000002,0.008428702,7.171,0,0
0.0002920939999999997,-0.0057858680000000004,0.0011086613999999996,0.008874900000000002,0.009113194000000002,7.172,0,0
-0.00435839,-0.0027880580000000004,-0.0031385626000000003,0.008044852,0.009712176000000001,7.173,0,0
-0.008322356000000001,0.002132742,-0.007552858600000001,0.007789152000000001,0.009561434,7.174,0,0
-0.010087432,0.006223028,-0.011338294600000002,0.006870078000000001,0.007391,7.175,0,0
-0.008407664000000002,0.006836076,-0.01168566,0.004660306000000001,0.0032863020000000005,7.176,0,0
-0.004642346,0.0034532599999999997,-0.007553794000000001,0.0006662980000000005,-0.0035005680000000003,7.177,0,0
-0.00014945999999999948,-0.0002834360000000006,-0.0030825820000000004,-0.004806774,-0.012873328000000002,7.178,0,0
0.003953778000000001,-0.002882368,-0.0006713780000000006,-0.010489574,-0.021362892,7.179,0,0
0.006717546000000001,-0.0037575299999999994,-0.00023789800000000028,-0.015001760000000001,-0.02663802,7.18,0,0
0.007566744,-0.0015451339999999997,-0.0018072580000000004,-0.016175712,-0.028418860000000004,7.181,0,0
0.007520850000000001,0.0033611260000000003,-0.004143682,-0.013507612,-0.024583936000000004,7.182,0,0
0.005870809200000001,0.0066050480000000005,-0.004075452,-0.008719226,-0.015517052,7.183,0,0
0.0023240212000000004,0.006785402000000001,0.0007517040000000006,-0.0033462640000000007,-0.0059305320000000005,7.184,0,0
-0.0022701448000000003,0.004970642000000001,0.008653244000000001,0.0016952659999999997,0.002326448,7.185,0,0
-0.0085182808,0.00044012200000000026,0.015598724000000001,0.007025358,0.008991928,7.186,0,0
-0.013589724800000001,-0.003931097999999999,0.018416502,0.012389878,0.012817964000000001,7.187,0,0
-0.014541153999999999,-0.00652862,0.017646068,0.015826012,0.01362324,7.188,0,0
-0.011908944000000001,-0.008384148000000001,0.01327996,0.016143582,0.013292060000000001,7.189,0,0
-0.00691304,-0.008866242,0.005974584,0.013806802000000002,0.01265848,7.19,0,0
0.00014729999999999995,-0.006916166,-0.0002941319999999999,0.009367410000000001,0.010853448,7.191,0,0
0.007328920000000001,-0.0046194482,-0.0031592720000000003,0.0025219839999999997,0.0070476539999999996,7.192,0,0
0.012016884000000002,-0.0032222014,-0.0029397860000000002,-0.005285416,0.0023303140000000004,7.193,0,0
0.013399504000000001,-0.0017920276,-0.001448688,-0.011270648000000001,-0.0006314779999999999,7.194,0,0
0.01254366,-0.0006112896,-0.00011845999999999987,-0.013571898000000002,-0.003380752,7.195,0,0
0.010000364000000001,0.0005728184,-0.00022412599999999984,-0.016139946000000002,-0.004969916,7.196,0,0
0.005862736000000001,0.0018180806000000001,-0.002130646,-0.01863066,-0.004283113999999999,7.197,0,0
0.0025163900000000003,0.0045820338,-0.005284840000000001,-0.016416256,-0.005185274,7.198,0,0
0.000792782,0.008352806,-0.008298248000000001,-0.01257659,-0.008335582,7.199,0,0
0.000538518,0.010566224,-0.009994266000000002,-0.008040804000000002,-0.010345968,7.2,0,0
0.00197283,0.011898482000000002,-0.009822316000000001,0.00010733599999999954,-0.0098589358,7.201,0,0
0.003025172,0.012331832,-0.007752790000000001,0.009860616,-0.0061046638,7.202,0,0
0.0021576220000000005,0.009893646000000002,-0.00636839,0.016606892,0.002798716200000001,7.203,0,0
-0.00023160999999999993,0.004769108,-0.0060921099999999995,0.021439826000000002,0.0125691762,7.204,0,0
-0.003883686,5.550800000000012e-05,-0.004760928000000001,0.023036740000000003,0.0192243162,7.205,0,0
-0.006978964,-0.002451458,-0.0028249539999999997,0.019682804,0.021143882000000003,7.206,0,0
-0.008970788,-0.004231614000000001,-0.0011874759999999998,0.015583514000000003,0.017213238000000002,7.207,0,0
-0.010469882,-0.006266684000000001,0.0027176040000000006,0.011891834,0.010920178000000003,7.208,0,0
-0.011110582,-0.006870074,0.008416422,0.008284508,0.006662734000000002,7.209,0,0
-0.011502322,-0.005855108,0.010723844,0.005526686,0.005716554,7.21,0,0
-0.009196465999999999,-0.0056986020000000005,0.009763838,0.004477465799999999,0.007819492,7.211,0,0
-0.002609496,-0.005904690000000001,0.008229442,0.0028682498000000005,0.011532456,7.212,0,0
0.004087854,-0.004918822000000001,0.004528091999999999,-0.0013226902000000001,0.0117201222,7.213,0,0
0.008893294000000001,-0.004256562,-0.00126792,-0.0071500442,0.005508746200000001,7.214,0,0
0.0121587928,-0.004606748,-0.004494130000000001,-0.0142530022,-0.005514173799999999,7.215,0,0
0.010253164799999999,-0.004475806,-0.00418337328,-0.021477106,-0.0187975138,7.216,0,0
0.0032736787999999998,-0.003025964,-0.0033058192800000004,-0.0264893,-0.0309254138,7.217,0,0
-0.0024496071999999995,-0.00199148,-0.0026892924800000005,-0.028007639999999997,-0.03800516,7.218,0,0
-0.0043701156,-0.0013109299999999999,-0.00204102248,-0.02571352,-0.03814316,7.219,0,0
-0.0039297244,0.001005298,-0.00020359247999999992,-0.019623022,-0.03282204000000001,7.22,0,0
-0.0016935803999999996,0.0022315900000000003,0.0009427988000000002,-0.013131874,-0.0264879,7.221,0,0
0.0016318596,0.00037794200000000003,0.0008468968,-0.009347784000000001,-0.022048360000000003,7.222,0,0
0.0036537756,-0.0007276860000000001,0.00307336,-0.006359362,-0.018615700000000002,7.223,0,0
0.004398776,0.000900146,0.005459332,-0.0029839260000000005,-0.015378464,7.224,0,0
0.0048339920000000005,0.0016351120000000002,0.0029504740000000002,-0.00025492400000000056,-0.01107737,7.225,0,0
0.00293595,0.0007590434000000002,-0.00304817,0.0024352879999999994,-0.004378749999999999,7.226,0,0
-0.0006376039999999995,0.001476204,-0.00862279,0.0059212299999999995,0.0037635900000000016,7.227,0,0
-0.003079524,0.002832778,-0.014398629999999999,0.00855221,0.010668110000000001,7.228,0,0
-0.004789434,0.00269653,-0.016002854,0.008707336000000001,0.015130854000000001,7.229,0,0
-0.005926312,0.00225031,-0.009356673999999999,0.007454916000000001,0.01777234,7.23,0,0
-0.005410250000000001,0.0020951946,-9.04539999999985e-05,0.005777056000000001,0.01841456,7.231,0,0
-0.0029611380000000003,0.002710272,0.006118472,0.004151678000000001,0.01795176,7.232,0,0
-0.000734812,0.003768874,0.008610334,0.0038976300000000005,0.01743234,7.233,0,0
-0.0018401380000000003,0.0021279000000000003,0.007872282000000001,0.0052854880000000005,0.016403300000000003,7.234,0,0
-0.0017961440000000002,-0.000937074,0.004004938,0.008069248,0.0147221,7.235,0,0
0.003586286,-0.001415416,0.000475788,0.012174187999999999,0.01356768,7.236,0,0
0.008192254,-0.000690602,0.00016972799999999996,0.015878314,0.0133221,7.237,0,0
0.009140418,-7.650600000000049e-05,0.003798986,0.01745406,0.01376112,7.238,0,0
0.008849502,0.0022167999999999997,0.008918912000000001,0.016624390000000003,0.01556434,7.239,0,0
0.00571754,0.004594134,0.011940176,0.013872886000000001,0.01791186,7.24,0,0
0.0008774916000000006,0.004849394,0.013413806,0.011474246,0.02106922,7.241,0,0
-0.003323828400000001,0.001977258,0.013446036,0.010255686,0.02402926,7.242,0,0
-0.006965450400000002,-0.0034043019999999997,0.010047276,0.008989662,0.024553320000000003,7.243,0,0
-0.0072174304000000005,-0.007161579999999999,0.0037608159999999997,0.008189558,0.021575096000000002,7.244,0,0
-0.0061253104,-0.007839928,-0.002736844,0.004746922000000001,0.013761556000000003,7.245,0,0
-0.008906982,-0.006753608,-0.007616664,-0.005282778,0.001072636,7.246,0,0
-0.013135722,-0.004441094,-0.009711952,-0.016953338,-0.014483304000000002,7.247,0,0
-0.013531600000000001,-0.00042121599999999943,-0.00946311,-0.025288714,-0.027810864,7.248,0,0
-0.010773594000000001,0.004120184000000001,-0.006485000000000001,-0.03111334,-0.03529336,7.249,0,0
-0.004993534000000001,0.007315218000000001,-0.0026205840000000005,-0.03205538,-0.036903160000000004,7.25,0,0
0.005859585999999999,0.009178948000000001,-0.0014249180000000003,-0.025659706000000004,-0.033382140000000005,7.251,0,0
0.019532006,0.009401244000000001,-0.0014874719999999999,-0.016001372,-0.025309422,7.252,0,0
0.033695246,0.008287111,-0.00197559,-0.00809356,-0.017467846000000002,7.253,0,0
0.04734924,0.006488257000000001,-0.0028589111999999996,-0.002740236,-0.013351545999999999,7.254,0,0
0.057068139999999996,0.0036716970000000002,-0.0017832672,0.0009043624,-0.010825525999999999,7.255,0,0
0.05675044,-0.00014313900000000024,0.0009730768000000001,0.0034342364000000004,-0.00865595,7.256,0,0
0.044951356,-0.003048445,0.0025287168,0.0069121624000000005,-0.0048109680000000005,7.257,0,0
0.023543736000000006,-0.006046350000000001,0.0038469300000000006,0.0133962504,0.002660676000000001,7.258,0,0
-0.003967423999999999,-0.011503516000000002,0.0052410952,0.0231788064,0.013265136000000002,7.259,0,0
-0.032688484,-0.015991736,0.0048087792,0.033547988,0.024515996,7.26,0,0
-0.057934164,-0.01708984,0.0034047094,0.04116766,0.033638799999999996,7.261,0,0
-0.0755734,-0.016037434,0.0014629254000000003,0.0438011,0.038326479999999996,7.262,0,0
-0.08614822,-0.012365862,-0.0011841118000000003,0.040864660000000004,0.03778292,7.263,0,0
-0.09131341999999999,-0.006635782,-0.0048492458000000006,0.03308114,0.032974039999999996,7.264,0,0
-0.09114610000000001,-0.0019504470000000001,-0.0085410898,0.021668414,0.02613918,7.265,0,0
-0.08322034000000002,0.001215523,-0.010388508000000001,0.010111994000000001,0.018721196,7.266,0,0
-0.06726354000000001,0.003315869,-0.009848058,0.0010197940000000005,0.009254776000000001,7.267,0,0
-0.045836708000000004,0.004783517,-0.0073309186,-0.0062310460000000005,-0.0013117239999999985,7.268,0,0
-0.020885387999999998,0.007068577,-0.003967020600000001,-0.013719166,-0.011972183999999999,7.269,0,0
0.005109432000000001,0.008763774,0.0013686394000000002,-0.02088764,-0.023569624,7.27,0,0
0.028472972000000003,0.00882424,0.0083013774,-0.027359840000000003,-0.03437292,7.271,0,0
0.047962392000000006,0.009131326,0.011614717400000002,-0.0348928,-0.04138086,7.272,0,0
0.06500918,0.009365006000000002,0.010000236000000003,-0.0412525,-0.04362098,7.273,0,0
0.07547404000000002,0.007737224000000001,0.006203618000000001,-0.043099280000000004,-0.042550920000000006,7.274,0,0
0.07704770000000001,0.006589732000000001,-0.0002752419999999989,-0.0414482,-0.0389752,7.275,0,0
0.07355854000000002,0.008010676000000001,-0.007958162000000001,-0.03813102,-0.03326266,7.276,0,0
0.06719832,0.009070358,-0.01166762,-0.033034440000000005,-0.026908019999999998,7.277,0,0
0.05865688,0.007300478000000001,-0.010699372,-0.02699108,-0.020854694,7.278,0,0
0.05151216000000001,0.0055924519999999995,-0.006599436,-0.021380839999999998,-0.013689062,7.279,0,0
0.0483999,0.0048289694,-0.0004930960000000002,-0.015759432,-0.0062230900000000006,7.28,0,0
0.04636266000000001,0.0013748354000000004,0.0036272200000000004,-0.010509928,-0.0006574740000000008,7.281,0,0
0.04100614,-0.0028932626,0.0034020640000000007,-0.0059857484,0.004764745999999999,7.282,0,0
0.03059579600000001,-0.004358478600000001,0.0003901780000000006,-0.0009084884000000004,0.01013642,7.283,0,0
0.017208596000000007,-0.0037302446,-0.0045321979999999994,0.004271271599999999,0.012931648,7.284,0,0
0.0020215560000000007,-0.0020112659999999994,-0.009267848,0.008500463599999999,0.013880476000000001,7.285,0,0
-0.011386224,-0.00034345199999999973,-0.010926827600000001,0.012675459600000001,0.01573114,7.286,0,0
-0.017441716000000003,-0.000534854,-0.0098634276,0.019090760000000002,0.01876626,7.287,0,0
-0.020284892000000002,-0.003723398,-0.006371421,0.02590664,0.02236552,7.288,0,0
-0.025855192,-0.010194444,-0.002192263,0.031164280000000003,0.027697239999999998,7.289,0,0
-0.032858652,-0.01587994,-0.00018426379999999994,0.03671892,0.03534028,7.29,0,0
-0.043454592,-0.016502467200000003,0.0024001598000000005,0.042490059999999996,0.0438791,7.291,0,0
-0.057451600000000005,-0.012729885199999999,0.009346193800000001,0.04603844,0.05268916,7.292,0,0
-0.06486352000000001,-0.005055425199999999,0.016760567200000003,0.04529788,0.06033116000000001,7.293,0,0
-0.0634065,0.0021429208,0.021128349200000004,0.0421889,0.06300712,7.294,0,0
-0.05720984,0.002584540800000001,0.02431304,0.03643252000000001,0.05986858000000001,7.295,0,0
-0.045375120000000005,-0.0010612920000000001,0.024658660000000002,0.028867984,0.051789180000000004,7.296,0,0
-0.031089426000000003,-0.0045483680000000005,0.020043004,0.020828336000000003,0.038014624000000004,7.297,0,0
-0.019824546000000002,-0.007397646,0.013883944000000002,0.009595196,0.020009944,7.298,0,0
-0.009745846,-0.006925384,0.009309814,-0.003624343999999999,0.0005729640000000013,7.299,0,0
0.001073314000000001,-0.0018167560000000012,0.004029512000000001,-0.016227404,-0.019113996,7.3,0,0
0.010165014,0.004678444,-0.0031011080000000004,-0.029230848000000004,-0.038234616,7.301,0,0
0.016320840000000003,0.010869618000000001,-0.009525172000000002,-0.04278284,-0.05644144000000001,7.302,0,0
0.02116588,0.016666296,-0.017006372000000002,-0.05132546,-0.07401150000000001,7.303,0,0
0.024832680000000003,0.020416868,-0.028344862000000005,-0.054599379999999996,-0.0885438,7.304,0,0
0.027024,0.02123452,-0.03702248,-0.05314558,-0.0951308,7.305,0,0
0.02924048,0.01767042,-0.037135180000000004,-0.045568000000000004,-0.0919768,7.306,0,0
0.03057086,0.00980668,-0.030877824,-0.03645872,-0.08145560000000002,7.307,0,0
0.02846972,0.0011325199999999997,-0.019133304000000004,-0.02743824,-0.06502356,7.308,0,0
0.024415252000000005,-0.006126236,-0.0034709039999999995,-0.018301512000000002,-0.04382452600000001,7.309,0,0
0.019456026,-0.010423646,0.012229836000000001,-0.011477388,-0.024182547999999998,7.31,0,0
0.012702128,-0.009530305999999999,0.024710896000000003,-0.00815203,-0.010503322,7.311,0,0
0.0069502539999999995,-0.0052131339999999995,0.030162759999999997,-0.005685262,-0.0005492019999999999,7.312,0,0
0.00389281,-0.0015957019999999994,0.028695880000000003,-0.0031121368,0.006888418,7.313,0,0
0.0019569178,0.0016191400000000002,0.02550391,-0.0009940728000000002,0.010966584,7.314,0,0
0.0009361308000000001,0.004240158000000001,0.0205434246,0.0031764432,0.015073666000000001,7.315,0,0
0.0011996928,0.003954096,0.012326638400000001,0.0105184252,0.0227131,7.316,0,0
0.0015834788,0.0019555400000000004,0.0061685304,0.0200443572,0.03200598,7.317,0,0
0.0010137908000000001,-0.0029633720000000006,0.005716570400000001,0.028857412,0.0409245,7.318,0,0
-0.0004918589999999997,-0.013618258000000001,0.009485760400000001,0.033330399999999996,0.04858264,7.319,0,0
-0.003019726,-0.023848186,0.0132543858,0.03344134,0.05227536000000001,7.32,0,0
-0.00726361,-0.028435444000000004,0.014737858,0.03045996,0.049270060000000004,7.321,0,0
-0.011401362000000002,-0.029220744000000003,0.01365984,0.025322740000000003,0.04147526,7.322,0,0
-0.013689450000000002,-0.023508004000000002,0.00887926,0.02028854,0.03168324,7.323,0,0
-0.015427440000000002,-0.009145743999999999,-0.00048006000000000004,0.017399,0.019849178000000002,7.324,0,0
-0.01662962,0.0064537959999999995,-0.01612954,0.015251084000000002,0.006881398,7.325,0,0
-0.01588334,0.018811596,-0.03787478600000001,0.012320866,-0.003776262,7.326,0,0
-0.014049410000000002,0.027779820000000004,-0.06296094,0.00971489,-0.011282941999999999,7.327,0,0
-0.011585883000000002,0.029596380000000002,-0.08612446000000001,0.007354626,-0.016300582,7.328,0,0
-0.007497005000000001,0.025783800000000003,-0.09914910000000002,0.0051214671400000005,-0.01686447,7.329,0,0
-0.0025916430000000002,0.020218822,-0.09014604000000002,0.003364699140000001,-0.01343719,7.33,0,0
0.001793603,0.011474643999999999,-0.054007220000000015,0.0023846223400000002,-0.008056494,7.331,0,0
0.003869587,0.0002642439999999994,-0.002397619999999996,0.00147632034,-0.0012825540000000004,7.332,0,0
0.0034718659999999997,-0.008549776000000002,0.04788398000000001,-0.00016959566000000005,0.006229786,7.333,0,0
0.0022706019999999996,-0.013319696000000002,0.08269822,-0.0015338288000000002,0.013283136000000001,7.334,0,0
0.001763914,-0.014915682000000001,0.093516,-0.0035361448,0.019326056,7.335,0,0
0.0013514500000000001,-0.014086706000000001,0.07882685399999999,-0.005487248,0.023440240000000005,7.336,0,0
0.0003328340000000003,-0.012394826000000003,0.047758114000000004,-0.005581332000000001,0.025215,7.337,0,0
-0.0005891119999999999,-0.010120866000000001,0.016804073999999995,-0.0037403239999999997,0.0258629,7.338,0,0
-0.0026022460000000003,-0.007224986,-0.0019059500000000009,-5.819199999999988e-05,0.02587768,7.339,0,0
-0.00702472,-0.00471563,-0.007310670000000002,0.005308368000000001,0.026038380000000003,7.34,0,0
-0.010777642,-0.002429216000000001,-0.004053484,0.010808266000000002,0.02563206,7.341,0,0
-0.011174582000000002,0.0011681080000000002,0.005190276000000001,0.011462692,0.022004116,7.342,0,0
-0.010821960000000002,0.00468671,0.013579755999999998,0.007965808000000001,0.014398656000000001,7.343,0,0
-0.009161712000000002,0.0059912,0.01666482,0.003516928000000001,0.006141136,7.344,0,0
-0.004770356,0.005470712000000001,0.01667374,-0.0031771520000000004,-0.0023776640000000016,7.345,0,0
-0.0003193919999999995,0.004475792,0.0146736,-0.010147212000000001,-0.014755444000000001,7.346,0,0
0.0016560440000000002,0.0044228240000000005,0.0101360732,-0.014155536000000003,-0.028262000000000002,7.347,0,0
0.002481352,0.005620062,0.004571653200000001,-0.018297,-0.03919378,7.348,0,0
0.0039303720000000006,0.007790672,-0.0004882467999999993,-0.02363468,-0.04815112,7.349,0,0
0.007349296000000001,0.010263068000000002,-0.0060273268,-0.026882780000000002,-0.054688640000000004,7.35,0,0
0.014012972,0.012703556000000001,-0.011473986799999999,-0.030621980000000004,-0.05634916,7.351,0,0
0.021368018000000003,0.013388396000000002,-0.01495764,-0.033494180000000005,-0.05172342,7.352,0,0
0.027035848,0.011596962000000002,-0.01594936,-0.030982960000000004,-0.0429413,7.353,0,0
0.028035408,0.008532408,-0.015468319999999999,-0.025926440000000002,-0.034097140000000005,7.354,0,0
0.022103852,0.004576780000000001,-0.013949244,-0.020274988,-0.024472636000000002,7.355,0,0
0.010146532,0.002043408,-0.011224384,-0.014480798000000001,-0.011169216,7.356,0,0
-0.0037323880000000005,0.00089047,-0.008297204,-0.009726022,0.0036704840000000008,7.357,0,0
-0.013536048000000002,-0.001047276,-0.005998898,-0.005325982,0.018041444000000004,7.358,0,0
-0.01619494,-0.0041122220000000004,-0.003730764,-0.00041452199999999963,0.031461084,7.359,0,0
-0.013631446,-0.007857174,-0.001461844,0.004930966,0.04083988000000001,7.36,0,0
-0.008869304,-0.011278682,-0.00043232800000000005,0.010509476,0.04293244,7.361,0,0
-0.002931135999999999,-0.01390089,-0.000345658,0.01680384,0.04016572,7.362,0,0
-0.00013448800000000032,-0.01493297,-0.000777764,0.023293400000000002,0.036903620000000005,7.363,0,0
-0.003983704000000001,-0.013039502,-0.002164498,0.028503780000000003,0.03381498,7.364,0,0
-0.012364362,-0.0085986592,-0.0039585720000000005,0.031904760000000004,0.031701219999999995,7.365,0,0
-0.021946404000000003,-0.0037996992000000006,-0.005359916000000001,0.033272380000000004,0.03169132,7.366,0,0
-0.030433732000000005,0.0005488108000000001,-0.006051948000000001,0.030440720000000004,0.029483180000000005,7.367,0,0
-0.0350678,0.003100152,-0.006590356,0.0228532406,0.0205698,7.368,0,0
-0.031222695999999998,0.004624571000000001,-0.008074116,0.0128667206,0.006004140000000001,7.369,0,0
-0.019976356,0.0056530262,-0.010841318,0.0009991205999999994,-0.0136551,7.37,0,0
-0.006154376000000001,0.0039400462,-0.01292565,-0.0098148194,-0.0359668,7.371,0,0
0.009613464,0.0025648681999999997,-0.013607522,-0.017170239400000002,-0.05547614,7.372,0,0
0.024181284,0.0018451350000000004,-0.012222544,-0.02267922,-0.06785494,7.373,0,0
0.03373602,-0.0007012920000000001,-0.006850664000000001,-0.0255789,-0.07092204,7.374,0,0
0.0399722,-0.001595726,0.0016061359999999998,-0.02544828,-0.06543994,7.375,0,0
0.04501686,0.0007014939999999996,0.009962176,-0.02502774,-0.054166360000000004,7.376,0,0
0.04786842,0.002514832,0.01522793,-0.023603259999999997,-0.04062886,7.377,0,0
0.048257320000000006,0.005295404,0.017393876,-0.018568968,-0.027198936,7.378,0,0
0.0464415,0.00930152,0.016396598,-0.009632427999999998,-0.014730576,7.379,0,0
0.041364120000000004,0.009499648,0.012061622000000001,0.003439211999999999,-0.002823336000000001,7.38,0,0
0.03370872,0.0065696,0.006277291999999999,0.017309371999999996,0.008791404,7.381,0,0
0.024811284000000003,0.0015677199999999999,0.002557766,0.028929452,0.020196984,7.382,0,0
0.015361595999999998,-0.00426176,0.0011653824,0.03782042,0.03092608,7.383,0,0
0.0046782559999999996,-0.007860716,-0.0005460236000000001,0.04203978,0.03925344,7.384,0,0
-0.007889864,-0.009730879999999999,-0.0014891636000000001,0.04033656000000001,0.0444127,7.385,0,0
-0.020718864000000004,-0.009193534,-0.0009554456,0.036394460000000003,0.047835,7.386,0,0
-0.031822588,-0.003257614,-7.044559999999991e-05,0.03217902,0.049459340000000004,7.387,0,0
-0.04020542,0.0036732660000000006,0.0013040360000000002,0.025992480000000005,0.047628460000000004,7.388,0,0
-0.044664100000000005,0.005126722,0.0037002300000000005,0.018288368000000003,0.04357508,7.389,0,0
-0.04431674000000001,0.0038758540000000015,0.0057958440000000005,0.009713672000000001,0.037891760000000003,7.39,0,0
-0.04029396,0.002241038,0.006594162000000001,0.000526192,0.0288571,7.391,0,0
-0.034263140000000004,-0.0012760520000000002,0.006578298000000001,-0.012039688,0.015204279999999997,7.392,0,0
-0.027049715999999998,-0.0042870467999999995,0.005759818,-0.025319548000000004,-0.0010846600000000003,7.393,0,0
-0.019014378000000005,-0.004836846800000001,0.004579836,-0.035260316,-0.01437354,7.394,0,0
-0.008820818,-0.0024431628000000003,0.0036615980000000003,-0.04013628,-0.02320562,7.395,0,0
0.0027782419999999993,0.0007950512,0.0025785418000000004,-0.037945874000000004,-0.030274959999999997,7.396,0,0
0.011303962,0.00035948,0.00032821580000000025,-0.030677154,-0.032394080000000006,7.397,0,0
0.016830098,-0.0016392071999999998,-0.0026660981999999996,-0.021049639999999998,-0.02704348,7.398,0,0
0.02042634,-0.0027513632,-0.0052628302000000005,-0.012637490000000001,-0.019235272,7.399,0,0
0.018811742,-0.0052431672,-0.0076718402,-0.00705227,-0.010047152000000002,7.4,0,0
0.012029172000000001,-0.0075297852,-0.009027378,-0.003937042,0.003280168000000001,7.401,0,0
0.004897515999999999,-0.006404662,-0.007831786,-3.498199999999981e-05,0.018395148,7.402,0,0
-0.0020865040000000003,-0.005179807999999999,-0.0057142162,0.004586344,0.029866308,7.403,0,0
-0.009714664000000001,-0.004263108,-0.00385243,0.008338094,0.034310320000000005,7.404,0,0
-0.014355306,-0.0021450700000000002,-0.0013558779999999996,0.010782156000000001,0.03182904,7.405,0,0
-0.016779056,-0.0019817560000000003,0.000997372,0.0094100798,0.023594564000000002,7.406,0,0
-0.01952956,-0.0033557740000000006,0.0019094160000000002,0.0055921058,0.010446564000000002,7.407,0,0
-0.018604640000000002,-0.004233106,0.0019099828000000002,0.0016315037999999997,-0.0035197360000000007,7.408,0,0
-0.012508996,-0.003789812,0.0017204582,-0.0002265342000000002,-0.013129456000000001,7.409,0,0
-0.0071099779999999994,-0.0032008137999999997,0.0013956122000000001,0.0018892037999999997,-0.017204516,7.41,0,0
-0.004201322,-0.0041642138,0.0014194762,0.006931426000000001,-0.01762628,7.411,0,0
-0.001169716,-0.0043407098,0.0017022542,0.011000900000000001,-0.017480880000000004,7.412,0,0
0.0004263040000000002,-0.0020965778000000003,0.0018515132,0.011534544,-0.01895346,7.413,0,0
-0.002005316,0.0003261321999999999,0.0017587096,0.008676622000000002,-0.02245422,7.414,0,0
-0.005077756,0.004249116,0.0011750768,0.0021671420000000004,-0.027134639999999998,7.415,0,0
-0.004011228,0.011517644,0.0003090206,-0.0066284180000000005,-0.03074442,7.416,0,0
-0.00021199400000000007,0.017582856,-0.0004327658,-0.013753318,-0.02957324,7.417,0,0
0.004238826,0.018227558,-0.0011221194000000001,-0.01780548,-0.024150724000000002,7.418,0,0
0.011063041999999999,0.014364453999999999,-0.0026405734000000004,-0.020402959999999998,-0.018689724,7.419,0,0
0.019333104,0.008903595999999998,-0.005560496600000001,-0.021586539999999998,-0.014474544000000002,7.42,0,0
0.02569082,0.0017765580000000006,-0.0085488664,-0.020861659999999997,-0.012483984000000002,7.421,0,0
0.030782459999999998,-0.006156722,-0.009718938000000002,-0.018301764,-0.011742344000000002,7.422,0,0
0.0338517,-0.009189734,-0.007670436000000001,-0.013525262,-0.008199802,7.423,0,0
0.03133094,-0.006968866800000001,-0.0014577360000000003,-0.007072280000000001,-0.0012196219999999992,7.424,0,0
0.024888162,-0.0059411068,0.006371323999999999,6.620000000000063e-05,0.007992218,7.425,0,0
0.020161622,-0.006906616800000001,0.0111255,0.007622460000000001,0.019648798000000002,7.426,0,0
0.018806102000000005,-0.005685124800000001,0.010813148000000002,0.013427304000000001,0.030645897999999998,7.427,0,0
0.017837242000000003,-0.0017012067999999997,0.004903144000000002,0.015520682000000001,0.03645934,7.428,0,0
0.015072686000000002,0.0038514260000000007,-0.004186076,0.015771834000000002,0.03795304000000001,7.429,0,0
0.010413904000000002,0.011005404000000003,-0.008987393400000002,0.015796394000000002,0.037265820000000005,7.43,0,0
0.0016790639999999992,0.016839112000000003,-0.007071329400000001,0.015908594,0.03515716,7.431,0,0
-0.011244516,0.017167626000000002,-0.001662297400000002,0.016677954000000002,0.0320956,7.432,0,0
-0.019755796000000003,0.012900664000000003,0.0063048226,0.018451574000000002,0.025798868,7.433,0,0
-0.020038282,0.006421684,0.013168782600000001,0.01916384,0.015103967999999999,7.434,0,0
-0.017582364000000003,-0.0011714420000000004,0.014102908,0.014818358000000004,-0.00024739199999999906,7.435,0,0
-0.015160804,-0.005815884000000001,0.011013694000000001,0.006361398,-0.018061472000000002,7.436,0,0
-0.015327004000000002,-0.005246998000000001,0.0072572140000000005,-0.002066722000000001,-0.032252852,7.437,0,0
-0.022503204000000002,-0.0036618120000000004,0.0031206400000000005,-0.009400742,-0.03937898,7.438,0,0
-0.032304742,-0.00397201,-0.0008087499999999998,-0.014875142000000001,-0.03966548,7.439,0,0
-0.03724996,-0.005129044,-0.0046864179999999995,-0.015080722000000001,-0.03430628,7.44,0,0
-0.03729666,-0.006401042,-0.008728384,-0.011364480000000001,-0.02526826,7.441,0,0
-0.031499156,-0.006576574000000001,-0.011852564000000001,-0.007562374000000001,-0.017492947999999998,7.442,0,0
-0.019228236,-0.004402250000000001,-0.013519570000000002,-0.005771636,-0.010959711999999998,7.443,0,0
-0.006503655999999999,-0.0009592720000000006,-0.011865919400000001,-0.007709296000000001,-0.005167949999999999,7.444,0,0
0.0032126240000000003,0.002366022,-0.006656599399999999,-0.010138494,-0.00232843,7.445,0,0
0.012019064,0.005160114,-0.00016151939999999986,-0.01027581,-8.43589999999998e-05,7.446,0,0
0.01834312,0.0063358120000000006,0.0071436006,-0.009565502,0.0025479890000000005,7.447,0,0
0.01833334,0.005545724000000001,0.0141525406,-0.007056393999999999,0.005243493,7.448,0,0
0.01299672,0.004489010000000001,0.01769226,0.0006872060000000005,0.010818511,7.449,0,0
0.0049498,0.002431842,0.014962736,0.009803986,0.019936671000000003,7.45,0,0
-0.00568342,-0.0006352099999999998,0.006260996,0.016216380000000002,0.027344240000000002,7.451,0,0
-0.01704988,-0.0027379179999999998,-0.004808744000000001,0.021693066,0.03242372,7.452,0,0
-0.02598888,-0.006163338000000001,-0.014418284,0.025553020000000003,0.035680180000000006,7.453,0,0
-0.03054746,-0.009563084,-0.020814384000000002,0.02544266,0.033711620000000005,7.454,0,0
-0.02951024,-0.00945183,-0.020573234,0.0214909,0.028491560000000003,7.455,0,0
-0.02425443,-0.00970197,-0.011097394,0.015580258,0.023023136000000003,7.456,0,0
-0.016074170000000002,-0.01175,0.002832826000000001,0.008051692,0.015590494000000002,7.457,0,0
-0.00364193,-0.01277124,0.013603706,4.981199999999977e-05,0.005844093999999999,7.458,0,0
0.013018730000000001,-0.012195278,0.017181404,-0.006930308,-0.0035920660000000014,7.459,0,0
0.02919249,-0.009369378000000001,0.011820058000000001,-0.012216648,-0.013793706000000003,7.46,0,0
0.0415897,-0.005157382,-0.003973822,-0.016236826000000003,-0.026496742000000004,7.461,0,0
0.05062176000000001,-0.0009706720000000004,-0.022317462000000003,-0.01991018,-0.03852168,7.462,0,0
0.055768380000000006,0.004592968,-0.033154562,-0.021788280000000004,-0.046614420000000004,7.463,0,0
0.055778640000000004,0.009695406,-0.034819162,-0.01992968,-0.04867358000000001,7.464,0,0
0.050768980000000005,0.011713726,-0.025894922000000004,-0.015989732,-0.042848172000000004,7.465,0,0
0.04243844000000001,0.013950350000000002,-0.009684442000000001,-0.011985854200000002,-0.03086486,7.466,0,0
0.031324806,0.01677854,0.0021615280000000002,-0.006977832200000001,-0.01565332,7.467,0,0
0.017930226,0.0178363,0.006492764000000001,-0.0016796562000000006,0.0001679200000000011,7.468,0,0
0.004209266,0.016462728,0.007705784000000001,0.0026284238,0.013016300000000001,7.469,0,0
-0.008758433999999999,0.011603622,0.0044490006,0.0064246958000000005,0.020791432,7.47,0,0
-0.020237774,0.005263822,0.0044375806,0.009972598000000001,0.02465778,7.471,0,0
-0.029042480000000002,-0.0016603580000000015,0.0155733706,0.012796796000000001,0.025253660000000004,7.472,0,0
-0.03388498,-0.007856258000000001,0.0238812546,0.014151080000000002,0.022290507999999997,7.473,0,0
-0.0342309,-0.011109454000000001,0.022325058600000003,0.012648594,0.017093242,7.474,0,0
-0.028812122000000006,-0.01078221,0.020401882,0.007702554,0.009580957999999999,7.475,0,0
-0.017322742000000002,-0.0060333700000000014,0.01577411,0.0015980540000000007,-0.0007070219999999999,7.476,0,0
-0.004015322000000001,3.2169999999999335e-05,0.004829352,-0.003363378,-0.012224222000000002,7.477,0,0
0.008065258,0.0044220959999999995,0.0013478119999999999,-0.007988038,-0.02187331,7.478,0,0
0.018141038,0.006695248,0.012878110000000002,-0.012580192,-0.027895284000000006,7.479,0,0
0.023402940000000004,0.006216456,0.024620790000000004,-0.014706331999999999,-0.0291715,7.48,0,0
0.02298626,0.001127636,0.024683322000000004,-0.014376392,-0.023766782200000003,7.481,0,0
0.020066728000000006,-0.005582344,0.017576460000000006,-0.012521520000000001,-0.0135252222,7.482,0,0
0.013838350000000001,-0.01080787,0.008386240000000007,-0.00732078,-0.0012660222000000013,7.483,0,0
0.0028469099999999994,-0.015870674,-0.004875719999999998,-0.00031959999999999975,0.012068377799999998,7.484,0,0
-0.00971191,-0.01717894,-0.017132800000000004,0.00605618,0.0251772778,7.485,0,0
-0.02241883,-0.013192248000000002,-0.01920134,0.01264,0.0374183,7.486,0,0
-0.035770878000000006,-0.007311266000000003,-0.014672807999999999,0.0189144,0.0478239,7.487,0,0
-0.04712812000000001,-0.00173634,-0.008807264,0.02325446,0.054660560000000004,7.488,0,0
-0.050942760000000004,0.004312908,-0.0056852984,0.027197159999999998,0.057417180000000005,7.489,0,0
-0.04943164,0.009751968,-0.0042494344,0.03176288,0.05672452000000001,7.49,0,0
-0.045872539999999996,0.011489836,0.0023251856000000002,0.0318297,0.05063140000000001,7.491,0,0
-0.03693576,0.010900824,0.010991453600000001,0.02461725,0.03763228800000001,7.492,0,0
-0.024669024,0.0093678156,0.015038169600000002,0.010376209999999997,0.021071488000000006,7.493,0,0
-0.013298603999999999,0.0069594196,0.016645432,-0.009450509999999999,0.00016574799999999855,7.494,0,0
-0.0017611839999999998,0.0034919276,0.016059900000000002,-0.02975157,-0.024894452,7.495,0,0
0.011447276,0.0003795315999999999,0.0075466399999999986,-0.04495607,-0.047185792000000004,7.496,0,0
0.024247676000000003,-0.0005095404000000001,-0.0043562800000000014,-0.050264760000000006,-0.06144310000000001,7.497,0,0
0.03439628,0.0008280780000000001,-0.013242120000000001,-0.043629032,-0.06677556000000001,7.498,0,0
0.03960764,0.003273366,-0.017700548000000003,-0.028094672,-0.06340262,7.499,0,0
0.03947792,0.002983286,-0.017497048000000005,-0.009804512000000001,-0.05175088,7.5,0,0
0.03548822,-0.00019997799999999953,-0.014022108000000002,0.007270848000000001,-0.036683818,7.501,0,0
0.027542898000000003,-0.0032516359999999996,-0.009650296000000001,0.018107988,-0.022765214000000006,7.502,0,0
0.018530526000000002,-0.0046691632000000005,-0.005896156000000001,0.020154108,-0.014289113999999999,7.503,0,0
0.011004012000000002,-0.004646405199999999,-0.002794738,0.017269728,-0.012057934,7.504,0,0
0.006316846000000001,-0.0027618851999999996,-0.0015730082000000002,0.012163854,-0.012263854000000001,7.505,0,0
0.004551152,0.0020691328,-0.0028424282,0.0057656669999999995,-0.014211856,7.506,0,0
0.004087742,0.006834552800000001,-0.005228640200000001,0.0007914390000000001,-0.015596140000000003,7.507,0,0
0.004404292000000001,0.007953576,-0.0043920342000000005,-0.00026937520000000004,-0.011957536000000001,7.508,0,0
0.005337408,0.0058702132,-0.0017101522000000009,6.409499999999999e-05,-0.003599896,7.509,0,0
0.007192714000000001,0.0029763292,-0.0014240460000000002,-0.0001086174,0.005210223999999999,7.51,0,0
0.008950528000000001,-0.0009034888000000003,-0.001370152000000001,0.0007172715999999999,0.013846984,7.511,0,0
0.011542920000000002,-0.0052591288,-0.0007580520000000004,0.0016961876,0.021686244,7.512,0,0
0.014916802,-0.008305372800000002,-0.004043058,0.0010771497999999997,0.02491226,7.513,0,0
0.01629664,-0.010067576,-0.009519298,-0.0003487284000000001,0.02376202,7.514,0,0
0.015253898000000002,-0.009700858,-0.010119698,-0.0024894220000000002,0.020315978000000002,7.515,0,0
0.012508026,-0.006639643999999999,-0.006545188,-0.005914324,0.014924548000000001,7.516,0,0
0.006143446000000002,-0.0033592479999999996,-0.0020178279999999997,-0.007964368,0.009114931400000002,7.517,0,0
-0.0034297739999999996,-0.000727196,0.002203234,-0.007286278,0.0045855314000000005,7.518,0,0
-0.011941094,0.002746356,0.005056372000000001,-0.006224098,0.0018216754,7.519,0,0
-0.019811972,0.005832454000000001,0.0053051376,-0.0065651780000000005,0.0014676094,7.52,0,0
-0.027643400000000005,0.008079880000000001,0.0038662310000000004,-0.007685598,0.0039530994,7.521,0,0
-0.0334769,0.010548784,0.0029067730000000005,-0.008811122000000001,0.007938796000000001,7.522,0,0
-0.03654186,0.012291544000000001,0.002212547,-0.009160766800000001,0.012875356000000001,7.523,0,0
-0.037781720000000005,0.012660570000000001,0.0017486862,-0.0059068788,0.019182012000000002,7.524,0,0
-0.03705528,0.012046960000000002,0.0011856185999999998,0.0032840212,0.025012480000000004,7.525,0,0
-0.03274528,0.00970085,0.00018458119999999992,0.0161534212,0.029095020000000003,7.526,0,0
-0.025167408,0.005877226000000001,-0.0011627888000000002,0.0280875612,0.030965180000000002,7.527,0,0
-0.016204054000000002,0.0019286639999999999,-0.0019212970000000002,0.0359802,0.028148860000000005,7.528,0,0
-0.007202140000000001,-0.002922886,-0.0018094355999999999,0.03735172,0.020783978,7.529,0,0
0.0017568999999999996,-0.009345736,-0.0012569943999999997,0.032400502,0.011711918000000002,7.53,0,0
