bandpass 1,bandpass 2,bandpass 3,bandpass 4,bandpass 5,time,onset,mark
-0.00190747,0.0009142266,-0.00031827620000000005,-0.0004722988,0.0015820340000000004,4.543,1,1
-0.0025471520000000004,0.0012939186,-0.00011318820000000003,-0.0004963204,0.0023631760000000003,4.544,0,0
-0.003032604,0.0013858608,0.00012678979999999996,-0.0003722632,0.002803954000000001,4.545,0,0
-0.00266416,0.0010425562,0.0007990478,0.00017947679999999998,0.0021278072000000003,4.546,0,0
-0.0028523280000000003,0.0004732362000000001,0.0009782652,0.000239893,0.0017016094000000001,4.547,0,0
-0.002725234,2.6488200000000012e-05,0.0008029514000000001,-0.0003055302,0.0015963854,4.548,0,0
-0.0026414200000000002,-5.784179999999999e-05,0.0009705374000000001,-0.0005472246,0.0009049684000000001,4.549,0,0
-0.0031617940000000003,5.5082000000000026e-05,0.0012715234000000002,-0.0008107832,0.0003763646,4.55,0,0
-0.003648292,-0.00016378399999999993,0.0014532994,-0.0010047567999999997,0.00045164520000000015,4.551,0,0
-0.00429387,-0.000592766,0.0018912376000000002,-0.00022798700000000002,0.00021830780000000005,4.552,0,0
-0.004973116000000001,-0.0007354504,0.0013091260000000003,0.0008043030000000001,-0.0004222262,4.553,0,0
-0.004555139400000001,-0.0006726283999999999,-0.0007012340000000002,0.0011455374000000002,-0.0010372492000000001,4.554,0,0
-0.0032314674,-0.00031258040000000005,-0.002304682,0.0014754864000000002,-0.0014664234,4.555,0,0
-0.0010026553999999998,0.0007653956000000001,-0.0032157780000000003,0.0018192080000000001,-0.0021673612,4.556,0,0
0.0024565726,0.0019454916,-0.0039309016,0.0012712404,-0.003212136,4.557,0,0
0.0050885686,0.0022023266,-0.0036165696,0.0006972644000000001,-0.00391889,4.558,0,0
0.006197124,0.0019747824,-0.0014708975999999999,0.0006395284400000001,-0.0041090020000000005,4.559,0,0
0.006873194,0.0017109204,0.0007186004,0.00028095144,-0.004271804000000001,4.56,0,0
0.00622317,0.00126979,0.0015746464,-0.00026929716,-0.0037984320000000005,4.561,0,0
0.004342113999999999,0.0008033378000000002,0.002557158,-0.00025961796,-0.0026015230000000006,4.562,0,0
0.0027571650000000002,0.0002226552000000001,0.00417627,8.886604e-05,-0.002138229,4.563,0,0
0.001231593,-0.0006990946000000001,0.0046244500000000004,-1.6238799999999964e-05,-0.0016035122000000004,4.564,0,0
0.00023331700000000006,-0.0014611586000000001,0.00422582,-0.00012436339999999998,-0.0003447182000000002,4.565,0,0
0.0006504910000000002,-0.0015834522000000002,0.004214702,9.714500000000003e-05,0.00018755579999999992,4.566,0,0
0.0008461690000000001,-0.0017244298000000003,0.003766074,-7.870879999999998e-05,0.0005145587999999999,4.567,0,0
6.754200000000008e-05,-0.0020974158000000003,0.0019915180000000003,-0.0005611726000000001,0.0015848468,4.568,0,0
-0.000519658,-0.0017317298,-0.0014662880000000003,-0.00036868640000000004,0.0019566456,4.569,0,0
-0.0015173219999999998,-0.0009152358,-0.004697772000000001,-0.000157357,0.0013397618,4.57,0,0
-0.003042948,-0.0008036796,-0.006401708000000001,-0.0005487708,0.0013923598,4.571,0,0
-0.004016414,-0.0007927221999999999,-0.0063050860000000005,-0.0004714182,0.0012929818000000002,4.572,0,0
-0.003923722,-0.00042646620000000003,-0.003575764000000001,-0.0003307784,0.0004477938,4.573,0,0
-0.003328998,-0.0012538162000000001,0.00024948799999999953,-0.0004998392,-7.3898000000000084e-06,4.574,0,0
-0.003264826,-0.0029024342000000002,0.0026448758,-0.00022060860000000003,-0.000262936,4.575,0,0
-0.002957844,-0.0033774524000000005,0.0035602337999999993,0.0003575754000000001,-0.00090997,4.576,0,0
-0.0024457197999999997,-0.003050038,0.0030534216000000004,0.0006076556000000001,-0.0012467070000000001,4.577,0,0
-0.0017264761999999999,-0.0022964,0.00096184,0.0003751356,-0.0008348012000000001,4.578,0,0
-0.0007361441999999998,-0.0005640520000000002,0.0007225059999999999,9.060060000000002e-05,-0.0007008484,4.579,0,0
0.0003740900000000001,0.0014959600000000002,0.0019328902,-0.00016732160000000002,-0.0004319974,4.58,0,0
0.0017598820000000004,0.0037209780000000007,0.0011233501999999998,-0.0006780656,0.0001851606,4.581,0,0
0.0033721038000000007,0.006240256,-0.0012721636000000006,-0.0008084626000000001,0.00036731960000000005,4.582,0,0
0.004854430200000001,0.008065619999999999,-0.0036758620000000002,-0.0004063036000000001,0.0004220198,4.583,0,0
0.005818778200000001,0.008698572,-0.005947592000000001,-0.0004392116,0.0008688750000000001,4.584,0,0
0.006332898000000002,0.007331138,-0.007587604,-0.0004892008,0.0010895086,4.585,0,0
0.005368374400000001,0.0032949880000000004,-0.00587176,-0.00011035640000000001,0.0005525826,4.586,0,0
0.0035410770000000005,-0.0016055919999999999,-0.0016342099999999997,-0.0003186812000000001,0.00016910260000000012,4.587,0,0
0.001521465,-0.004827688,0.001477058,-0.0004968802000000001,9.157440000000003e-05,4.588,0,0
-0.000536213,-0.006353162,0.00236554,0.00014940979999999998,-0.00031776980000000003,4.589,0,0
-0.002004475,-0.006509022000000001,0.002322336,0.000349714,-0.00049819666,4.59,0,0
-0.0032375093999999997,-0.005015948,0.0016594404,0.0001689442,0.00022891734000000003,4.591,0,0
-0.00426851,-0.0033256460000000002,0.0004130984,0.0005694294,0.0007979813400000001,4.592,0,0
-0.004813286,-0.0025800820000000005,0.0003465543999999998,0.0008974594000000001,0.00065112774,4.593,0,0
-0.005478436000000001,-0.0023030398,0.0013522624,0.0005038848,0.00070020254,4.594,0,0
-0.005940844000000001,-0.0015648018,0.0026007284,0.000390506,0.00075747,4.595,0,0
-0.005641414000000001,-0.0007920568000000001,0.0035684280000000002,0.0007937834000000001,0.00046769439999999997,4.596,0,0
-0.005222562,-0.00033784520000000004,0.003781464,0.0004102204,0.000322419,4.597,0,0
-0.0038163820000000005,0.00022763340000000004,0.0032865480000000002,-0.00023020360000000005,0.0005627168,4.598,0,0
-0.0017341320000000002,0.0007049692,0.002290458,0.000193585,0.0007721154000000001,4.599,0,0
-5.643400000000001e-05,0.0008026600000000001,0.0014419915999999999,0.000431179,0.0005694134000000001,4.6,0,0
0.0022057300000000004,0.001264065,0.0002667115999999999,-0.00016004500000000004,0.0006529170000000001,4.601,0,0
0.004772520000000001,0.0027912054,-0.0013008884000000002,-0.000241634,0.0008275224000000002,4.602,0,0
0.005733722000000001,0.0040233608,-0.0023453824,-0.00033774799999999997,0.0004292546,4.603,0,0
0.005606846,0.0039219268,-0.0029342844000000002,-0.001178646,0.00031978819999999995,4.604,0,0
0.005387340000000001,0.003215316,-0.00337555,-0.0015155666,0.0005570060000000001,4.605,0,0
0.004591286000000001,0.002102246,-0.0031541114000000004,-0.0010337725999999998,-2.2752000000000015e-05,4.606,0,0
0.0036384560000000004,0.00047973320000000016,-0.0031923194000000005,-0.0007174464000000001,-0.000653916,4.607,0,0
0.0030167500000000003,-0.0006308568,-0.0044188834,-0.0002495462,-0.0005689474,4.608,0,0
0.0029524440000000007,-0.0005211967999999999,-0.0041812834,0.0006825658,-0.0011676082000000002,4.609,0,0
0.0030744500000000007,0.0004090392000000001,-0.0035402517,0.0015074304,-0.0020532672,4.61,0,0
0.0023458324000000005,0.0008259914000000002,-0.0032794427,0.0014255,-0.0017011492000000002,4.611,0,0
0.0013616432000000001,0.00017338820000000008,-0.0002858187,0.0009614298000000001,-0.0016261932000000002,4.612,0,0
0.0004303470000000002,-0.0012165118,0.0035075753,0.0009338928600000001,-0.00215488,4.613,0,0
-0.0015104250000000001,-0.0027914378,0.004760735300000001,0.00051026966,-0.0019151020000000003,4.614,0,0
-0.003921995,-0.0036200678,0.004496833600000001,-0.00044135234000000005,-0.0014013420000000003,4.615,0,0
-0.0053439654,-0.0036861892000000004,0.004151357800000001,-0.0005073693400000001,-0.0016401880000000003,4.616,0,0
-0.005891278200000001,-0.0032610552,0.0025660697999999997,-2.2754940000000004e-05,-0.0015978054000000002,4.617,0,0
-0.0067366100000000005,-0.0022673812000000002,0.0015313438000000002,-4.933020000000003e-05,-0.0005146894000000001,4.618,0,0
-0.006937542,-0.0015778892,0.0025265338000000004,0.000508075,-0.0007991654,4.619,0,0
-0.005462922,-0.0016868512000000001,0.0038543378000000005,0.0009125786,-0.0009223873999999999,4.62,0,0
-0.0027188379999999995,-0.0014712732,0.0042206330000000005,0.0007678992000000001,-0.0012396334,4.621,0,0
-0.0009753679999999997,-0.0013243254,0.0037056138000000002,0.0006211768000000001,-0.0009265961999999999,4.622,0,0
-0.0007254220000000001,-0.0012030867999999998,0.0023703118000000002,0.0009776028,0.0042758278,4.623,0,0
0.0006558568000000001,1.1283199999999913e-05,-0.0004526361999999997,-0.00010856319999999996,0.0111435138,4.624,0,0
0.0010897188000000002,0.0015402892,-0.0029972022,-0.0034152028000000003,0.0157551318,4.625,0,0
-0.0010398592,0.0028554004000000003,-0.0049269832,-0.00527586,0.0193754358,4.626,0,0
-0.0024098512000000002,0.0048252646,-0.00654378,-0.005600676000000001,0.019921903999999997,4.627,0,0
-0.0007032232000000001,0.007263620000000001,-0.006675622000000001,-0.005241574000000001,0.01226123,4.628,0,0
0.003211686,0.009108028,-0.005714516000000001,-0.0026320479999999997,0.001641590000000001,4.629,0,0
0.008693284,0.009898034,-0.004019030000000001,0.002791412,-0.007930890000000001,4.63,0,0
0.013696186,0.007794792000000001,-0.0007286180000000003,0.007489452000000001,-0.01715995,4.631,0,0
0.015851188000000002,0.003015428,0.003439306,0.010277048,-0.024352434000000003,4.632,0,0
0.0150490114,-0.0021228920000000004,0.006477392,0.01114,-0.02768322,4.633,0,0
0.010160309400000001,-0.006893512000000001,0.007650932000000001,0.009523064000000001,-0.026503640000000005,4.634,0,0
0.003212451399999999,-0.009815534,0.0074633994,0.0065955760000000006,-0.022604586,4.635,0,0
-0.0026648186000000004,-0.009444476,0.006183627400000001,0.0018704499999999996,-0.015453180000000002,4.636,0,0
-0.007018452600000001,-0.007129788000000001,0.0031443254,-0.00315903,-0.00551916,4.637,0,0
-0.009608390000000001,-0.004749044,-0.0005580006000000003,-0.00738001,0.004472480000000001,4.638,0,0
-0.010239098,-0.0025294580000000005,-0.0030103306000000005,-0.010999374,0.01327882,4.639,0,0
-0.010258106000000001,-0.0012380359999999999,-0.0047571440000000005,-0.013213926,0.020709846,4.64,0,0
-0.00964328,-0.00045422000000000013,-0.006325172,-0.013098294,0.024944140000000004,4.641,0,0
-0.007100688,0.00055363,-0.006465176,-0.01081459,0.025172560000000004,4.642,0,0
-0.0045223112,0.001133168,-0.005203658,-0.007379494,0.022539460000000004,4.643,0,0
-0.0025261852000000003,0.001527818,-0.003675042,-0.0028771660000000004,0.017113430000000002,4.644,0,0
-0.0002527492,0.0018928,-0.001933971,0.002207474,0.009071790000000001,4.645,0,0
0.0016753108,0.002276094,2.0228999999999972e-05,0.0067183880000000005,0.0001833500000000001,4.646,0,0
0.0028436808,0.00261135,0.001640753,0.009852724,-0.00802113,4.647,0,0
0.0038149180000000005,0.002767032,0.003080701,0.011970968,-0.015389489999999999,4.648,0,0
0.004661460000000001,0.0029012060000000004,0.005169741,0.012905140000000002,-0.02055108,4.649,0,0
0.005162738000000001,0.0027053240000000003,0.007404412,0.011342834,-0.02214148,4.65,0,0
0.005253826000000001,0.002016322,0.008257626,0.008234178,-0.02092168,4.651,0,0
0.0044556000000000005,0.0013648362,0.00761005,0.0045758199999999995,-0.017434288,4.652,0,0
0.0031736354000000003,0.0007194629999999999,0.0060810418,-0.00017108400000000017,-0.010895054,4.653,0,0
0.0013843394000000002,-0.00017741699999999994,0.0030399238,-0.0051593640000000005,-0.0027152740000000006,4.654,0,0
-0.0007884546000000002,-0.000690899,-0.0011484282000000002,-0.008626118,0.0051117659999999985,4.655,0,0
-0.0025559706000000005,-0.0006884894000000001,-0.004738216200000001,-0.010780162,0.012744046,4.656,0,0
-0.0040320166000000005,-0.00022394359999999998,-0.0072048782000000006,-0.012389684,0.019128634,4.657,0,0
-0.0049934919999999995,0.00047963559999999994,-0.008657000000000001,-0.011935338000000002,0.02225128,4.658,0,0
-0.00494907,0.0010983435999999999,-0.008697282,-0.0093765364,0.02192298,4.659,0,0
-0.004437868,0.0019726976,-0.007217136000000001,-0.0060122684000000004,0.019043154000000003,4.66,0,0
-0.0036657642000000002,0.00238687,-0.00531119,-0.0015704904000000005,0.013477174,4.661,0,0
-0.0024005504,0.0018833477199999998,-0.002765684,0.0034090496,0.005682573999999999,4.662,0,0
-0.0011879048,0.0011478897199999998,0.0004005800000000002,0.0073251076,-0.002273946000000001,4.663,0,0
-0.0002017128,0.00087354992,0.003036746,0.010222406,-0.009065026,4.664,0,0
0.0008241012000000001,0.00059410992,0.004904932,0.012322438000000002,-0.01464694,4.665,0,0
0.0015461394,-0.0005539020800000001,0.005686470000000001,0.012265946,-0.0181401,4.666,0,0
0.0017354476,-0.0021359878,0.005735628,0.010327926000000001,-0.01838542,4.667,0,0
0.001401666,-0.0032269998000000006,0.004806166000000001,0.00771385,-0.016518404,4.668,0,0
0.000292678,-0.00421771,0.0029423820000000008,0.004295778,-0.012787357000000003,4.669,0,0
-0.0011869240000000002,-0.005548702000000001,0.0012052800000000004,0.0001564419999999997,-0.006630239000000001,4.67,0,0
-0.0026861660000000002,-0.005660484000000001,-0.00012469999999999994,-0.0037389440000000006,0.0003521010000000005,4.671,0,0
-0.003997622,-0.00448256,-0.00209476,-0.006469164000000001,0.006859661,4.672,0,0
-0.0042450840000000005,-0.0031650593179999996,-0.004469088,-0.008412908000000002,0.012762645,4.673,0,0
-0.00320486,-0.0019519025179999998,-0.00566764,-0.009542400000000001,0.016693758000000003,4.674,0,0
-0.001337494,-0.0007055145180000003,-0.006011738,-0.009078424000000002,0.017304280000000002,4.675,0,0
0.00105093,0.000513005482,-0.005192700200000001,-0.007338656000000001,0.015474732,4.676,0,0
0.0033801380000000004,0.0013205934820000001,-0.0032085781999999998,-0.004768368000000001,0.0117429744,4.677,0,0
0.005567568,0.0016544008000000002,-0.0008859021999999998,-0.0012544440000000004,0.0060931364,4.678,0,0
0.007703256,0.0019820980000000003,0.0014528698000000001,0.00259192,-0.00037488360000000054,4.679,0,0
0.008578202000000002,0.0018939146000000002,0.0031988338,0.00564776,-0.006265763600000001,4.68,0,0
0.007956804000000001,0.0009725966000000003,0.004050482,0.007922658,-0.011450655600000002,4.681,0,0
0.007141194000000001,0.00045749800000000003,0.003849578,0.009093104000000001,-0.015675198,4.682,0,0
0.0056422398,0.000284613,0.003063092,0.008680682,-0.01765148,4.683,0,0
0.0028747478000000003,-3.9500199999999944e-05,0.0020427444,0.00700604,-0.0171299,4.684,0,0
0.00041262380000000004,1.4572000000000022e-05,0.0005087803999999999,0.004577944,-0.014665064000000002,4.685,0,0
-0.0013697862,0.00043197746000000006,-0.0013949856,0.001680024,-0.010207978,4.686,0,0
-0.0032143962000000005,0.00034192846000000003,-0.0028548496,-0.0016656520000000005,-0.004015418,4.687,0,0
-0.005102838,-0.00056841654,-0.0032227356,-0.0047088220000000005,0.002181502,4.688,0,0
-0.006505188000000001,-0.0015588333399999999,-0.0029588340000000005,-0.0070765,0.007731602,4.689,0,0
-0.006952866,-0.00178650774,-0.0027907360000000003,-0.008917804,0.012372866000000001,4.69,0,0
-0.0069903100000000004,-0.0014867472,-0.0024134819999999998,-0.009646218,0.015134040000000001,4.691,0,0
-0.006726004000000001,-0.0009707296,-0.0013500080000000002,-0.008660864,0.015491480000000002,4.692,0,0
-0.005436374000000001,0.00046235440000000013,-0.00074914142,-0.0067812691999999996,0.013806166000000002,4.693,0,0
-0.0036279909828000004,0.0019716484,-0.0005823814199999999,-0.0043544152000000004,0.010456490600000003,4.694,0,0
-0.0018938509828000001,0.002553992,0.00103263658,-0.0010260692,0.0052331886,4.695,0,0
0.00019270101719999998,0.002639448,0.00311901858,0.0023243268,-0.0003838114000000003,4.696,0,0
0.0023970230172,0.00256391,0.00442426858,0.004966342800000001,-0.005189271400000001,4.697,0,0
0.0038980630172000003,0.002241442,0.005930436,0.007213756,-0.0094530174,4.698,0,0
0.004620108,0.0019457760000000002,0.006760658,0.008600228,-0.012749422,4.699,0,0
0.004484594,0.0015882462,0.0053490582,0.008333981999999998,-0.013686199999999999,4.7,0,0
0.0033797620000000006,0.0012282772,0.0032146681999999996,0.007149516,-0.012653294,4.701,0,0
0.0021433430000000002,0.0013930831999999999,0.0016590061999999998,0.0050161419999999995,-0.010756054000000001,4.702,0,0
0.0010336114000000002,0.0012787972,-0.00015272380000000012,0.001477544,-0.007174792000000001,4.703,0,0
4.697400000000041e-06,0.0008630372,-0.0016497038,-0.0024146620000000006,-0.0018285719999999992,4.704,0,0
-0.0005930239999999999,0.0004909154000000001,-0.0018915400000000001,-0.005226116000000001,0.003591228000000001,4.705,0,0
6.905000000000008e-05,-0.0002140116,-0.001977318,-0.007261094,0.008078502,4.706,0,0
0.001407683,-0.0005376978,-0.00299238,-0.008596928,0.012285042,4.707,0,0
0.001597878,-0.00017799979999999992,-0.00438472,-0.008020776,0.014864839999999999,4.708,0,0
0.001196126,-0.00017797980000000004,-0.005500034000000001,-0.006294142,0.014251046,4.709,0,0
0.0007452993999999999,-0.0005109202,-0.005949124,-0.0044091873999999994,0.011849834,4.71,0,0
-0.0009220246000000001,-0.0009831462,-0.004806624,-0.0020459794,0.008318258,4.711,0,0
-0.0037467906,-0.0021263360000000004,-0.00220435,0.0006807606,0.003557632,4.712,0,0
-0.004506784000000001,-0.00322332,0.00029701999999999973,0.0029800686,-0.001269876,4.713,0,0
-0.0030006519999999995,-0.003714032,0.0025645900000000003,0.0047845546,-0.005244622000000001,4.714,0,0
-0.001649484,-0.0033210904,0.00458891,0.0061352080000000005,-0.00851621,4.715,0,0
0.0006138840000000001,-0.0018130124000000003,0.004381108000000001,0.0064361999999999996,-0.010722493999999999,4.716,0,0
0.003349032,-0.00030447639999999984,0.002400104,0.005775608,-0.011248674000000002,4.717,0,0
0.0040048848000000005,0.00032772399999999994,0.0005560100000000002,0.00463316,-0.010360624,4.718,0,0
0.0031080674000000005,0.0008529118200000001,-0.0011437740000000002,0.0029288359999999998,-0.008316828000000002,4.719,0,0
0.0025577112,0.00150555022,-0.0019167479999999998,0.0003161039999999998,-0.004917678,4.72,0,0
0.0015162093999999998,0.00170795422,-0.0014441280000000003,-0.0023265020000000003,-0.0008463340000000002,4.721,0,0
0.00012861340000000005,0.00190941222,-0.000778058,-0.004188366000000001,0.0027417580000000004,4.722,0,0
-0.00026463139999999995,0.00234797382,0.00025204,-0.005922088000000001,0.0061656160000000005,4.723,0,0
-0.00040018599999999997,0.0026457019999999998,0.0011607348,-0.006865240000000002,0.00925212,4.724,0,0
-0.00036876179999999995,0.001532806,0.0014026828,-0.005959914000000001,0.010577010000000001,4.725,0,0
-2.2219999999998578e-06,-0.0008645180000000003,0.0021410948000000003,-0.0045445417999999994,0.00983849,4.726,0,0
0.0002504406000000001,-0.0026569560000000002,0.0025140308000000003,-0.0033018886000000004,0.0079833376,4.727,0,0
0.0010631066,-0.003338193600000001,0.0020673508,-0.0011435166,0.005053409600000001,4.728,0,0
0.0018943946,-0.0035785888000000004,0.002318316,0.0013816834,0.0009678396000000005,4.729,0,0
0.0012745686,-0.0029467202,0.0022898000000000003,0.0030436134000000003,-0.0030471604000000003,4.73,0,0
-0.00019002740000000008,-0.0012129534,0.0014827080000000001,0.0043413872000000004,-0.0061031644000000005,4.731,0,0
-0.0015822820000000004,-0.0005279474,0.0010448172000000003,0.005627298,-0.008330678000000001,4.732,0,0
-0.0024219440000000005,-0.0005471486,-9.324800000000064e-06,0.005374416,-0.009717686,4.733,0,0
-0.0026390980000000003,8.178660000000002e-05,-0.0021115088,0.0038681079999999994,-0.009628658000000002,4.734,0,0
-0.002912504,0.0008603940000000001,-0.004029608800000001,0.0027986898,-0.008337326,4.735,0,0
-0.0033499280000000003,0.0014288172,-0.0042210188,0.0012724078000000002,-0.006319128,4.736,0,0
-0.0020396856,0.0023516652000000002,-0.0020998220000000008,-0.0008645801999999998,-0.0031513780000000007,4.737,0,0
-0.0005467456000000002,0.0030721420000000004,0.0001372519999999996,-0.0020755602000000002,0.0005538340000000002,4.738,0,0
-0.0011962576,0.0027339160000000003,0.0015731759999999997,-0.0025893582,0.003773382,4.739,0,0
-0.0017177876000000001,0.002273956,0.002547728,-0.00339079,0.00677867,4.74,0,0
-0.0014000295999999999,0.001511348,0.0018168919999999999,-0.003078573,0.008863817999999999,4.741,0,0
-0.00190012,0.0005851500000000002,0.00010656200000000007,-0.001627743,0.008934186,4.742,0,0
-0.00366707,-0.00021701400000000007,-0.00041880399999999994,-0.00046825899999999995,0.008042362,4.743,0,0
-0.003918772,-0.0006529980000000001,-0.00018421039999999995,0.001069867,0.0062280548000000005,4.744,0,0
-0.002217302,-0.000698256,0.0002802316,0.0027476030000000004,0.0027463508,4.745,0,0
0.0004805240000000002,-0.0007883339999999999,0.0009147415999999999,0.0035833560000000006,-0.00047442320000000014,4.746,0,0
0.004164772000000001,-0.001157276,0.0010874296000000002,0.0038578500000000003,-0.0028947672000000004,4.747,0,0
0.00727588,-0.001277264,0.0012942156000000002,0.004470366000000001,-0.005419103200000001,4.748,0,0
0.009019298,-0.0013364564000000001,0.0015389430000000003,0.00460021,-0.006889276000000001,4.749,0,0
0.009143716,-0.0019918824,0.001493797,0.0036234600000000002,-0.0065419200000000005,4.75,0,0
0.007341206200000001,-0.00159196616,0.0013460339999999999,0.0027878906000000005,-0.00580236,4.751,0,0
0.0037999102000000006,-0.00053265216,0.0007796992000000001,0.0018468264000000005,-0.0051225360000000005,4.752,0,0
0.0008094502,-5.491975999999998e-05,-0.00018430480000000005,-0.00020077760000000017,-0.0032023019999999998,4.753,0,0
-0.0011134338,0.00055489064,-0.0010920178,-0.0022377996,-0.00053224,4.754,0,0
-0.0025114318,0.0013115826400000002,-0.0022538558,-0.0031334756,0.001873026,4.755,0,0
-0.002794658,0.0014411418000000002,-0.0035168528000000003,-0.004367566200000001,0.004076218,4.756,0,0
-0.0029797020000000003,0.0017126658000000002,-0.004358882,-0.005726806000000001,0.006340673999999999,4.757,0,0
-0.003194946,0.0022418434,-0.004376234,-0.005367968000000001,0.00725351,4.758,0,0
-0.002905486,0.0019600338,-0.0036506818,-0.00426436326,0.006613626000000001,4.759,0,0
-0.0026060580000000005,0.0012758717999999999,-0.0028631252000000003,-0.00321708526,0.0054945060000000006,4.76,0,0
-0.0023132668,0.0007549184,-0.0016417298,-0.0012858632600000002,0.003552996,4.761,0,0
-0.0014360528000000002,0.00039957619999999997,-0.00022208180000000011,0.0012288727400000003,0.0008444139999999999,4.762,0,0
-0.0007423358000000002,-2.353980000000005e-05,0.0004790246,0.0028164307400000005,-0.0019879480000000002,4.763,0,0
-0.0008863058,4.157799999999969e-06,0.0006729178,0.0035379660000000005,-0.004279352,4.764,0,0
-0.0009712157999999999,0.0007127478,0.0012644132,0.004284314000000001,-0.006350414,4.765,0,0
-0.0009189338,0.0008628978,0.0017536658,0.004385822,-0.007428748000000001,4.766,0,0
-0.0012855382,-0.000247878,0.0022387018,0.0034881540000000003,-0.007104692000000001,4.767,0,0
-0.0014835711999999998,-0.001287588,0.0037201294,0.0026585178000000003,-0.005901124000000001,4.768,0,0
-0.0007510526,-0.0016130298000000003,0.00476864,0.0016787237999999999,-0.0038730559999999997,4.769,0,0
0.00019884140000000006,-0.0016399458000000001,0.0045102446,-0.0002772822000000003,-0.0012139040000000002,4.77,0,0
0.0005779722000000001,-0.0006771918,0.0037623406,-0.0019471902000000002,0.0013463359999999998,4.771,0,0
0.0011465526,0.0008789262,0.0022857966000000003,-0.0030374682000000007,0.003037104,4.772,0,0
0.0023047906000000003,0.0021343222,-0.0003987534,-0.004475174,0.004740682,4.773,0,0
0.00306997,0.002642128,-0.0024928234,-0.0051659340000000005,0.005986894,4.774,0,0
0.0033739980000000004,0.0022170180000000003,-0.003160336,-0.004295849000000001,0.005731152,4.775,0,0
0.0032313046000000006,0.0015579298,-0.0035064040000000003,-0.0030287350000000003,0.004937456,4.776,0,0
0.0025549612,0.00013265180000000018,-0.0028266108000000005,-0.0019739426,0.004234465999999999,4.777,0,0
0.0019623192,-0.0021916002,-0.0010704147999999998,-0.0003950126000000001,0.002444358,4.778,0,0
0.0014211852000000002,-0.0033864662,-3.7271199999999895e-05,0.0012138994000000002,-0.00020541400000000012,4.779,0,0
0.0009309431999999999,-0.0031917292,0.00023967480000000005,0.0017186284000000004,-0.0017745360000000002,4.78,0,0
0.0005696106,-0.003318145,0.0006534234,0.0016655144000000002,-0.002865526,4.781,0,0
0.000308632,-0.0024970993700000003,0.0005988689999999999,0.0020320860000000002,-0.004176346,4.782,0,0
-0.0008159060000000001,-0.0008082321700000001,6.929779999999999e-05,0.0019671520000000002,-0.004557660000000001,4.783,0,0
-0.002618224,-0.0009576881700000001,-0.00016518980000000002,0.0010952798,-0.003932034,4.784,0,0
-0.003935206,-0.0015550151700000003,-0.0003369638000000001,0.0005649546,-0.0032642803999999997,4.785,0,0
-0.004788858000000001,-0.00160272377,-0.0008317804000000001,-0.00013731739999999995,-0.0022552144,4.786,0,0
-0.005377192000000001,-0.0018705234000000004,-0.0015252212000000003,-0.0014954814,-0.0003251164000000002,4.787,0,0
-0.005389632000000001,-0.0016767634,-0.0019414940000000002,-0.0026418474000000003,0.0015875096000000002,4.788,0,0
-0.004541752,-0.0009788794000000001,-0.0016623210000000002,-0.0031990692,0.0031248456000000004,4.789,0,0
-0.0035784954000000002,-0.0011216994,-0.000595947,-0.003918548000000001,0.004706318000000001,4.79,0,0
-0.0021008654000000005,-0.0017169528000000002,-2.2035600000000037e-05,-0.003928418,0.005575160000000001,4.791,0,0
-5.0233999999999696e-06,-0.0014507308,-0.0004316996,-0.0023210600000000002,0.004969836,4.792,0,0
0.0015633146,-0.000932142,-0.0008278576000000001,-0.0007917079999999999,0.0038998619999999996,4.793,0,0
0.0026387786,0.00019622800000000011,-0.0015625526000000002,0.000549042,0.002516114,4.794,0,0
0.0043258920000000005,0.0016584940000000002,-0.0022447936000000003,0.002589496,-0.0001650600000000003,4.795,0,0
0.005972532000000001,0.0027378520000000003,-0.0022769670000000004,0.004153406,-0.0026767020000000004,4.796,0,0
0.006406152000000001,0.0036185520000000006,-0.001835205,0.004570976,-0.0039163520000000005,4.797,0,0
0.006462764000000001,0.0038840520000000003,-0.000958775,0.00507393,-0.004996962000000001,4.798,0,0
0.006109824200000001,0.00346344,0.0001799849999999999,0.005342634000000001,-0.005504090000000001,4.799,0,0
0.004419873800000001,0.002555084,0.0010572519999999998,0.0045711960000000005,-0.004682908,4.8,0,0
0.0020643557999999998,0.0016374960000000002,0.001906858,0.0033383310000000004,-0.003479016,4.801,0,0
2.6419799999999913e-05,0.00014057799999999993,0.002853188,0.0020778748,-0.0024438458000000003,4.802,0,0
-0.0017171222000000002,-0.0019527200000000002,0.003025404,0.0007594348000000003,-0.0008458818000000001,4.803,0,0
-0.0029801304000000002,-0.0034669700000000006,0.0028077880000000007,-0.00038117519999999994,0.0010803062000000001,4.804,0,0
-0.0038120620000000006,-0.0036835320000000006,0.0021308288,-0.0007517869,0.0022957182,4.805,0,0
-0.004351832000000001,-0.0026118699999999996,0.0014927408,-0.0007962807,0.0032333922000000004,4.806,0,0
-0.004652572000000001,-0.0012006639999999997,0.0013308348000000002,-0.0011396225,0.004385876,4.807,0,0
-0.004529592,0.0006217120000000002,0.0010040998,-0.0008952080999999998,0.004888956,4.808,0,0
-0.003704344,0.002505434,0.0007144898000000001,-0.0002797900999999999,0.004389954,4.809,0,0
-0.0027079799999999996,0.003307064,0.0006696668,-0.0005046304,0.003847346,4.81,0,0
-0.0020533006000000003,0.0033019000000000004,0.0007738688000000001,-0.00021376199999999988,0.002649656,4.811,0,0
-0.0013734854,0.003205788,0.0008293968,0.0009343520000000001,0.00015247000000000025,4.812,0,0
-0.00053395062,0.0030551880000000003,0.0010654898,0.0013274656,-0.002100554,4.813,0,0
-0.00028042462000000005,0.002764968,0.0013770578000000002,0.0011960014,-0.0035629500000000005,4.814,0,0
-0.00019687862,0.0024662380000000004,0.0013809532000000002,0.0013750996,-0.004862448,4.815,0,0
0.00041939598,0.0019067990000000003,0.000993904,0.0010878354000000002,-0.00502698,4.816,0,0
0.00132866678,0.0012670184,0.0004036240000000001,5.95940000000007e-06,-0.0035904330000000005,4.817,0,0
0.0020462839999999998,0.0006231864,-0.00023673999999999993,-0.0008943846,-0.0022013338,4.818,0,0
0.002558648,-0.00031192559999999994,-0.0007938,-0.0015345584000000002,-0.0012567536,4.819,0,0
0.003242374,-0.0008609475999999999,-0.0011882811999999999,-0.0025699086000000003,-0.00011910559999999997,4.82,0,0
0.00347702,-0.0012444146,-0.0016700200000000004,-0.003513232,0.0008364524,4.821,0,0
0.0028421894,-0.0016249559999999999,-0.0019307680000000002,-0.003655084,0.0010469734,4.822,0,0
0.0019589375999999998,-0.0013663407600000002,-0.0017466796000000003,-0.003914622,0.0012625262,4.823,0,0
0.0011791935999999998,-0.00103962976,-0.0017448596000000003,-0.0038385520000000003,0.001809848,4.824,0,0
-0.0003491043999999999,-0.0010605957600000001,-0.0019131796000000003,-0.0026351272,0.0017979654,4.825,0,0
-0.0020372383999999995,-0.00107601176,-0.0016151736000000001,-0.0017744942000000002,0.0012465894000000003,4.826,0,0
-0.0018206517999999998,-0.0010482977600000001,-0.0011292350000000001,-0.0014918902,0.0010580196,4.827,0,0
-0.000279196,-0.0012899650000000001,-0.0007774394000000001,-0.000843575,0.0008472174000000001,4.828,0,0
0.0006855040000000003,-0.001514198,-0.0002100153999999999,-0.00045174220000000005,5.096200000000021e-06,4.829,0,0
0.0014266277760000003,-0.0016012020000000001,0.0003261350000000001,-0.0005076341999999999,4.099560000000004e-05,4.83,0,0
0.0019446577760000002,-0.0017826200000000002,0.000574277,7.417079999999998e-05,0.00039395360000000004,4.831,0,0
0.0008858217760000001,-0.0017930080000000002,0.000678563,0.0007175008000000001,-0.00029547060000000003,4.832,0,0
-0.001176076224,-0.0015908266000000003,0.000208537,0.0007882316,-0.000396967,4.833,0,0
-0.0028694142240000002,-0.0013274858,-0.000517331,0.0008670094000000001,2.953619999999997e-05,4.834,0,0
-0.0034008200000000006,-0.0004443578000000002,-0.0007277888,0.0007849826,-0.00017590580000000005,4.835,0,0
-0.0034775760000000005,0.0009421102,-0.0007364322,0.0002445936000000001,-1.0661799999999973e-05,4.836,0,0
-0.003478454,0.0017742682,-0.0009298494000000001,-0.0006481244,0.0008819662000000002,4.837,0,0
-0.0026904566,0.0025267308,-0.0006903784000000001,-0.0009372864,0.0012595668,4.838,0,0
-0.0014346106000000004,0.003149114,0.0003016716,-0.000764741,0.0015097168,4.839,0,0
-0.0004940966000000001,0.002143276,0.001054269,-0.001151431,0.0021498800000000003,4.84,0,0
0.0004127994,0.00071024,0.0013635544,-0.0010294089999999998,0.00222589,4.841,0,0
0.0012554,0.00044117600000000005,0.002278983,0.000227931,0.0018420700000000001,4.842,0,0
0.0012899092000000002,0.00023611200000000013,0.003170208,0.000991471,0.0012479762,4.843,0,0
0.001093498,-0.00026308980000000004,0.0032002800000000002,0.0011580050000000001,0.00022033420000000005,4.844,0,0
0.0006358602000000001,-0.00015277379999999996,0.0031421240000000005,0.0021708450000000002,-0.0014290458000000002,4.845,0,0
0.0005333822,0.0006169268,0.002249482,0.002698302,-0.0029030638000000003,4.846,0,0
0.0004790416,0.0001015128,-5.137600000000011e-05,0.002365264,-0.0035046698,4.847,0,0
0.00025721360000000005,-0.0021048852,-0.002368806,0.002488194,-0.003554086,4.848,0,0
0.0024808568,-0.0030620794,-0.005284624,0.0024543660000000004,-0.0029313926000000003,4.849,0,0
0.0051335806,-0.0020424974,-0.008410064000000002,0.0017794658,-0.0017288741999999999,4.85,0,0
0.0051161686,-0.0016903199999999997,-0.0077241686,0.0011947128000000002,-0.000608398,4.851,0,0
0.004881005799999999,-0.0015078484,-0.0050255886,0.0006516352000000001,-0.00034149800000000003,4.852,0,0
0.0045467091999999995,1.9319200000000078e-05,-0.0033925242000000006,-0.00021071080000000002,-7.007860000000004e-05,4.853,0,0
0.0016335331999999996,0.00037227120000000015,-1.457220000000009e-05,-0.0006958144,0.0007064899999999999,4.854,0,0
-0.0016690588,-0.0007869608,0.0038565638000000006,-0.0008291512,0.0009923676,4.855,0,0
-0.0030199308000000004,-0.0017397028000000001,0.0042053844000000005,-0.0009594722,0.0011411234,4.856,0,0
-0.0032257600000000003,-0.0021011444000000002,0.0029393542000000004,-0.0008811528000000001,0.0018653474,4.857,0,0
-0.0028506160000000007,-0.0019684832,0.0033134638000000007,-0.0006436724000000001,0.002083456,4.858,0,0
-0.002511086,-0.0014113787999999999,0.0033238978000000004,-0.00042572180000000005,0.0012144980000000003,4.859,0,0
-0.002101716,-0.0007130630000000001,0.0024405658,2.0321199999999944e-05,0.0006845084,4.86,0,0
-0.001474224,0.00018918100000000007,0.0025599998000000006,0.0007651712,0.0005032363999999999,4.861,0,0
-0.001702738,0.0014709509999999999,0.0032738820000000005,0.0014462354,-0.00018851160000000003,4.862,0,0
-0.0018840720000000003,0.0027387302,0.003114686,0.0013617521999999998,-0.0006934716000000001,4.863,0,0
-0.001343828,0.0041044318,0.0021240364,0.0009799271999999999,-0.0005738812,4.864,0,0
-0.000854546,0.00519674,0.001529287,0.0009619752000000001,-0.0008784916000000001,4.865,0,0
-0.00010217800000000002,0.005541023999999999,0.000618199,0.0005053416000000001,-0.0013796216000000001,4.866,0,0
0.0009038900000000001,0.0048629388,-0.0006802150000000001,3.4156000000000355e-06,-0.0010658536,4.867,0,0
0.0014710340000000002,0.0034805428,-0.001933451,0.00022109560000000005,-0.0009146796,4.868,0,0
0.00168168,0.0012435687999999999,-0.0016074974,0.00028300640000000006,-0.0012340540000000003,4.869,0,0
0.002090326,-0.0018557251999999998,0.0004496159999999999,-0.0004504416,-0.0006348084000000001,4.87,0,0
0.002207344,-0.0040471972,0.0019259540000000001,-0.0010623,0.00028465760000000005,4.871,0,0
0.0012895580000000001,-0.004674712,0.0029091639999999997,-0.001438194,0.0005192616,4.872,0,0
4.908599999999994e-05,-0.00482367,0.0034459139999999996,-0.0021372452,0.0009670556000000001,4.873,0,0
-0.00042285780000000006,-0.004110959,0.002575174,-0.002550508,0.0015490616000000002,4.874,0,0
-0.0007552797999999998,-0.0021451128,2.207799999999981e-05,-0.0021297914,0.0013980893200000002,4.875,0,0
-0.0011570165999999998,-0.0007605356000000001,-0.0037496820000000003,-0.0015056744,0.00111156112,4.876,0,0
-0.0005329184000000002,4.0236400000000054e-05,-0.007246682000000001,-0.0011682366,0.00113050512,4.877,0,0
0.0003850516,0.0005611084000000001,-0.009169258000000001,-0.0004519218,0.00039837912,4.878,0,0
-0.00014129060000000007,0.00024225940000000001,-0.009553394000000002,0.00024684620000000007,-0.0005760148800000001,4.879,0,0
-0.0015813246,-0.0003304028,-0.007542308000000002,0.00023804920000000007,-0.0009332162,4.88,0,0
-0.0027464778,-0.0011437779999999998,-0.0029605420000000018,0.00020210260000000005,-0.001634252,4.881,0,0
-0.004177172,-0.002268842,0.0014460919999999997,0.0003879988,-0.002523412,4.882,0,0
-0.004808904,-0.0026535326,0.004570050000000001,0.000613644,-0.0020796702,4.883,0,0
-0.0034933760000000003,-0.0019048385999999998,0.006310276,0.000863756,-0.0013149799999999999,4.884,0,0
-0.00176408,-0.0008858945999999999,0.005450376000000002,0.0012655204,-0.001283948,4.885,0,0
-0.00029427800000000003,0.0003880213999999999,0.0035714038,0.001554204,-0.0007752494,4.886,0,0
0.001236708,0.0018633994,0.0020777118,0.0015105428000000002,-4.5314599999999995e-05,4.887,0,0
0.00220229,0.003023918,0.0006051018,0.0017595168000000003,-8.296660000000003e-05,4.888,0,0
0.0019851960000000003,0.0031643440000000004,-0.0004959832,0.0017700028000000002,-0.0003975306000000001,4.889,0,0
0.0016706220000000003,0.0025535098000000005,-0.0016051232,0.0008791148,6.730500000000001e-05,4.89,0,0
0.0026185320000000002,0.0026222778000000004,-0.002723837,0.0004062244000000001,0.0005818784,4.891,0,0
0.004366694,0.0027313358,-0.002578513,0.00034655420000000007,0.0007905756000000001,4.892,0,0
0.005477727999999999,0.0022806118000000004,-0.0015126690000000003,-0.0006177238,0.0013739798,4.893,0,0
0.005727266,0.0022265978,-0.000748482,-0.0011185052000000002,0.0019812476000000004,4.894,0,0
0.005763794000000001,0.002551336,0.000951458,-0.0004404128000000001,0.0017452832000000003,4.895,0,0
0.0046845388000000005,0.0023611360000000002,0.003033976,-0.0005472744000000001,0.0012504445999999998,4.896,0,0
0.0023633948,0.001800832,0.003780684,-0.0010011310000000002,0.0011344456,4.897,0,0
0.0002568968,0.0013402638,0.0038240520000000005,-0.0005122028000000001,0.00034132780000000005,4.898,0,0
-0.0010776012000000001,0.0007118718,0.0032827836000000007,-0.0002361352000000001,-0.0004063602,4.899,0,0
-0.0023489232000000002,0.00016141580000000004,0.0019820596000000006,-0.0006874095999999999,-0.0002578844,4.9,0,0
-0.003863698,-0.00037978419999999994,0.0007490216,-0.0009779896,-6.712539999999994e-05,4.901,0,0
-0.004738288,-0.0016293262,0.00014470759999999996,-0.0007544056,-0.00012509579999999993,4.902,0,0
-0.0055071320000000005,-0.0028923,-0.0002929272000000001,-0.0007911374,0.000289182,4.903,0,0
-0.005957496,-0.0032033179999999997,-0.0008537328000000001,-0.0009345135999999999,0.0009586660000000002,4.904,0,0
-0.0051400374,-0.003418106,-0.0012338208000000001,-0.00027311360000000005,0.0007070276,4.905,0,0
-0.0038212876,-0.003517142,-0.0009456762000000002,0.0007263724,0.00022678520000000003,4.906,0,0
-0.002470825,-0.0023745106,-0.0006961202,0.0014186503999999997,0.00045178659999999996,4.907,0,0
-0.0011401402,-0.0007501406,-0.0008853600000000002,0.0020615019999999998,0.00015877579999999997,4.908,0,0
-0.0005865002000000001,0.00047556139999999997,-0.000619238,0.0026192859999999997,-0.0007584722000000001,4.909,0,0
-0.0009256728,0.0014932294000000001,-0.00021522780000000005,0.002260268,-0.0005495814000000001,4.91,0,0
-0.0014297226000000002,0.0018892334,-0.00030836660000000006,0.00180809926,0.00011402859999999989,4.911,0,0
-0.0017506452000000002,0.0013309760000000002,-0.0004383346000000001,0.0016217192599999998,-0.0002690952000000001,4.912,0,0
-0.000887786,0.00046222400000000007,-0.00033654,0.0007277114599999999,-0.0005662984000000002,4.913,0,0
2.579599999999986e-05,-0.0005327460000000001,-0.00017738980000000002,-6.109654000000005e-05,-0.00032122840000000004,4.914,0,0
0.000945062,-0.001529064,2.6785600000000007e-05,0.00030690546,-0.0006274278,4.915,0,0
0.003729266,-0.001606136,-0.00011060300000000003,0.0005022682,-0.0011386386,4.916,0,0
0.005788952,-0.001046793,-0.00045366300000000004,-0.0002777757999999999,-0.0008019748000000001,4.917,0,0
0.0056985560000000005,-0.000554692,-0.000300584,-0.00025159839999999993,-0.00023317479999999987,4.918,0,0
0.005597058,7.183999999999999e-05,-0.00014115920000000004,-1.7389329999999914e-05,-0.0002933508,4.919,0,0
0.004980638,0.00037976700000000004,-0.0004512928000000001,-0.00072238533,5.333679999999998e-05,4.92,0,0
0.0028886916,0.00025415440000000006,-0.00010147460000000001,-0.00130664533,0.0006644255999999999,4.921,0,0
0.0010928286,0.00038513740000000005,0.0006500694,-0.00132796933,0.00047692039999999995,4.922,0,0
-9.105400000000111e-06,0.00035632180000000005,0.0005318878,-0.0018888029300000002,0.00035806919999999994,4.923,0,0
-0.0011279854,0.00019358480000000004,-0.0002160132,-0.002954282,0.0008372124000000001,4.924,0,0
-0.0016003334000000001,0.0008505398,-0.0008456711999999998,-0.002837608,0.0006988868000000001,4.925,0,0
-0.0014067270000000002,0.0012780524000000001,-0.0016278646,-0.002409983,-0.0001162772000000001,4.926,0,0
-0.0015257202000000002,0.0007865364,-0.0024763925999999998,-0.002603227,-0.0003469044000000001,4.927,0,0
-0.0014589462,0.00018359099999999998,-0.0023618059999999997,-0.0019686694,-0.00036611500000000003,4.928,0,0
-0.0005111482,-0.0005671200000000001,-0.0016249679999999999,-0.0008077836000000001,-0.0006435306,4.929,0,0
-0.0001516842,-0.00106724842,-0.0004757000000000001,-0.0010728396000000001,-0.00041409140000000014,4.93,0,0
-0.0009347222000000001,-0.0010778804199999999,0.0007642460000000001,-0.0013703286,0.00013773420000000002,4.931,0,0
-0.0009977944000000001,-0.0007972006200000001,0.001532186,-0.0006854482,0.0001677364,4.932,0,0
-0.0007622454000000001,-0.00047415062000000013,0.00171827,-0.0008293758,0.00016133140000000005,4.933,0,0
-0.0010046372000000001,0.00012857755999999998,0.001207198,-0.0008556501999999999,0.00041709920000000005,4.934,0,0
-0.00019177320000000008,0.0008886059800000001,1.3419999999998797e-06,2.001800000000012e-06,0.0003296454000000001,4.935,0,0
0.0009859148000000001,0.0010953919800000002,-0.0013583520000000002,0.00014385999999999997,0.0002167032,4.936,0,0
0.0017813272000000002,0.0011216359800000002,-0.002341086,-0.0002288664,0.0006547274,4.937,0,0
0.0026426662,0.0013524622,-0.0028147304,7.076620000000009e-05,0.0010098562,4.938,0,0
0.003239824,0.00142834202,-0.0019395944000000004,0.00031865280000000005,0.000991518,4.939,0,0
0.003384494,0.00056843682,-0.0003998564,1.4315400000000029e-05,0.0012965166,4.94,0,0
0.0034676460000000004,-2.530217999999998e-05,0.0006379576,0.00038801320000000005,0.0017197212,4.941,0,0
0.0036192460000000004,0.00011482002000000002,0.0015137376,0.0014624512,0.0012744002,4.942,0,0
0.0034050960000000003,4.886360000000001e-05,0.002127158,0.0018826246,0.0004231622,4.943,0,0
0.0030651260000000005,-0.0001604462,0.002487178,0.0019603626,-8.942100000000006e-05,4.944,0,0
0.0020168640000000006,-0.000745415,0.0026150880000000002,0.0026958380000000003,-0.0008754430000000002,4.945,0,0
7.27480000000003e-05,-0.00164403,0.0014152120000000003,0.0029578,-0.001652383,4.946,0,0
-0.001925178,-0.00228719,-0.0006235799999999999,0.0020924744,-0.0017376354,4.947,0,0
-0.0037550760000000004,-0.0023290654,-0.0019330359999999997,0.001561228,-0.0015785834,4.948,0,0
-0.005577796,-0.0019419975999999998,-0.00320697,0.001393028,-0.0017598034,4.949,0,0
-0.007078624,-0.0007244576,-0.004183064,0.000727328,-0.0016540194,4.95,0,0
-0.00787002,0.0006277043999999999,-0.00242752,0.00038871420000000003,-0.0014087102000000002,4.951,0,0
-0.008606574,0.0010848074,0.0005370820000000001,0.0008760558,-0.0014631347999999999,4.952,0,0
-0.008460246000000001,0.0011318738,0.0017025000000000002,0.0009086582000000001,-0.0011168366000000002,4.953,0,0
-0.00718046,0.0005409418,0.0021863024,0.00035467620000000007,-0.00027723859999999995,4.954,0,0
-0.006003522000000001,-0.0005513382,0.0024577164,0.00033576380000000005,0.00024908140000000004,4.955,0,0
-0.0053998100000000005,-0.0018117502,0.0016612174000000001,-0.0001787644,0.00039113780000000006,4.956,0,0
-0.003995316,-0.0029455212,0.0007080454000000001,-0.0013492364,0.0009046278000000001,4.957,0,0
-0.00199475,-0.003188212,0.0005559122000000001,-0.0014700826,0.0009929434,4.958,0,0
0.00013300599999999975,-0.0027333316,0.0005852714,-0.0012835188,0.0006250078000000001,4.959,0,0
0.004166238,-0.0017031416000000005,0.0003789634000000001,-0.0017206464000000003,0.00040867588,4.96,0,0
0.008470656,0.0002241483999999999,0.0001985496,-0.0015200146,0.00012315227999999998,4.961,0,0
0.010922486,0.0021393964,0.00015932360000000005,-0.0007721248000000001,-0.00031829112,4.962,0,0
0.011581914000000002,0.0029163644000000004,0.0006749468000000001,-0.0007422668,-0.00069239292,4.963,0,0
0.010721718000000002,0.00333152,0.0012495352,-0.0010938306,-0.00070087892,4.964,0,0
0.007987530000000001,0.0033340500000000007,0.0016751072,-0.0010695826000000001,-0.0005894762,4.965,0,0
0.004972067600000001,0.002588814,0.002124032,-0.001083789,-0.0002870152,4.966,0,0
0.0024768836000000002,0.0015622960000000001,0.002171474,-0.0014565908,0.0005113462,4.967,0,0
0.00016359360000000006,0.0005349379999999999,0.00126385,-0.0013138538,0.0015575142000000001,4.968,0,0
-0.0012453963999999999,0.0001181930000000001,-0.00018444200000000005,-0.0004804758,0.0021499478000000004,4.969,0,0
-0.0023018144000000003,-0.00033717360000000006,-0.001107628,-0.00019774820000000007,0.0024348670000000003,4.97,0,0
-0.0031748120000000004,-0.000616684,-0.00186962,-2.3576399999999966e-05,0.002650504,4.971,0,0
-0.00318211,0.0003011279999999999,-0.002764124,0.0008759616000000001,0.002259756,4.972,0,0
-0.0025082672000000003,0.0017348420000000001,-0.0030660880000000002,0.0009872120000000001,0.0016483360000000002,4.973,0,0
-0.0030221112,0.0028388490000000005,-0.0026049660000000002,0.0007726676000000001,0.001266387,4.974,0,0
-0.0032999472,0.0039848136000000004,-0.0021373240000000003,0.001515602,0.000564265,4.975,0,0
-0.0022046204,0.00447667,-0.00150446,0.0019546768,-0.00013672700000000012,4.976,0,0
-0.0018956944000000002,0.0030074900000000007,-0.0001517500000000002,0.0016603108000000002,-0.0005577000000000001,4.977,0,0
-0.0022668072,0.00039458600000000037,0.001933992,0.0017323896000000002,-0.0011824960000000001,4.978,0,0
-0.0016148372000000001,-0.002560356,0.004231246,0.001990336,-0.001638677,4.979,0,0
-0.0005851112,-0.004989932000000001,0.005333062,0.0017189960000000002,-0.0014982964,4.98,0,0
-0.00025385,-0.005860742,0.0052850986,0.0014170839999999999,-0.0013441644,4.981,0,0
0.0004098860000000001,-0.0048858600000000005,0.004655067600000001,0.0013604506,-0.0014075274000000001,4.982,0,0
0.001394936,-0.0028567320000000003,0.0027519855999999995,0.0014346546,-0.0011456248,4.983,0,0
0.0021766940000000003,-0.001511642,0.0007702006,0.0013922486,-0.0009828548,4.984,0,0
0.002412236,-0.001057596,-0.0002700792000000001,0.0013099626,-0.0015695094,4.985,0,0
0.0028457060000000004,-0.0013450520000000002,-0.0011393938,0.0011913244,-0.0022050234,4.986,0,0
0.003782244,-0.001923938,-0.0024864928,0.0005492598,-0.0020367744,4.987,0,0
0.00398078,-0.001920018,-0.0047312808,-0.0002863262,-0.0017559452000000001,4.988,0,0
0.0035685256,-0.0015080718,-0.007261141800000001,-0.0009001422,-0.0016392094000000001,4.989,0,0
0.0025114316000000004,-0.000757277,-0.009118898,-0.0016049782,-0.0007081484,4.99,0,0
0.0007008956000000001,0.000396131,-0.008647870000000002,-0.001925082,0.0004259476000000001,4.991,0,0
-0.0015642684,0.0009701409999999999,-0.00429183,-0.0013681624000000002,0.0008290526,4.992,0,0
-0.0035243944000000003,0.001064091,0.00150199,-0.0011154384,0.0012822468000000002,4.993,0,0
-0.003922266000000001,0.0024007988000000003,0.0050551780000000004,-0.0012524264000000002,0.0019510570000000002,4.994,0,0
-0.0030188420000000003,0.0039027560000000003,0.006781602000000001,-0.0010290472,0.0018662236,4.995,0,0
-0.0025032319999999998,0.0039177100000000005,0.005811328,-0.0010144232,0.0014174451999999999,4.996,0,0
-0.0024768080000000005,0.0036770250000000004,0.0014645540000000005,-0.0014240808000000002,0.0014347212000000002,4.997,0,0
-0.002570876,0.0033736780000000006,-0.002403716,-0.0013680568000000001,0.0014681912000000003,4.998,0,0
-0.0036624160000000004,0.001389912,-0.002962632,-0.0011824688000000002,0.0013166872,4.999,0,0
-0.003791872000000001,-0.0013760260000000002,-0.000917658,-0.001627912,0.0016128376000000002,5.0,0,0
-0.002505942,-0.002715592,0.0012587060000000003,-0.0016701000000000003,0.0018073675200000004,5.001,0,0
-0.0018015136000000002,-0.002817022,0.0027173099999999997,-0.0013712284000000005,0.0008428955200000001,5.002,0,0
-0.0003084174000000002,-0.002618583,0.004357606,-0.0012386690000000004,-0.0002890684799999999,5.003,0,0
0.0024391086000000004,-0.0014324169999999998,0.004978174,-0.0008283218,-0.0007539322800000001,5.004,0,0
0.0035604626,0.0005375209999999999,0.003574612,0.00011212019999999996,-0.0012830976799999999,5.005,0,0
0.0031385226,0.001748123,0.0027726706,0.0008667062,-0.0016389911999999999,5.006,0,0
0.0035362202000000006,0.0019075902,0.0026720962,0.0008451572,-0.0012718452,5.007,0,0
0.0037876660000000003,0.0009244362000000001,0.0011432421999999997,0.0011343058,-0.0011481692000000002,5.008,0,0
0.0026681192,-0.0005460158000000002,-0.0015736658,0.0015675586,-0.0016803774000000002,5.009,0,0
0.0013196852000000002,-0.001354422,-0.0039137418,0.0015716206000000001,-0.001921996,5.01,0,0
0.0010819532000000001,-0.001145278,-0.0049255984,0.0015912426,-0.001810074,5.011,0,0
0.0009429250000000002,-0.00040098420000000013,-0.0052140304,0.001644714,-0.0017672562,5.012,0,0
0.000252587,0.0008952458,-0.0048916404,0.0009201940000000002,-0.001315215,5.013,0,0
-0.0003638241999999999,0.0024921978,-0.0032108324000000004,-0.00015602399999999994,-0.0002806769999999999,5.014,0,0
-0.0011801022,0.0025132948,-0.0014198424000000003,-0.0006674064,0.00032713500000000005,5.015,0,0
-0.0025117062,0.0011607647999999997,-0.0015992324,-0.0014603544,0.0005011694000000001,5.016,0,0
-0.0030014280000000004,-0.0002297632000000003,-0.002995394,-0.0019622884,0.0010558796000000002,5.017,0,0
-0.001454706,-0.0014285352000000002,-0.004169044,-0.00143592522,0.0012460304,5.018,0,0
0.0005354099999999998,-0.0022363932,-0.005197894,-0.0009181310200000001,0.0007763698000000001,5.019,0,0
0.0020940060000000003,-0.0019300236000000005,-0.0043073700000000005,-0.00077110862,0.000672841,5.02,0,0
0.0029056620000000007,-0.0007163196,-0.0002039419999999995,-0.0001473246199999999,0.0006497578,5.021,0,0
0.0025807160000000007,0.0004995184000000001,0.0032533600000000003,0.00061605938,0.00019842340000000006,5.022,0,0
0.0005034319999999998,0.0015473364000000002,0.0043740260000000005,0.0005799932000000001,0.00025669539999999995,5.023,0,0
-0.0022211260000000004,0.0020457844000000003,0.005243774000000001,0.000507907,0.000547968,5.024,0,0
-0.0037173479999999997,0.0018311098,0.004839988000000002,0.0008518450000000002,0.0003554034,5.025,0,0
-0.004357884,0.0006451858000000001,0.002044766,0.0005785884,0.00052607,5.026,0,0
-0.004377834000000001,-0.0008774482,0.000319196,0.0001336244,0.0012056364,5.027,0,0
-0.003911762,-0.0016029162,0.0013102740000000002,0.0005150294,0.0012906104000000001,5.028,0,0
-0.00310229,-0.0016779442,0.002653008,0.0006786336000000001,0.0011937324000000002,5.029,0,0
-0.001873624,-0.0011435120000000002,0.003323946,0.00018028519999999999,0.0020278018000000004,5.03,0,0
-0.00038051000000000003,-0.0002542391999999999,0.0038788360000000005,0.00031434439999999996,0.002431594,5.031,0,0
0.00016653799999999996,0.00018312880000000001,0.004655786,0.0009999444000000001,0.0013621120000000002,5.032,0,0
0.0013673420000000001,0.0004411888000000001,0.004504468000000001,0.0006820812,0.0005858419999999999,5.033,0,0
0.0030367,0.0004851788000000001,0.0035267834000000005,0.0004654266,0.00039785200000000013,5.034,0,0
0.00311881,6.826960000000006e-05,0.0023102594000000004,0.000873797,-0.0006781480000000002,5.035,0,0
0.00437283,0.0005164688,0.0001560473999999998,0.00062443,-0.001692318,5.036,0,0
0.006449736,0.0013560388,-0.0019194706000000004,0.00028285540000000007,-0.0016621620000000002,5.037,0,0
0.0062507660000000005,0.0010622628,-0.0030717886,0.0007836946000000001,-0.001477348,5.038,0,0
0.004734874,0.0004551307999999998,-0.0038621280000000007,0.0011187590000000002,-0.001843082,5.039,0,0
0.0035477900000000003,-0.00013248200000000006,-0.0039900280000000005,0.0003848990000000002,-0.00197705,5.04,0,0
0.0014622639999999998,-0.001231448,-0.003148794,4.9293400000000195e-05,-0.0014683460000000001,5.041,0,0
-0.000895594,-0.001963402,-0.0026712140000000003,1.740640000000014e-05,-0.0010399542000000001,5.042,0,0
-0.0022635420000000003,-0.0017463253999999999,-0.0028239660000000002,-0.0007812716,-0.0006440562,5.043,0,0
-0.002596998,-0.0010098474,-0.0026264920000000002,-0.0013862356,-5.334200000000028e-06,5.044,0,0
-0.002330794,0.0001412646000000001,-0.0021671002000000004,-0.0009867598,0.0005227012,5.045,0,0
-0.002701032,0.0013048906000000002,-0.0015362172000000004,-0.0007044242000000001,0.0009343492000000001,5.046,0,0
-0.0028392540000000003,0.0019291126000000002,-0.0006202012,-0.0006891876000000001,0.0013621234000000002,5.047,0,0
-0.0026170660000000004,0.0022937640000000002,0.0009102868000000001,-1.5121600000000035e-05,0.0009825756,5.048,0,0
-0.0025823040000000005,0.0015134760000000001,0.0024724948000000003,0.0007053243999999999,0.0003744276000000001,5.049,0,0
-0.002862868,-0.0006042140000000003,0.003226163,0.0008849968,0.00033134540000000017,5.05,0,0
-0.0030075820000000004,-0.0018718800000000002,0.0031161302,0.0008717546,0.00015581740000000007,5.051,0,0
-0.0027188560000000004,-0.0015312300000000002,0.0022573262,0.0006726852,-0.00024636060000000003,5.052,0,0
-0.002764084,-0.001156204,0.0011063222,2.3809199999999975e-05,-6.614647999999997e-05,5.053,0,0
-0.0026870880000000002,-0.0006812886000000004,-0.00019798180000000012,-0.0007971208000000001,0.00066283952,5.054,0,0
-0.001796448,0.0007493976,-0.0012327278,-0.001149255,0.0006766011199999999,5.055,0,0
-0.0003101439999999997,0.0002981136,-0.001082076,-0.0012494124,2.848712000000001e-05,5.056,0,0
0.0009326000000000001,-0.0019279984000000003,1.6540000000001302e-06,-0.0016078800000000001,-7.066648e-05,5.057,0,0
0.0023536580000000002,-0.0030768884,0.000654756,-0.0012750062,-0.00030371079999999995,5.058,0,0
0.00394123,-0.0034981458,0.0009065272000000001,-0.0006327441999999998,-0.0014459268,5.059,0,0
0.004584516,-0.0037779960000000005,0.0010811736000000001,-0.0007101502,-0.0018308896000000002,5.06,0,0
0.00445929,-0.0027970022000000003,0.0006473096,-0.0007967062000000001,-0.0013875201400000003,5.061,0,0
0.004114868000000001,-0.0006637002000000001,-0.0002342744,-0.0005941962,-0.0015740705400000001,5.062,0,0
0.0035845379999999995,0.0002349658,-0.0009636764,-0.0009572160000000001,-0.00143049834,5.063,0,0
0.0025725366,0.00044969580000000007,-0.0013566056,-0.0013035964000000003,-0.00042276834000000007,5.064,0,0
0.0012845026000000003,0.0011124978,-0.0015792360000000001,-0.0006226324,8.380485999999999e-05,5.065,0,0
-9.126540000000002e-05,0.001662512,-0.001648186,1.011359999999995e-05,0.0003182934,5.066,0,0
-0.0016590813999999999,0.0017578660000000003,-0.0013577442,0.00024797116,0.0008428013999999999,5.067,0,0
-0.0026632034,0.001470183,-0.0010269788,0.0007701611599999999,0.0005840352,5.068,0,0
-0.0029728028000000004,0.0015350910000000001,-0.0008875236000000001,0.0013811075599999998,-0.00041009880000000007,5.069,0,0
-0.0032042728000000005,0.001552459,-0.0010315376000000001,0.00140985356,-0.0009493800000000001,5.07,0,0
-0.0026859328,0.0012301318,-0.0016079796,0.00124509196,-0.0012606972000000001,5.071,0,0
-0.0020349328000000004,0.0009410938000000001,-0.0022416234,0.001357707,-0.0017729192,5.072,0,0
-0.0025411668000000004,0.0013474468000000002,-0.0027420908000000003,0.0011194682600000002,-0.0016146436,5.073,0,0
-0.0027512780000000002,0.0017483108000000002,-0.0025565218000000002,0.00051184946,-0.0007678864000000001,5.074,0,0
-0.0015884700000000002,0.0014054563800000002,-0.0017391158000000001,0.00042341745999999994,-0.000572945,5.075,0,0
-0.0007402000000000001,0.00154282358,-0.0005796838000000002,0.00064272506,-0.0007044192,5.076,0,0
0.00013871399999999996,0.0019103555800000002,0.0007105981999999999,0.00070282586,-7.520320000000005e-05,5.077,0,0
0.002355668,0.0022718495800000005,0.0019006302000000002,0.0009383666000000001,0.0005397872,5.078,0,0
0.0039629240000000005,0.00296654158,0.0023443680000000003,0.0009963964000000002,0.000941222,5.079,0,0
0.0040717999999999996,0.0037826780000000003,0.0017876152000000003,0.00038440440000000006,0.0021169386000000003,5.08,0,0
0.0038306720000000002,0.0036501594,0.0016425262000000001,-0.00032056960000000003,0.003641376,5.081,0,0
0.003052706,0.0019723954,0.0018566502000000001,-0.0007214690000000001,0.004325328,5.082,0,0
0.001277274,-0.00029189060000000037,0.0019246002000000003,-0.001206367,0.004739188,5.083,0,0
-7.301539999999997e-05,-0.0029071026,0.0015841652000000003,-0.0014707300000000002,0.005212922,5.084,0,0
-0.0005106394,-0.005177316600000001,0.0013794640000000002,-0.0013910040000000002,0.004585222000000001,5.085,0,0
-0.0009196636000000001,-0.006152348,0.001177347,-0.0012641840000000002,0.0031196621999999997,5.086,0,0
-0.0009300676000000001,-0.005723530000000001,0.00019276380000000004,-0.001479992,0.001957458,5.087,0,0
-0.00041082360000000004,-0.004652890000000001,-0.0004977856,-0.0015775300000000002,0.0006795520000000002,5.088,0,0
-0.00022975880000000005,-0.0033220816000000004,-0.0005174722,-0.0013291638,-0.00114633,5.089,0,0
-0.0006288968000000002,-0.0018054014000000002,-0.00013759710000000002,-0.0013814078,-0.002033444,5.09,0,0
-0.0010979986000000002,-0.0009928084,5.360529999999999e-05,-0.0011487609,-0.0019705286000000002,5.091,0,0
-0.0013123466,-0.0006386804,0.0001601245,-0.0005496205000000001,-0.0021943764000000006,5.092,0,0
-0.0019304026,-6.234040000000006e-05,0.00018111890000000006,-0.00016837010000000005,-0.0020135324000000003,5.093,0,0
-0.002503112,0.0009078331999999999,-0.0001627515,4.481709999999998e-05,-0.0010075522000000002,5.094,0,0
-0.00207243,0.001841943,-0.00037511019999999996,0.0005030881000000001,-0.0007236602000000002,5.095,0,0
-0.001999418,0.002641212,-0.0006236446,0.0008648692000000001,-0.0011966238000000002,5.096,0,0
-0.0022229780000000005,0.003628564,-0.0010164166,0.0010281828000000002,-0.0008610178,5.097,0,0
-0.0020284500000000002,0.00408825,-0.0012576916,0.0014161664000000003,-0.00035338979999999996,5.098,0,0
-0.002163084,0.0034391526,-0.0007190515999999999,0.0018223110000000003,-0.0004092452,5.099,0,0
-0.0022759924000000003,0.0016643706,0.00033542800000000003,0.0016778249400000002,-5.9078199999999966e-05,5.1,0,0
-0.0012419344000000002,-0.00024340140000000021,0.000965648,0.00136456674,0.0006660850000000001,5.101,0,0
0.0009546956,-0.0014340194000000003,0.001483386,0.0017542447400000004,0.000547671,5.102,0,0
0.0034528636000000002,-0.0023709914000000004,0.0018640628,0.00195171074,-0.000214323,5.103,0,0
0.0051470536,-0.002947328,0.0016480743999999997,0.00180670274,-0.0006322038000000001,5.104,0,0
0.005766968000000001,-0.0026156320000000005,0.0010879364,0.0022275237999999998,-0.0010970948000000001,5.105,0,0
0.006614436000000001,-0.001887012,0.0008958664000000001,0.0024808540000000002,-0.0018641400000000002,5.106,0,0
0.006899670000000001,-0.0014026152000000001,0.0011270204,0.0016246213999999998,-0.0017416460000000001,5.107,0,0
0.005944548000000001,-0.0007457272000000001,0.0012231776,0.0006464594,-0.0011366084000000002,5.108,0,0
0.0047428544000000005,-0.0002452129999999999,0.001343084,0.00022441039999999997,-0.0010127038000000003,5.109,0,0
0.0029481424,0.00013979740000000007,0.0004137759999999999,-0.00038990520000000003,-0.0007997602000000001,5.11,0,0
0.00041841440000000055,0.0012272354,-0.0011804480000000002,-0.0009831952000000001,-0.0005904542000000001,5.111,0,0
-0.0024025316000000005,0.0018687846,-0.001870378,-0.0010795126000000001,-0.0010121882,5.112,0,0
-0.003956573600000001,0.0016231262000000002,-0.0024008400000000004,-0.0012774006,-0.0013041478000000001,5.113,0,0
-0.003497946,0.0014148610000000001,-0.003220868,-0.0018559136,-0.0009095824000000001,5.114,0,0
-0.0025496194000000005,0.0009039026000000001,-0.00316584,-0.002159752,-0.0007675712000000002,5.115,0,0
-0.0017117434000000003,2.1746599999999993e-05,-0.0022713860000000002,-0.002307666,-0.000552958,5.116,0,0
-0.0010078374,-0.00048507680000000003,-0.001670808,-0.0024968620000000003,1.837059999999999e-05,5.117,0,0
-0.0007284034,-0.00043724440000000007,-0.00014249599999999977,-0.0019401173799999999,0.000165716,5.118,0,0
-0.0008516934,0.00012155659999999997,0.001461898,-0.00122738738,-0.00014731980000000003,5.119,0,0
-0.00129962,0.000860107,0.001623266,-0.00098370938,-0.00015361396000000002,5.12,0,0
-0.001545526,0.001301957,0.0015706900000000005,-0.0004030939800000001,0.00010158724,5.121,0,0
-0.002029702,0.0014061184000000002,0.0015930240000000002,0.00034291202000000004,0.00013566844000000003,5.122,0,0
-0.003338392,0.0007860343999999999,0.0020489080000000003,0.00032774540000000003,0.00060770104,5.123,0,0
-0.004347674,0.0001550664,0.0031476660000000004,0.00013221980000000007,0.0014596908400000001,5.124,0,0
-0.004218502000000001,0.00063404,0.0036383676000000006,0.00033544040000000003,0.0018422502000000002,5.125,0,0
-0.0040728380000000005,0.0009418179999999999,0.0037328196000000003,2.068400000000009e-06,0.0017261898000000002,5.126,0,0
-0.00323545202,0.0013551799999999999,0.0029927216000000005,-0.0006159556,0.0016370160000000003,5.127,0,0
-0.00135615402,0.00237569,-0.0005884583999999995,-0.0007545494,0.0011135708000000002,5.128,0,0
-0.00097539202,0.0018916800000000002,-0.0043261724,-0.0006083456,-0.00018180120000000006,5.129,0,0
-0.00025638202000000007,0.0006281919999999999,-0.0054644920000000005,-0.0007041898000000001,-0.0007688726000000001,5.13,0,0
0.00157074198,-0.00021897800000000015,-0.00576544,-0.0008065932,-0.00045137059999999997,5.131,0,0
0.003318938,-0.0016970880000000002,-0.005646546,-0.00049598798,-0.0006037034000000001,5.132,0,0
0.00597064,-0.002721012,-0.0038617602000000006,-0.0003166271799999999,-0.0005605584,5.133,0,0
0.007949342,-0.0020636580000000003,-0.0011905482000000003,-0.00034537707999999996,0.00029077160000000004,5.134,0,0
0.007340422,-0.0013840431999999998,0.0013149238000000002,0.00022684852000000002,0.0003010964,5.135,0,0
0.00523058,-0.0009502038,0.0034239978,0.00096015852,-0.00040307159999999995,5.136,0,0
0.002389912,-0.00018743779999999996,0.0050511898,0.0007748753000000001,-0.00022302219999999998,5.137,0,0
-0.0013300259999999998,2.260160000000001e-05,0.006040534,0.0007352283,-5.1116999999999965e-05,5.138,0,0
-0.003698458,-0.0004353404,0.005544937999999999,0.001033958,-0.000805797,5.139,0,0
-0.00376007,-0.0010712952,0.003517282,0.0006112469200000001,-0.0010901944000000002,5.14,0,0
-0.00233936,-0.0012332162000000002,0.0005247159999999997,0.00026804452000000003,-0.0009586324000000002,5.141,0,0
-0.0006798859999999998,-0.0009935322,-0.001968964,0.00085470052,-0.0015467050000000002,5.142,0,0
0.00035490040000000025,-0.0008682836000000003,-0.0030033742,0.0010689005199999999,-0.0018071186000000003,5.143,0,0
0.0011473154,-0.0004608826000000002,-0.0030267762,0.0006333515200000001,-0.0012186022000000003,5.144,0,0
0.0007785653999999999,-0.00022603060000000002,-0.0016603562,0.0006156406000000001,-0.0008681334,5.145,0,0
-0.0010422486,-0.000922129,-7.940200000000012e-05,0.00035103200000000004,-0.00038402939999999995,5.146,0,0
-0.0021115206,-0.0010770906000000002,-0.0010461760000000002,-0.00045707200000000004,0.0009352946,5.147,0,0
-0.002468605,-0.00010695660000000016,-0.0033600058000000004,-0.0009580720000000001,0.0015105572000000001,5.148,0,0
-0.0030301440000000002,0.0005837743999999999,-0.0036684198000000007,-0.001062559,0.0011973630000000001,5.149,0,0
-0.0024750342,0.001102033,-0.0026258818000000003,-0.0011355818,0.0013971178,5.15,0,0
-0.0013665472000000001,0.0023577410000000004,-0.001239562,-0.0008711964,0.001154293,5.151,0,0
-0.0005177612000000001,0.0032586926000000003,0.00173148,-0.0003553842,-0.00013155899999999995,5.152,0,0
0.0003007928000000001,0.0035019306,0.004633304,0.00010080880000000003,-0.00041280959999999997,5.153,0,0
0.0013707968000000001,0.0035190526,0.0045410384,0.0005079160000000001,0.00023069220000000007,5.154,0,0
0.002227197,0.003042976,0.0025042744,0.0008865908000000001,-4.281579999999992e-05,5.155,0,0
0.002469404,0.0026189932,0.0007763344000000001,0.0011369164,-2.7910999999999954e-05,5.156,0,0
0.0021570738,0.001708392,8.618980000000008e-05,0.0011557700000000002,0.000813055,5.157,0,0
0.0013645611999999999,-0.00035711200000000014,0.0002712638000000001,0.0013475230000000002,0.0009448696000000001,5.158,0,0
0.000840143,-0.0023478400000000003,0.0007133574000000001,0.0015711838000000004,0.0004620036,5.159,0,0
0.00015650960000000003,-0.0032268080000000003,0.0013289394000000003,0.0014774058000000003,0.00076957,5.16,0,0
-0.0007196264,-0.0044795932000000005,0.0018118182000000003,0.0014112398000000002,0.0009350902000000001,5.161,0,0
-0.0015374842,-0.005641784,0.0013895348000000003,0.001076282,7.819020000000008e-05,5.162,0,0
-0.0024131476000000002,-0.005352086000000001,-2.271119999999998e-05,2.9114000000000223e-05,-3.817779999999992e-05,5.163,0,0
-0.0034518214,-0.004229956000000001,-0.0014372672000000004,-0.00081579,0.0006885842000000002,5.164,0,0
-0.004546982000000001,-0.003039969,-0.0023053452000000004,-0.00101625046,0.0008544022000000002,5.165,0,0
-0.004591652000000001,-0.0019439944,-0.0027402600000000004,-0.00093211046,0.0010344020000000002,5.166,0,0
-0.0029864600000000002,-0.0005064804,-0.0026755380000000003,-0.0004907104600000001,0.002084872,5.167,0,0
-0.0008819500000000003,0.0006220656000000001,-0.0020477762000000004,0.00046944953999999994,0.002158336,5.168,0,0
0.00029665040000000006,0.0011769536,-0.0014688642,0.00136376154,0.001013132,5.169,0,0
0.0014605616000000002,0.0016044766,-0.0015032442000000004,0.0015354260000000001,0.0004761719999999999,5.17,0,0
0.0020144004,0.0025197020000000004,-0.0017279262,0.0013244390000000002,9.084979999999994e-05,5.171,0,0
0.0009436624,0.0031781640000000002,-0.0018790422,0.0011250156,-0.0008341622,5.172,0,0
0.0008969524000000002,0.0030984000000000003,-0.0019560120000000005,0.00045620360000000006,-0.0012651216000000001,5.173,0,0
0.0021939460000000004,0.0028862647999999998,-0.0017959502000000002,-0.0004789904,-0.0006141796000000001,5.174,0,0
0.0031755568000000002,0.0023831013999999996,-0.0007503842,-0.0007501232000000001,-0.00023764260000000005,5.175,0,0
0.004339934,0.0010396954000000001,0.0006043538,-0.0010241848,-0.0004582964,5.176,0,0
0.005401712,-0.0008195506000000001,0.0012548728,-0.0015038774,-0.00030946680000000005,5.177,0,0
0.005284950000000001,-0.0019215566000000002,0.0015563318,-0.0011986132,-0.00029222060000000003,5.178,0,0
0.004589342,-0.0021361946000000003,0.0016056528,-0.0006844826,-0.0007669286,5.179,0,0
0.0037465566,-0.0019525876000000006,0.0010803229799999999,-0.0008516717999999999,-0.001066996,5.18,0,0
0.0021914306,-0.0012604796,0.00011662838000000001,-0.0009551032,-0.0009998140000000001,5.181,0,0
0.0001985086,0.00011474039999999992,-0.00035497462,-0.0007474092,-0.0009247736,5.182,0,0
-0.0021255434000000003,0.0012599544000000001,-0.00014627562000000003,-0.0009440534,-0.0005785424,5.183,0,0
-0.0045399654,0.0018699216000000003,0.00012843958,-0.0012307059999999998,2.14760000000002e-06,5.184,0,0
-0.006241986,0.0015317960000000002,0.0005224254,-0.0008710764,-2.6838000000000003e-05,5.185,0,0
-0.007097258,0.00015443999999999983,0.001067692,-0.0005061904,-0.00043960200000000004,5.186,0,0
-0.006517591999999999,-0.000795178,0.0010131860000000001,-0.00038847419999999994,-0.0005856000000000001,5.187,0,0
-0.004519506,-0.0014400596,0.00040235400000000006,0.00020836980000000003,-0.0008200392,5.188,0,0
-0.0026201948,-0.0020923886000000004,0.0001241816000000001,0.0007006698000000001,-0.0014883652,5.189,0,0
-0.0013640628,-0.0014737466,-0.0002338646,0.0007119916,-0.0012478628,5.19,0,0
-9.513879999999997e-05,-0.00010619860000000007,-0.0007130766000000002,0.0010174716,-3.727999999999501e-07,5.191,0,0
0.00010086719999999994,0.0003130074,-0.00048810180000000006,0.0013923414000000002,0.00036109100000000007,5.192,0,0
-0.0001636648,0.0005804168,-0.0005105118,0.0010155110000000002,0.00037687920000000006,5.193,0,0
0.0013686360000000001,0.0007742980000000001,-0.0008754574,0.0007186302000000001,0.0010951052000000001,5.194,0,0
0.00283291,-5.237200000000002e-05,0.0002865808,0.000668005,0.0011320032000000002,5.195,0,0
0.0033640140000000002,-0.000646546,0.0017705708000000002,-0.000145337,0.00045387220000000004,5.196,0,0
0.004374808,-0.00031194,0.0019475492,-0.0009891790000000002,0.0006653364,5.197,0,0
0.004963832,0.00026012819999999995,0.0025203076000000005,-0.0012276206000000002,0.0010590574,5.198,0,0
0.003918064000000001,0.0005090440000000001,0.0030434594000000002,-0.0016267878000000003,0.0007364848,5.199,0,0
0.0024706980000000003,0.0009922476000000001,0.0009949634,-0.002097456,0.0008878604000000001,5.2,0,0
0.0020701624,0.0020753016,-0.0019648246,-0.0015578674,0.0013380014,5.201,0,0
0.0019272404,0.0026390136,-0.0031114518000000006,-0.0004954494000000003,0.000865848,5.202,0,0
0.0010960184,0.0023837896,-0.0037747762000000006,2.1956599999999992e-05,0.0002572040000000001,5.203,0,0
0.00011609640000000002,0.0020957432,-0.004806052000000001,0.00030059379999999993,9.982859999999998e-05,5.204,0,0
-0.0005438236000000001,0.0020462431999999997,-0.004877594000000001,0.0007332782,-0.00041612340000000004,5.205,0,0
-0.001423706,0.0015336898,-0.004095878,0.0007567016,-0.0012133734,5.206,0,0
-0.0029935440000000003,0.0004393458,-0.0032118042000000005,0.0003164514,-0.0009985326,5.207,0,0
-0.003995256000000001,-0.0005767001999999999,-0.0013763402000000003,0.0005180014,-0.0006200248,5.208,0,0
-0.002699646,-0.0010647998,0.0012174597999999998,0.0010525482,-0.0009329268,5.209,0,0
-0.0006758279999999998,-0.0012667636,0.0027482818,0.0010710796,-0.00063023088,5.21,0,0
0.0003222400000000001,-0.0015565983999999999,0.0041976958,0.0010703136,-0.00018145647999999996,5.211,0,0
0.0011155860000000002,-0.0013155395999999999,0.005422458,0.0013173458,-0.00014099968,5.212,0,0
0.0013449959999999998,-0.0005300386000000001,0.004583166,0.0008164868000000001,0.00022418052000000002,5.213,0,0
-3.571600000000009e-05,0.00012230080000000002,0.0036224479999999995,-8.900719999999996e-05,0.0009110685200000001,5.214,0,0
-0.001967852,0.0006893790000000001,0.004129641999999999,-0.00012779458,0.0009561474000000001,5.215,0,0
-0.003309766,0.0016703252000000001,0.0043122740000000005,-0.00022019538000000007,0.0006169210000000001,5.216,0,0
-0.003545326,0.0023671344,0.003605018,-0.0008475833800000001,0.0002501428,5.217,0,0
-0.00321086,0.0018424214,0.0032855596000000006,-0.00074206306,-0.0002576172,5.218,0,0
-0.003353512,0.0010024420000000003,0.0023008336000000006,0.00015998893999999994,-0.0006100626,5.219,0,0
-0.0032855799999999998,-0.0007350640000000001,0.00044466960000000006,6.773451999999994e-05,-0.0006998092,5.22,0,0
-0.002153421,-0.0027374720000000003,-0.0012824064,-0.00021396428000000005,-0.000257547,5.221,0,0
0.00021911300000000016,-0.003207576,-0.0028210244000000002,0.00053481972,-0.00016755659999999998,5.222,0,0
0.0026218450000000007,-0.003121256,-0.0038116180000000006,0.0005726122,-0.0003688466,5.223,0,0
0.0044904770000000005,-0.0026431598,-0.0035910522000000005,5.957799999999999e-05,-0.0004529144,5.224,0,0
0.006417957,-0.0013869232000000003,-0.0022195622000000005,-3.1773999999999984e-05,-0.0008553906,5.225,0,0
0.007356714,-0.00021333219999999998,-0.0007174322000000003,-0.00029297840000000003,-0.000955837,5.226,0,0
0.0062327220000000004,-0.00020398619999999998,0.0009150698000000001,-0.0007837304000000002,-0.00021791939999999993,5.227,0,0
0.0043186145999999995,-0.0002762462,0.0014704138000000001,-0.0006292982,0.0002050766000000001,5.228,0,0
0.0030073653000000002,-3.481320000000002e-05,0.0005655000000000002,-0.00017981199999999995,5.519780000000005e-05,5.229,0,0
0.0017316703,0.00028523219999999997,-0.0009178339999999998,4.1842600000000066e-05,0.0006273478,5.23,0,0
9.724299999999903e-06,0.0006680092000000001,-0.002077736,0.0005559250000000001,0.000987166,5.231,0,0
-0.0019646537,0.0005245938,-0.0026921776000000002,0.0008951070000000001,0.0004971634,5.232,0,0
-0.0034097183,0.0004005358,-0.0029556776000000005,0.0007416014,0.0005593114,5.233,0,0
-0.004635287,-0.0002695754,-0.0015743775999999998,0.0005180788,0.0012533754,5.234,0,0
-0.005861578000000001,-0.0009201254000000001,0.0005525304,0.0006251618,0.0010453752,5.235,0,0
-0.0064633,-0.0012939770000000002,0.0018409984,0.000556687,0.0002599272,5.236,0,0
-0.006493888000000001,-0.0015677368000000002,0.0024750460000000003,-0.00011329499999999996,8.525759999999995e-05,5.237,0,0
-0.0044350959999999995,-0.0005594308000000002,0.003306484,-0.0003132536,-0.00040259840000000013,5.238,0,0
-0.0010478280000000002,0.0011983412,0.0029277962,-0.00020969219999999997,-0.0013258844,5.239,0,0
0.00043339019999999993,0.0022014892,0.0012286382,-0.0007956638000000001,-0.0014260088000000001,5.24,0,0
0.0008237281999999999,0.0020391322,0.00015538220000000015,-0.0012702334,-0.0011112154,5.241,0,0
0.0013754442,0.0014151494,-0.0006865898,-0.0010357158,-0.0013796452000000002,5.242,0,0
-0.00012626980000000052,-0.0005173926,-0.0012157586,-0.0012056056,-0.0012537622000000001,5.243,0,0
-0.0029389118,-0.0028183466000000004,-0.001321932,-0.0015273816000000002,-0.0004294821999999999,5.244,0,0
-0.003408414,-0.0036497126000000005,-0.001378994,-0.0010210888000000001,-0.00034078060000000004,5.245,0,0
-0.001080286,-0.0034344526000000004,-0.001528844,-0.0007599038,-0.00020964600000000002,5.246,0,0
0.002275022,-0.0019554286,-0.0010872038,-0.0010052554,0.000795792,5.247,0,0
0.005027322,0.00018333939999999984,-0.0002672330000000001,-0.0008277524000000001,0.001216473,5.248,0,0
0.007301073999999999,0.0016404234000000001,4.525619999999999e-05,-0.00047025919999999996,0.0010562424000000001,5.249,0,0
0.00920727,0.0021927134000000004,0.000487277,-0.00043943479999999994,0.0014596374,5.25,0,0
0.009057892000000001,0.002373898,0.0009343376,-0.00012669279999999997,0.0018187874,5.251,0,0
0.007304604,0.0015469178,0.0008772234,0.0007741032,0.0009960556,5.252,0,0
0.00553617,-0.00011067819999999997,0.00022819459999999996,0.0012430022,0.00018533960000000012,5.253,0,0
0.00329244,-0.0010522862,-0.0006808914,0.0009912296,0.00016107100000000004,5.254,0,0
0.000948782,-0.0011779708,-0.0016255182000000003,0.0007804832,-0.0005226969999999999,5.255,0,0
-0.0011635819999999998,-0.0010450767999999999,-0.0022278508000000002,0.0007717854,-0.001439615,5.256,0,0
-0.0031489359999999997,-0.00044630660000000003,-0.0026100508000000003,0.00034966380000000006,-0.0012474806,5.257,0,0
-0.004040572,0.0010853214000000001,-0.003091928,0.0002326138,-0.000882555,5.258,0,0
-0.004345870000000001,0.0024237574,-0.0032194640000000004,0.0005881104000000001,-0.0011874858000000001,5.259,0,0
-0.0046791540000000005,0.002865984,-0.0029625640000000004,0.00026396960000000006,-0.0008846132000000001,5.26,0,0
-0.00430833,0.0029556820000000003,-0.0024176959200000003,-0.0001124276,-0.0002538466,5.261,0,0
-0.003498956,0.0024479582,-0.00155229792,-3.3914799999999935e-05,-0.0003446156,5.262,0,0
-0.0034726979999999998,0.0009778082000000002,0.0003163360800000001,-0.0006115328,3.823079999999999e-05,5.263,0,0
-0.003361312,-0.0005516757999999999,0.00259679408,-0.0014350848,0.0008679128,5.264,0,0
-0.002847304,-0.0013993038,0.004010398080000001,-0.001112053,0.0009770222000000002,5.265,0,0
-0.0029891340000000005,-0.0018090116000000001,0.004308900000000001,-0.0008071614000000001,0.0006597628000000001,5.266,0,0
-0.0031313600000000006,-0.0015228957999999999,0.0036482474,-0.0009531106000000001,0.0008043038000000001,5.267,0,0
-0.002489511148,-0.0002621037999999999,0.0023084899399999997,-0.0002905386,0.0005232458,5.268,0,0
-0.0011679431480000001,0.0008221862000000001,0.00108156394,0.0005910734,-0.00037114820000000003,5.269,0,0
0.000130202852,0.0007740962,0.00027367794000000004,0.0006498464,-0.0005871460000000001,5.27,0,0
0.001435876852,0.0005782196000000001,-0.00026228206000000005,0.0003797068,-0.0005967850000000001,5.271,0,0
0.002754392852,0.00016583680000000002,-0.00014014486000000004,0.0002333162,-0.000590646,5.272,0,0
0.003363794,-0.0005694612000000001,-0.0008229034000000001,-0.00015014840000000007,-0.0001337060000000001,5.273,0,0
0.003110844,-0.0011400152,-0.0019585314,-0.0005715354000000001,0.0007946800000000001,5.274,0,0
0.0023532908,-0.0020922112,-0.0022529634000000003,-0.00047068540000000007,0.0015890078000000002,5.275,0,0
0.0011009407999999997,-0.0028981948,-0.0025315234,-0.0002720336,0.0022618916,5.276,0,0
-0.0005868351999999999,-0.003076148,-0.0022206260000000003,-0.0004991490000000001,0.002885082,5.277,0,0
-0.00118011588,-0.002984032,-0.000684218,-0.0004923268,0.00273173,5.278,0,0
-0.00016359388000000002,-0.0019815600000000003,0.00095465,-5.6741799999999966e-05,0.0022862802,5.279,0,0
0.0010947873200000003,2.0173999999999865e-05,0.002046778,1.4311399999999952e-05,0.0020564762,5.28,0,0
0.0022902473200000005,0.001399676,0.003225302,0.00014722220000000004,0.0017037775999999998,5.281,0,0
0.0036467533200000004,0.002416084,0.003683216,0.0013919762000000001,0.0004125776000000002,5.282,0,0
0.004055572,0.0034915720000000005,0.0035036340000000003,0.0023278166,-0.0012038364000000001,5.283,0,0
0.0028647914000000003,0.003765536,0.0037748860000000003,0.0025233245999999997,-0.0027280866000000004,5.284,0,0
0.0016124114000000004,0.0037174420000000005,0.004460764000000001,0.0034414126000000002,-0.0050908766000000005,5.285,0,0
0.0010715624,0.0039265820000000005,0.00554121,0.004307384,-0.007559036,5.286,0,0
0.0003527192,0.0040557760000000005,0.005899144,0.004194720000000001,-0.008992332000000002,5.287,0,0
-0.0008630768,0.0032028606000000003,0.0052722246,0.003926324,-0.009592592,5.288,0,0
-0.0021809762000000003,0.0019762106000000006,0.0030272006,0.0034721662000000006,-0.009340520000000001,5.289,0,0
-0.0033925382,0.0013308063999999998,-0.0016991494000000002,0.0017135022,-0.007045488,5.29,0,0
-0.0043836432,0.0003695564000000001,-0.0064622354,-0.0001530298,-0.003660216,5.291,0,0
-0.004799114,-0.0010143116000000001,-0.009039493400000001,-0.0015151218000000002,-0.0008255860000000001,5.292,0,0
-0.004226959999999999,-0.0019890722,-0.009863812000000001,-0.0032764278000000004,0.0021497219999999997,5.293,0,0
-0.0029621088,-0.0029601982,-0.00891368,-0.004346302000000001,0.005069136,5.294,0,0
-0.00160909,-0.0034956020000000004,-0.006028942000000001,-0.004216905999999999,0.006481936000000001,5.295,0,0
-0.00016291600000000004,-0.0025507520000000003,-0.0035371280000000005,-0.0038804000000000004,0.006892174000000001,5.296,0,0
0.001026856,-0.0012483360000000005,-0.00267706,-0.0034611642000000006,0.0076555040000000005,5.297,0,0
0.001831374,3.221800000000009e-05,-0.0027122020000000004,-0.0024439462000000003,0.007568228,5.298,0,0
0.0021636308,0.0011198534000000002,-0.003400464,-0.00148733902,0.0060407360000000005,5.299,0,0
0.0022012586,0.0009351874,-0.00346664,-0.00060401702,0.004287594,5.3,0,0
0.0022379126,0.0005105454,-0.0012493659999999996,0.00057947698,0.0021377699999999998,5.301,0,0
0.0024938046,0.0004835694,0.0019442160000000003,0.0016056891800000001,-0.000649092,5.302,0,0
0.0031768506,0.00030774199999999995,0.0037037480000000006,0.00240631518,-0.002776246,5.303,0,0
0.0036628226,0.0007719186,0.004443730000000001,0.0026363400000000005,-0.0036946780000000003,5.304,0,0
0.003633341,0.0013709238000000003,0.004220988,0.0025649080000000003,-0.003981754,5.305,0,0
0.002686199,-0.0006684742000000001,0.002949204000000001,0.002015727,-0.0031528672000000007,5.306,0,0
0.0004771510000000001,-0.0042187442,0.002613424,0.0005944969999999999,-0.0010415052000000001,5.307,0,0
-0.002293377,-0.0060539007999999995,0.002708274,-0.000681391,0.0013203368000000004,5.308,0,0
-0.004891281000000001,-0.006752426799999999,0.002331444,-0.0017241490000000001,0.0032100128,5.309,0,0
-0.007274204000000001,-0.006557178,0.0024407920000000002,-0.0033310730000000004,0.005337432800000001,5.31,0,0
-0.008793586,-0.004247052,0.001624088,-0.00423954,0.007324100000000001,5.311,0,0
-0.009172218000000001,-0.0006348840000000002,-0.0009833320000000002,-0.0036665100000000004,0.007805562,5.312,0,0
-0.008736614,0.002195962,-0.0023404000000000003,-0.002957174,0.007623718000000001,5.313,0,0
-0.007585458,0.00329414,-0.0014459060000000003,-0.001784636,0.00711988,5.314,0,0
-0.005078933999999999,0.0032408472,-0.00036658999999999986,6.165599999999994e-05,0.0053160248,5.315,0,0
8.244599999999991e-05,0.0030838032,0.00014953420000000012,0.001396838,0.0024210607999999995,5.316,0,0
0.005946464,0.0029386632,0.00039307000000000014,0.0022314300000000004,-0.00044112320000000015,5.317,0,0
0.009434604000000001,0.0022568092,0.0005550530000000002,0.00315962,-0.0036797732000000004,5.318,0,0
0.011383882000000001,0.0015793104000000001,8.794580000000008e-05,0.0035317440000000003,-0.0069697171999999995,5.319,0,0
0.011745474,0.0012211792,0.0001377878,0.0032790700000000007,-0.009020845999999999,5.32,0,0
0.008900976,0.0007784094,0.0020633036,0.0032174540000000007,-0.009807478,5.321,0,0
0.005087166000000001,0.00039587140000000003,0.0038373538000000002,0.0026493420000000007,-0.00930298,5.322,0,0
0.002351356,-0.0003038346,0.0041422376,0.001034132,-0.007365728000000002,5.323,0,0
0.000420702,-0.0011434798,0.0039310628,-0.000326304,-0.003961836000000001,5.324,0,0
-0.0008278500000000001,-0.0015547998000000002,0.0026590948,-0.0010548700000000003,-0.000579242,5.325,0,0
-0.002011426,-0.0023194540000000003,-0.0005520392,-0.002418922,0.00199376,5.326,0,0
-0.0031748740000000003,-0.0032178960000000005,-0.0031498412000000005,-0.0035138420000000005,0.0042331520000000004,5.327,0,0
-0.003549888,-0.0031428050000000007,-0.003969998000000001,-0.0033875460000000004,0.005491648,5.328,0,0
-0.0037148780000000005,-0.0022569676000000006,-0.004255608000000001,-0.0032401060000000004,0.0050193040000000005,5.329,0,0
-0.0036369160000000005,-0.0010894655999999997,-0.0034097410000000004,-0.003143344,0.004009414,5.33,0,0
-0.003134186,1.036440000000004e-05,-0.0014161370000000005,-0.002219696,0.0033649680000000003,5.331,0,0
-0.0022266054,0.0010328544,0.00030094699999999976,-0.0009290280000000001,0.0020943034,5.332,0,0
-0.0003306454,0.0020435014,0.0013298849999999998,-0.00015623999999999998,0.0006223894000000001,5.333,0,0
0.0012671826000000001,0.00247751,0.001738891,0.000632196,-0.0004624326,5.334,0,0
0.0020086022,0.00276665,0.00072282,0.0018605500000000003,-0.0020552366000000004,5.335,0,0
0.0024992112000000004,0.003450768,-0.000693296,0.0022403320000000003,-0.004003728600000001,5.336,0,0
0.0021477326000000005,0.0038257859999999994,-0.0015726906000000003,0.0017429978,-0.004809120000000001,5.337,0,0
0.0005896685999999998,0.004067288,-0.0024108566000000005,0.0017934158000000003,-0.005013888000000001,5.338,0,0
-0.00039797760000000003,0.004167584,-0.0029366566000000004,0.0015217088000000001,-0.005138480000000001,5.339,0,0
-0.0007713628,0.002812162,-0.0026378366,0.00023784480000000002,-0.003679168,5.34,0,0
-0.0011616484,0.000681128,-0.0018115046,-0.00041405520000000005,-0.0013614759999999995,5.341,0,0
-0.0002459984,-0.001287158,-0.0010442339999999998,-0.00039029520000000004,0.0002979860000000002,5.342,0,0
0.0006672236,-0.003217402,0.0002478160000000003,-0.0010521712,0.0020590620000000004,5.343,0,0
0.0007927678,-0.0039490302,0.0014142900000000001,-0.0013908962,0.003844594,5.344,0,0
0.0017634034000000003,-0.003313917,0.0014394280000000002,-0.0009121003340000001,0.004188706,5.345,0,0
0.0028691840000000003,-0.0020146532,0.0009416560000000001,-0.000746193934,0.0035903178,5.346,0,0
0.0024325352,-0.0007298148,0.000729652,-0.0008083251339999999,0.0033272078,5.347,0,0
0.0019419114,-0.00021005480000000005,0.00043295200000000007,-0.00033843393399999997,0.0026451718000000003,5.348,0,0
0.0018219485999999999,-0.00033724260000000006,0.0006004680000000002,0.00021486206599999997,0.0012935878,5.349,0,0
0.0005661365999999998,-0.0005388382000000001,0.001814122,0.00029445839999999997,0.00043779979999999984,5.35,0,0
-0.0007620994000000002,-0.0007931650000000001,0.002850814,0.000870834,-0.00034874800000000007,5.351,0,0
-0.0016979026,-0.0011374494000000001,0.003406608,0.0018650734,-0.002078842,5.352,0,0
-0.0030777268000000005,-0.0010279874,0.0033979960000000003,0.0024453902,-0.0036533500000000005,5.353,0,0
-0.004211498000000001,-0.0007947980800000001,0.0030264930000000003,0.0025138902,-0.004238464000000001,5.354,0,0
-0.004794648,-0.0005356506800000001,0.0023445936000000005,0.0025342972000000005,-0.004754904,5.355,0,0
-0.0049221560000000004,5.5324319999999956e-05,0.0011623256000000003,0.0020649532,-0.004504328,5.356,0,0
-0.0042398934,0.0007613423199999999,-0.00014167040000000007,0.0007316171999999999,-0.0028521520000000006,5.357,0,0
-0.0023307154,0.0015415243199999999,-0.0010570624,-0.00030341079999999994,-0.0011385200000000003,5.358,0,0
0.0002464845999999999,0.0022997210000000002,-0.0018897754000000001,-0.0009391347999999999,6.5802e-05,5.359,0,0
0.0017566966,0.0030024220000000003,-0.00273148,-0.001562212,0.001606636,5.36,0,0
0.0024053028,0.00302191,-0.00262355,-0.0017140202000000002,0.0029119640000000004,5.361,0,0
0.0022726962,0.002201012,-0.0024828320000000004,-0.0012703507999999998,0.002871792,5.362,0,0
0.0010442702,0.0013286239999999998,-0.0034436180000000003,-0.0014195428000000003,0.002723872,5.363,0,0
7.071219999999997e-05,0.0004173241999999999,-0.00395237,-0.0017787768000000002,0.003068676,5.364,0,0
0.00021565419999999998,-0.0005729598000000001,-0.002561812,-0.001091488,0.0025911759999999997,5.365,0,0
0.000803364,-0.0011114704000000002,-0.00106288,-0.0004711138000000001,0.0011877880000000002,5.366,0,0
0.001771992,-0.0010189824000000002,0.00021489800000000004,-0.00037917320000000013,0.00032791000000000005,5.367,0,0
0.0032445300000000002,-0.0008045118,0.002645076,0.0004542348,-0.0004615300000000001,5.368,0,0
0.003241898,-0.0001973919999999999,0.004442008000000001,0.0017423628000000002,-0.002098374,5.369,0,0
0.001979832,0.0007972900000000001,0.003978708000000001,0.0018111260000000001,-0.003263892,5.37,0,0
0.0009186600000000002,0.0020782566,0.002430356,0.0014147250000000001,-0.003116316,5.371,0,0
-5.616799999999986e-05,0.0036188926000000005,0.0010099100000000001,0.0015754850000000004,-0.0026766148,5.372,0,0
-0.0014595799999999998,0.0043805860000000005,-0.000769828,0.0011239744000000002,-0.0022307358,5.373,0,0
-0.0022118800000000003,0.00392709792,-0.002712412,0.00011422040000000003,-0.0010428066,5.374,0,0
-0.0011201459999999998,0.00169747392,-0.003671576,4.068960000000007e-05,3.6260599999999996e-05,5.375,0,0
-0.0008255987999999999,-0.00187349808,-0.003548524,9.460900000000007e-05,0.000520762,5.376,0,0
-0.0016596308,-0.00441266208,-0.0035823960000000007,-0.0007494229999999999,0.0011005708000000002,5.377,0,0
-0.0017594628,-0.00496782608,-0.0036811820000000007,-0.0011565224,0.0018792858000000003,5.378,0,0
-0.0020001428,-0.005377456,-0.002610046,-0.0011027444,0.0022775606000000003,5.379,0,0
-0.0027503288000000005,-0.005109128,-0.0014824743999999998,-0.0013957826,0.0028811794000000003,5.38,0,0
-0.0025305474000000003,-0.0032440600000000004,-0.0009754063999999998,-0.0015498624,0.00357191,5.381,0,0
-0.0012806108000000002,-0.0020787682,0.00019897760000000002,-0.0007662044,0.0027917818,5.382,0,0
-0.0005809052000000001,-0.0021611856,0.0018708976,9.776159999999996e-05,0.0015667078000000001,5.383,0,0
5.303879999999995e-05,-0.0019900236,0.0032167596000000002,0.0006508416,0.0005719937999999999,5.384,0,0
0.0007544548,-0.0009950406000000002,0.004658354,0.0013771885999999999,-0.0010498842000000001,5.385,0,0
0.0009156102,-0.00021257059999999997,0.005173502000000001,0.00173448,-0.0026468062000000003,5.386,0,0
0.0008952366000000001,0.00018237960000000008,0.004239242400000001,0.0016671984,-0.0032190900000000004,5.387,0,0
0.0009372862000000001,0.0003397112000000001,0.0036374544,0.0015292404,-0.0036370860000000003,5.388,0,0
0.0012752122,0.0006104380000000001,0.0028961744,0.0014950668,-0.003807476,5.389,0,0
0.0015573482000000001,0.0006896352000000001,0.0009518523999999999,0.0008342266000000002,-0.0027751244,5.39,0,0
0.0021638462,0.000443419,-0.00039934759999999997,0.00027342460000000007,-0.0015127064,5.391,0,0
0.0029523292,0.0008293370000000001,-0.0007355419999999999,0.00022868060000000003,-0.0003213643999999998,5.392,0,0
0.0035324020000000005,0.0011485008,-0.001587804,-0.0004868374,0.0014790796,5.393,0,0
0.0037564320000000005,0.0013114140000000001,-0.002368736,-0.0014655118,0.0034656896000000003,5.394,0,0
0.003395578,0.0018105438,-0.002321214,-0.0015045775999999998,0.0042651500000000005,5.395,0,0
0.0027716740000000004,0.0024785000000000002,-0.0020402420000000003,-0.0010706227999999999,0.00415275,5.396,0,0
0.001797242,0.002794598,-0.001956434,-0.0010458057999999998,0.004098234,5.397,0,0
0.00090461,0.0030378920000000004,-0.0015692202000000001,-0.00012271179999999974,0.0038323500000000004,5.398,0,0
-0.00011237399999999994,0.00333414,-0.0008569202000000002,0.0011181522000000001,0.0027186960000000005,5.399,0,0
-0.0014292939999999998,0.0028332776,-0.00041165000000000017,0.0012143702,0.001318354,5.4,0,0
-0.0027620120000000003,0.0010766496000000005,0.000492566,0.000984245,0.00041884400000000003,5.401,0,0
-0.0037121840000000003,-0.0012317644000000001,0.001958034,0.0010115395999999999,-0.0006891260000000001,5.402,0,0
-0.0037517320000000002,-0.0025652804,0.0025660742,0.0005126298000000001,-0.0023046440000000002,5.403,0,0
-0.0034173116000000003,-0.0034625404,0.0023971314000000004,-0.0001819742,-0.0033613020000000005,5.404,0,0
-0.0033640256000000003,-0.004092392,0.0024805532000000004,-0.000340345,-0.003523242,5.405,0,0
-0.0036691376000000005,-0.0033456300000000005,0.0016384152,-0.0008295446,-0.0035815440000000003,5.406,0,0
-0.004198771600000001,-0.002274074,0.0003434572000000001,-0.0017544466,-0.002876974,5.407,0,0
-0.0055227816,-0.0017739894,-7.176478399999997e-05,-0.0020706168000000002,-0.0014564120000000002,5.408,0,0
-0.0063725480000000004,-0.0011995204000000003,-0.000664201984,-0.0017909104,-0.00019317800000000007,5.409,0,0
-0.0046845920000000004,-0.00012847640000000006,-0.001417221984,-0.001804818,0.00110708,5.41,0,0
-0.0008174000000000007,0.0011391376000000001,-0.0016325679839999999,-0.001282842,0.0020387300000000003,5.411,0,0
0.0038661060000000002,0.0021832276000000005,-0.0018612639840000001,-0.0003858262,0.0020999812,5.412,0,0
0.007199012000000001,0.0024104328000000004,-0.002634656,-0.00027150420000000006,0.0018876012,5.413,0,0
0.00889203,0.0018571618000000002,-0.002681728,-0.00037228740000000004,0.0018268532000000003,5.414,0,0
0.009025754,0.0014614458000000003,-0.0018323380000000004,4.5017000000000006e-05,0.0012343446,5.415,0,0
0.0076526480000000015,0.0011298198,-2.8547999999999985e-05,0.00018841160000000002,0.0007009539999999999,5.416,0,0
0.006739808,0.0006254598000000001,0.0028094240000000005,-0.00017194820000000002,0.0005762642000000001,5.417,0,0
0.006362568,0.0005628240000000001,0.005338446,0.0002080394,-0.00012228979999999998,5.418,0,0
0.004900013999999999,0.001028649,0.006982238,0.0006973702,-0.0012707218,5.419,0,0
0.0025289379999999997,0.000424483,0.006875106000000001,0.0006236486,-0.0018676452,5.42,0,0
0.0004526799999999998,-0.000715481,0.0046119460000000004,0.0007115019999999999,-0.0021811446,5.421,0,0
-0.0025187200000000003,-0.00095187282,0.0014538379999999998,0.001167986,-0.002792506,5.422,0,0
-0.0050755800000000005,-0.0011740500199999998,-0.00165814,0.001137892,-0.002507015,5.423,0,0
-0.005633694,-0.0014211864199999997,-0.005270746000000001,0.000527116,-0.0014766949999999997,5.424,0,0
-0.005181204000000001,-0.0012374824199999999,-0.007844758,0.00010666159999999991,-0.0009007231999999997,5.425,0,0
-0.0039109340000000005,-0.00078801942,-0.008395050000000001,-0.0002751838000000001,-0.0003903772,5.426,0,0
-0.002889486,-0.00023534959999999992,-0.00757323,-0.00040751520000000007,0.0007368708,5.427,0,0
-0.002409148,0.00041512160000000005,-0.004803782,-0.00020934080000000014,0.0016499398000000003,5.428,0,0
-0.0020319820000000003,0.0008909310000000001,-0.0011055600000000007,-0.00028591280000000004,0.0016090058000000002,5.429,0,0
-0.002471656,0.001554217,0.0013062681999999998,-0.0005143388000000001,0.0014735674,5.43,0,0
-0.004079208000000001,0.0016696278,0.0026964838,-0.0007470434000000001,0.0015396508,5.431,0,0
-0.004695442,0.00013859980000000016,0.0033709458,-0.0009085636000000001,0.0008850628000000001,5.432,0,0
-0.004597862,-0.0021397242,0.0021242514,-0.0010617486,-0.00024292520000000002,5.433,0,0
-0.0041178840000000005,-0.0034520822,0.0010605628,-0.0007079506,-0.0007726392000000002,5.434,0,0
-0.0016172220000000004,-0.0035546546,0.0020305646000000005,0.0004384794,-0.0017024446,5.435,0,0
0.0007331459999999998,-0.003521215,0.0029860090000000004,0.0012624794,-0.00286124,5.436,0,0
0.00202703,-0.0023610174,0.002404419,0.0014651470000000002,-0.0026201976,5.437,0,0
0.004175534,-0.00016109940000000002,0.0019313534000000002,0.0016611700000000002,-0.0021742296,5.438,0,0
0.00607012,0.0014310826000000002,0.0011659700000000001,0.0016324406,-0.0022055336,5.439,0,0
0.006031204,0.002408533,-0.000550828,0.0005294545999999999,-0.0009472055999999998,5.44,0,0
0.006111012,0.0041960556,-0.0016256718,-0.00026983340000000006,0.0008485484,5.441,0,0
0.006421924,0.005840368,-0.0028732398,-0.00028790639999999996,0.001642798,5.442,0,0
0.005105078,0.005524269599999999,-0.0041912338,-0.0007854078000000001,0.0026184140000000003,5.443,0,0
0.0031394299999999995,0.0039496076,-0.0045841918,-0.0008243052000000001,0.003797078,5.444,0,0
0.001103182,0.0007826056000000002,-0.0046507938000000006,-3.9553199999999965e-05,0.0038944179999999998,5.445,0,0
-0.00149797,-0.0028969764,-0.005532236,0.0004084332,0.0032282464000000003,5.446,0,0
-0.004188308,-0.004503200400000001,-0.005428568,0.00020155940000000003,0.0025425090000000005,5.447,0,0
-0.005921720000000001,-0.0033838500000000003,-0.0039078916,0.00017476940000000002,0.0015117378,5.448,0,0
-0.006708896,-0.0009771680000000003,-0.0034011396000000003,0.00010356419999999996,0.0004899284000000001,5.449,0,0
-0.00707057,0.0018008680000000002,-0.0015182536000000006,-0.0006640058000000001,0.00026927380000000005,5.45,0,0
-0.0058105328,0.0036961768000000005,0.0025934544,-0.0009929042000000003,0.00020096540000000003,5.451,0,0
-0.0030789308,0.0022760668000000005,0.0057090104,-0.0005017534000000001,-0.0006217072000000001,5.452,0,0
-0.0009673908,-0.0008377152,0.007545302,-0.0004612224,-0.001417838,5.453,0,0
0.0003381471999999999,-0.0032757912,0.009072806,-0.0006556764,-0.0014008162000000001,5.454,0,0
0.0015473951999999999,-0.0045446272,0.008152554,-0.0002474264,-0.0017118740000000002,5.455,0,0
0.0012576699999999998,-0.0046580262,0.00487487,-0.0005571564,-0.0022148240000000002,5.456,0,0
-0.000481214,-0.0035973256000000004,0.002469608,-0.0017241164,-0.0016454820000000002,5.457,0,0
-0.00077267,-0.0017007110000000001,0.001223848,-0.0018131760000000003,-0.0006999716000000001,5.458,0,0
2.1586000000000196e-05,-9.63409999999999e-05,0.0006949459999999999,-0.0016398344000000003,-0.0006203520000000001,5.459,0,0
0.001064136,0.0007617450000000001,0.000723062,-0.0020441664,-0.00013189360000000005,5.46,0,0
0.0026812960000000005,0.0007966649000000001,0.0012379939999999999,-0.0015124544000000002,0.0011067984000000001,5.461,0,0
0.004285276,0.0012459203,0.0014050576,-0.0005806442,0.0013475660000000001,5.462,0,0
0.005061996,0.0017831177,0.0004884996,-0.0005719022000000001,0.0010134188000000001,5.463,0,0
0.004967300000000001,0.0017890237,-0.0004657904000000001,-0.0006501508,0.0008559488000000003,5.464,0,0
0.004681028000000001,0.0021955837,-0.0014227124000000002,8.507200000000006e-06,0.00033638,5.465,0,0
0.003101244,0.002191904598,-0.0022498724,0.0006386372,-0.000571015,5.466,0,0
0.0007046539999999999,0.001229496598,-0.002381414,0.001151001,-0.0005591446,5.467,0,0
-0.001959552,0.00013144259799999995,-0.002286588,0.002489947,-9.51398e-05,5.468,0,0
-0.00450535,-0.0006143642019999999,-0.002062204,0.004000252,-0.0002013258000000001,5.469,0,0
-0.005899232,-0.001071088202,-0.0014202194000000003,0.0044852880000000005,-0.0001806432000000001,5.47,0,0
-0.006334638,-0.0010483132,-0.0008101586,0.004387796,-7.71020000000006e-06,5.471,0,0
-0.005050725400000001,-0.00032309000000000005,-0.0011560806,0.003932128000000001,-0.0005148682000000001,5.472,0,0
-0.0022027594000000005,0.000934266,-0.0027631446,0.0022174620000000003,-0.0011904662000000001,5.473,0,0
-0.00048643140000000003,0.0011609014,-0.0039953186000000005,1.4890000000000259e-05,-0.0007491336,5.474,0,0
-0.0006344174000000001,-6.938060000000006e-05,-0.0038801258000000006,-0.0010498159999999999,-0.00020570339999999998,5.475,0,0
-0.0007258094000000001,-0.0008988142,-0.003192768600000001,-0.0016419298,3.294459999999999e-05,5.476,0,0
-0.001847962,-0.0015123014000000003,-0.0019065305999999998,-0.0022588038,0.0006717666000000001,5.477,0,0
-0.0028874360000000006,-0.0024076128000000002,-6.405039999999994e-05,-0.0017797804000000003,0.0013725006,5.478,0,0
-0.0010668320000000002,-0.0019741574,0.0011558736000000002,-0.0008085776,0.0016353560000000001,5.479,0,0
0.0020665920000000003,-0.00013947539999999972,0.0009448038000000001,-0.0008549515999999999,0.001986288,5.48,0,0
0.004683142,0.0012009686,0.0007193518,-0.0012252898,0.0023648980000000003,5.481,0,0
0.006319092,0.0017721958000000001,0.0016914998000000002,-0.0007936362000000001,0.0019703620000000002,5.482,0,0
0.006405358000000001,0.0018602556000000003,0.0030979116000000003,-0.0005564236000000001,0.0017063988,5.483,0,0
0.004934058000000001,0.0014050132000000002,0.0040039736,-0.0005882716,0.0016774088000000003,5.484,0,0
0.0032454640000000004,0.0009222092000000001,0.004580266,0.0003867444000000001,0.0004765728,5.485,0,0
0.002207754,0.0007605812,0.0046221660000000005,0.0012555344000000001,-0.0011812212,5.486,0,0
0.0024370980000000004,0.001265886,0.003738986,0.0011384726000000002,-0.0016575632,5.487,0,0
0.0035893260000000003,0.0018817436,0.003015564,0.0011293788000000002,-0.0022699260000000002,5.488,0,0
0.003946954,0.002103258,0.0025828520000000005,0.0011605604,-0.0036530040000000005,5.489,0,0
0.0031932600000000003,0.0021471600000000004,0.001528882,0.0004507644000000001,-0.0037744760000000006,5.49,0,0
0.0024046298000000004,0.0019354101999999999,0.00024267799999999997,2.9940400000000006e-05,-0.002594952800000001,5.491,0,0
0.0006053058000000003,0.0006250142000000002,-0.0004227402000000001,0.00021626940000000003,-0.0021496558000000006,5.492,0,0
-0.0015876162,-0.0010192698,-0.0019931002000000003,-9.792600000000005e-06,-0.0018101604000000002,5.493,0,0
-0.0018659661999999998,-0.0016462818,-0.0038817942,-0.00027326280000000003,-0.0004547144,5.494,0,0
-0.0019450461999999998,-0.0023883237999999998,-0.0035358322000000005,-9.980119999999999e-05,0.0005311476,5.495,0,0
-0.002512332,-0.0026966246,-0.0024987962000000002,9.591380000000002e-05,0.0007949544000000002,5.496,0,0
-0.002309354,-0.0016102906,-0.0021447040000000007,-0.00021647700000000002,0.0014704914000000001,5.497,0,0
-0.0024427940000000003,-0.0002276346000000002,-0.0008863040000000001,-0.0003137052,0.00211721,5.498,0,0
-0.0037381380000000002,-0.00016278460000000006,0.001299158,-0.000176884514,0.0017595560000000002,5.499,0,0
-0.004878368,-0.0010082206,0.002017596,-0.000693280114,0.0016063820000000002,5.5,0,0
-0.005187716,-0.0016956180000000003,0.0008472219999999999,-0.001080335914,0.0016127040000000002,5.501,0,0
-0.005147984,-0.0020948696000000003,-0.00033730200000000015,-0.0009347111139999999,0.0009307138000000002,5.502,0,0
-0.004838772,-0.0020261516,-0.0006671848000000001,-0.0006890059140000001,0.00033893560000000005,5.503,0,0
-0.003947092,-0.0018006616,-0.0013981834,-0.00041261680000000004,3.52016000000001e-05,5.504,0,0
-0.0019220480000000002,-0.0006476836,-0.0022853354,-7.577959999999998e-05,-0.0009929043999999999,5.505,0,0
0.00033754399999999995,0.0003149558,-0.0028349053999999997,-0.00013520480000000004,-0.0022552544,5.506,0,0
0.001975434,0.0004214008,-0.0043462394,-0.0005811496,-0.0024566322,5.507,0,0
0.0033834760000000003,0.0010250968000000001,-0.0063394126,-0.0009794728,-0.0023415039999999995,5.508,0,0
0.004369902,0.0021632068000000003,-0.006908622,-0.0014730628,-0.002450428,5.509,0,0
0.0045270499999999995,0.0028229048000000005,-0.004302357999999999,-0.002121404,-0.002112348,5.51,0,0
0.003984874,0.0028828170000000006,-0.0005095399999999997,-0.002553836,-0.0011399872000000001,5.511,0,0
0.0036159560000000005,0.0032494976000000007,0.00216926,-0.0024329039999999996,-0.0008330908,5.512,0,0
0.003330832,0.002828491600000001,0.0044068232,-0.0030423159999999998,-0.0010499848,5.513,0,0
0.003144542,0.0019766316,0.005044470800000001,-0.003921568,-0.00045356,5.514,0,0
0.003031134,0.0016682956000000002,0.0031822127999999996,-0.003295578000000001,0.00013202120000000003,5.515,0,0
0.0029728080000000004,0.001811062,0.0013235368,-0.0024952502,5.3111000000000034e-05,5.516,0,0
0.003396594,0.0014867932,0.0013815087999999999,-0.0019894726,0.00038736460000000006,5.517,0,0
0.003351114,-7.516680000000005e-05,0.0024492576,-0.0003555686000000001,0.0008684205999999999,5.518,0,0
0.003036134,-0.0014643188,0.003815202,0.0020461854,0.0010130758,5.519,0,0
0.0023265138,-0.0025644468,0.0040625520000000005,0.0039177674,0.0019876726000000004,5.52,0,0
5.137980000000011e-05,-0.0034568688000000004,0.0037341780000000003,0.006123945600000001,0.0030119860000000004,5.521,0,0
-0.0032369182,-0.0038483000000000002,0.004007188000000001,0.009007248,0.003137916,5.522,0,0
-0.0066523902,-0.0034937260000000004,0.003233612,0.010724716,0.0035120200000000002,5.523,0,0
-0.0099132542,-0.0030139600000000004,0.001543252,0.011230168000000002,0.004054604,5.524,0,0
-0.011475138,-0.0027690600000000003,5.306399999999991e-05,0.011330032,0.0035280980000000003,5.525,0,0
-0.010516184,-0.00230706,-0.001310294,0.010423842000000001,0.002804248,5.526,0,0
-0.008962916,-0.0018880012000000001,-0.003540428,0.008064646,0.0032653300000000003,5.527,0,0
-0.007142778,-0.0012257932,-0.0053804180000000005,0.005682746,0.0037676260000000005,5.528,0,0
-0.004737435999999999,-0.0002607571999999999,-0.005867182000000001,0.0037631006000000003,0.0032894520000000004,5.529,0,0
-0.002888792,0.0006166388,-0.00527462,0.0005319066,0.0028263226000000002,5.53,0,0
-0.0015560879999999997,0.00045378080000000004,-0.003027254,-0.0034658834000000005,0.0023005919999999997,5.531,0,0
-0.000360002,-3.6199999999999145e-06,-0.0006422440000000004,-0.0066747674,0.0002312080000000001,5.532,0,0
0.0008385928,0.000685394,0.0005912859999999998,-0.009807067400000001,-0.0024269540000000003,5.533,0,0
0.0018927288,0.00194565,0.0011402739999999997,-0.013202534000000002,-0.004223538,5.534,0,0
0.0027519868,0.003143862,0.001225396,-0.014626499999999999,-0.0059110026000000005,5.535,0,0
0.0030895468,0.004484616,0.0002676543999999999,-0.01412292,-0.007099468,5.536,0,0
0.0028304758,0.004888341,-0.0006265834,-0.014077280000000001,-0.007227578,5.537,0,0
0.003668627,0.002840804999999999,-0.00022024340000000004,-0.013336839999999999,-0.007640916000000001,5.538,0,0
0.006194069,-0.0003207990000000001,0.0010500426000000002,-0.011412862,-0.008404126000000001,5.539,0,0
0.009529204999999999,-0.002622013,0.0022340726000000003,-0.010075394000000001,-0.008607704,5.54,0,0
0.011701666999999999,-0.0038761274,0.0027766102,-0.008584602,-0.008183882,5.541,0,0
0.012485972,-0.0041956344,0.0031401660000000002,-0.0054477580000000005,-0.0069238248,5.542,0,0
0.012282626000000001,-0.0030200724,0.0023279000000000004,-0.0015405840000000007,-0.0038683628,5.543,0,0
0.009645184,-0.0013401406,0.0006859600000000002,0.002821018,0.0007938572000000007,5.544,0,0
0.0057121,-0.0005624732000000001,-0.0002797908000000001,0.00836987,0.0049318492,5.545,0,0
0.0031849,-4.261880000000002e-05,-0.0006289108,0.013396838,0.0078252472,5.546,0,0
0.002198872,0.0009912092,-0.0006016408000000003,0.016523114,0.009899088000000002,5.547,0,0
0.00014658199999999992,0.0024327592,-0.00023785120000000004,0.0189643,0.010291308,5.548,0,0
-0.0030423160000000006,0.0041238174,-7.180720000000008e-05,0.02056146,0.008691852000000002,5.549,0,0
-0.006655252,0.0059727320000000006,-0.0017822384,0.01966764,0.007166792,5.55,0,0
-0.011470372,0.006775306,-0.005153172399999999,0.016959796000000003,0.006226916000000001,5.551,0,0
-0.016381852000000002,0.0061852274,-0.0087733784,0.014004823999999999,0.00479559,5.552,0,0
-0.019496020000000003,0.005213565399999999,-0.010732758000000002,0.009337184000000002,0.0036304820000000004,5.553,0,0
-0.020182940000000003,0.0028692934,-0.008659274000000002,0.002335424000000001,0.002488054,5.554,0,0
-0.019697340000000004,-0.0006444506000000004,-0.0013267900000000004,-0.003973476,0.0005489599999999998,5.555,0,0
-0.018299480000000003,-0.0029276646,0.00811607,-0.009123572,-0.0009479380000000002,5.556,0,0
-0.016000720000000003,-0.004721456,0.015422550000000002,-0.013789500000000001,-0.0006975700000000001,5.557,0,0
-0.012725958,-0.006942824,0.020265110000000003,-0.015909060000000003,-0.00030300200000000013,5.558,0,0
-0.007947300000000001,-0.007751804,0.0189285796,-0.014889080000000002,-0.000416222,5.559,0,0
-0.0013390800000000007,-0.0069680639999999995,0.010068359600000002,-0.011988838000000002,0.0007896691999999999,5.56,0,0
0.007865279999999999,-0.0057600666,2.9339600000000392e-05,-0.006562638000000001,0.0020867472,5.561,0,0
0.01735136,-0.0042055519999999996,-0.0067821204,0.000792942,0.0021168552,5.562,0,0
0.023101998000000002,-0.002506394,-0.010836214399999999,0.007687242,0.0035035912,5.563,0,0
0.023510974000000004,-0.000725184,-0.011688404000000001,0.014054262,0.0071865952,5.564,0,0
0.018878634000000002,0.0006663980000000001,-0.009026542000000002,0.01807752,0.009826838000000001,5.565,0,0
0.010103274000000002,0.0011779166,-0.005950126,0.017363952,0.010537020000000001,5.566,0,0
0.0003569939999999998,0.0016955120000000001,-0.003741912,0.013126639999999998,0.010078364000000001,5.567,0,0
-0.005847832000000001,0.0020082718,-0.0026860139999999996,0.0070182,0.0076878879999999995,5.568,0,0
-0.007725049,0.0016857506000000002,-0.0025242700000000003,0.0005907919999999999,0.0040736900000000005,5.569,0,0
-0.006623953000000001,0.0012802376,-0.002087606,-0.004250084000000001,0.00023383999999999992,5.57,0,0
-0.003128825,0.0013281056000000002,-0.0010042320000000003,-0.007373230000000001,-0.0032684700000000003,5.571,0,0
0.0017230610000000001,0.0021177156000000003,0.0002876580000000001,-0.009501558000000002,-0.006255804,5.572,0,0
0.005045099,0.0030400178,0.0015602320000000002,-0.011320218000000002,-0.009372308000000001,5.573,0,0
0.006267870000000001,0.003684291,0.003709352000000001,-0.01454907,-0.013334829999999999,5.574,0,0
0.0057007080000000005,0.0037939799999999997,0.0057526420000000005,-0.019516414000000003,-0.01832204,5.575,0,0
0.004878590000000001,0.002759836,0.005841572,-0.02453292,-0.02359372,5.576,0,0
0.007746464,0.0017986860000000003,0.003821024,-0.02822246,-0.028993220000000004,5.577,0,0
0.011042572,0.001249872,0.0009509239999999997,-0.02965876,-0.033736560000000006,5.578,0,0
0.013353204000000002,-9.520600000000013e-05,-0.0017441900000000005,-0.02847264,-0.03495086,5.579,0,0
0.01825067,-0.0006435380000000001,-0.003896188,-0.02504278,-0.030741154000000003,5.58,0,0
0.02158056,-0.00011792700000000012,-0.00399945,-0.0196312,-0.023523719400000004,5.581,0,0
0.017679262000000005,-0.0007779169999999999,-0.0017574099999999994,-0.012844106000000003,-0.015196699400000003,5.582,0,0
0.011910452000000002,-0.001619489,0.0001298750400000001,-0.0054773059999999995,-0.004840359400000001,5.583,0,0
0.00787938,-0.0010100924000000001,0.0008814510400000002,0.0023811340000000005,0.0047398206,5.584,0,0
0.0030528402000000003,-0.0004831704,0.00130989184,0.010137814000000002,0.0104852746,5.585,0,0
-0.0002488158000000002,-0.00043709359999999993,0.00025089984000000007,0.016717634000000002,0.0142311,5.586,0,0
-0.0011479760000000002,-0.00013319760000000003,-0.00178670416,0.021709700000000002,0.01786312,5.587,0,0
-0.000951634,0.00028950024,-0.0024732172000000003,0.025025440000000003,0.01929686,5.588,0,0
-0.002563402,0.00050582644,-0.0023517192,0.02644836,0.018377980000000002,5.589,0,0
-0.0075575222,0.0005827604400000001,-0.0025437736,0.025811480000000005,0.017840180000000004,5.59,0,0
-0.013342826200000001,0.00064527864,-0.0018477416000000002,0.023928300000000003,0.017248580000000003,5.591,0,0
-0.018483068000000002,-6.147935999999989e-05,-0.0001481176,0.02084578,0.015613479999999999,5.592,0,0
-0.02262964,-0.0009207451999999999,0.0012097624000000002,0.015995722,0.014049800000000001,5.593,0,0
-0.0229602,-0.00077626,0.0018208484000000003,0.010010548000000001,0.012594658000000002,5.594,0,0
-0.018886042,-0.00018926800000000003,0.002773746,0.0041818260000000005,0.009486602000000002,5.595,0,0
-0.013894442000000002,-5.7381999999999757e-05,0.003833878,-0.0007632899999999996,0.005902148000000001,5.596,0,0
-0.008267224000000002,-0.0004486639999999999,0.00433047,-0.004740482000000001,0.0037005184000000004,5.597,0,0
-0.003003773999999999,-0.0016171339999999999,0.004906006,-0.006559578,0.0019321664000000003,5.598,0,0
-0.0005770567999999998,-0.003318242,0.004154340000000001,-0.006900556,1.7992399999999987e-05,5.599,0,0
0.0008555372000000002,-0.005110766,0.001705174,-0.006852558000000001,-0.0007648916000000002,5.6,0,0
0.0024919532,-0.006027968000000001,-0.00018805199999999953,-0.0058520840000000005,-0.0006926576000000002,5.601,0,0
0.0031040592000000002,-0.004519532,-0.0009372579999999998,-0.003961523000000001,-0.0017071580000000003,5.602,0,0
0.0037511432000000003,-0.001848784,-0.0016632259999999999,-0.0026714001320000003,-0.003196066,5.603,0,0
0.005219946,0.0003679620000000002,-0.0017919560000000004,-0.002303452132,-0.0037686420000000004,5.604,0,0
0.006865115999999999,0.002159764,-0.0006875119999999999,-0.0017301161320000002,-0.0037131860000000003,5.605,0,0
0.00875616,0.0034486360000000006,9.068219999999997e-05,-0.002506816132,-0.004197228,5.606,0,0
0.009487762000000002,0.0032918012000000005,4.504220000000009e-05,-0.004612405132,-0.004915456,5.607,0,0
0.008733666000000001,0.0030379132000000007,-0.0002964481999999999,-0.006383176000000001,-0.00557265,5.608,0,0
0.008163628000000001,0.0038870232,-1.5074199999999972e-05,-0.008810872,-0.007700518000000001,5.609,0,0
0.006624153999999999,0.0039378152,0.0003855082000000001,-0.012386683999999999,-0.011269354,5.61,0,0
0.004592880000000001,0.0040817832,-0.00019306599999999998,-0.015610862,-0.015218872000000001,5.611,0,0
0.003529786,0.005715442,-0.0006071484000000001,-0.018486102,-0.019004694000000003,5.612,0,0
0.00018852799999999987,0.00600728,-2.257200000000011e-05,-0.021005140000000002,-0.020590780000000003,5.613,0,0
-0.005771914,0.003737774,0.0011097659999999999,-0.020566340000000002,-0.018639272000000002,5.614,0,0
-0.008709982,0.0017379440000000002,0.0014483116,-0.014773844000000003,-0.013070274000000002,5.615,0,0
-0.010428786,-0.0008036099999999997,0.0009002456,-0.0015544439999999986,-0.0015460340000000017,5.616,0,0
-0.014360178000000001,-0.004283764,-1.4020000000000005e-05,0.019328296000000002,0.015509665999999998,5.617,0,0
-0.014439778,-0.006445514,-0.0009070132,0.042988996,0.032690186,5.618,0,0
-0.012178518,-0.007319672000000001,-0.0020499012,0.064166676,0.048355418000000004,5.619,0,0
-0.013648578,-0.007366058,-0.0030739632,0.07924571999999999,0.06335106,5.62,0,0
-0.01792266,-0.00728471,-0.0022367748000000002,0.08532526,0.07482286,5.621,0,0
-0.02284454,-0.007696134,-0.0008051647999999998,0.08287052,0.08009018000000001,5.622,0,0
-0.027353620000000002,-0.008511082000000001,-0.0003826855999999999,0.07348866,0.07959506000000001,5.623,0,0
-0.03168700000000001,-0.009355140000000001,-0.00042233759999999983,0.059043820000000004,0.0738188,5.624,0,0
-0.03661686,-0.010028148,-3.7265599999999964e-05,0.043036784,0.062184680000000006,5.625,0,0
-0.041024500000000005,-0.009644312,0.0004050620000000001,0.026278624000000004,0.04599948,5.626,0,0
-0.04398452,-0.008215972,0.000421472,0.006477663999999998,0.027531164,5.627,0,0
-0.04656776,-0.005950576799999999,0.000348622,-0.016344856,0.005055244000000002,5.628,0,0
-0.04336944,-0.0024284888000000006,0.00094849,-0.042234176,-0.023776216,5.629,0,0
-0.02961658,0.0015533052000000001,0.0019432820000000002,-0.07063206,-0.054774796,5.63,0,0
-0.005722759999999999,0.005155563200000001,0.00214737,-0.09580994000000001,-0.083305496,5.631,0,0
0.026485960000000003,0.009723423200000001,0.0017821854000000003,-0.11181996000000001,-0.1070793,5.632,0,0
0.056144200000000005,0.014916048000000001,0.0007139034000000002,-0.11654613999999999,-0.12073764,5.633,0,0
0.07573948,0.01839796,-0.0011121386000000001,-0.10936132000000001,-0.12090959999999999,5.634,0,0
0.08830962,0.02016654,-0.0027793826,-0.09271774,-0.11187934,5.635,0,0
0.09351464000000001,0.019659644,-0.0037635126000000003,-0.07197442,-0.09734066,5.636,0,0
0.09007968,0.016526006,-0.003922479,-0.050753132,-0.07784556,5.637,0,0
0.08379306,0.011993981999999999,-0.002735299,-0.029228051999999994,-0.056432594,5.638,0,0
0.07750788,0.0072434987999999995,-0.0007230110000000002,-0.006541351999999997,-0.033614634000000004,5.639,0,0
0.06499138,0.0032480568000000003,0.0006478370000000001,0.015756568,-0.009366394000000002,5.64,0,0
0.042675279999999996,0.0010675448000000002,0.0012754042,0.035667647999999996,0.012896465999999999,5.641,0,0
0.015526559999999998,-0.0007024872,0.0017864312000000003,0.05120972,0.032766386,5.642,0,0
-0.009277140000000001,-0.0032879392,0.0019555712,0.061654299999999995,0.05118088,5.643,0,0
-0.028978060000000003,-0.005450536,0.0019014492000000002,0.06764798,0.06464514,5.644,0,0
-0.044209960000000006,-0.007436514,0.0021651612,0.0691169,0.07044790000000001,5.645,0,0
-0.05246642,-0.009471846,0.001936751,0.0656982,0.06985252,5.646,0,0
-0.0524419,-0.010515256,0.0005606030000000002,0.05841888,0.06411518000000001,5.647,0,0
-0.050397960000000006,-0.009489348000000002,-0.000782265,0.04796476,0.053992,5.648,0,0
-0.05038316000000001,-0.007972654,-0.0016147450000000001,0.034548296,0.04236838000000001,5.649,0,0
-0.04863632000000001,-0.007395471999999999,-0.002567441,0.020597738,0.032457860000000005,5.65,0,0
-0.04274154000000001,-0.006517834,-0.0024878274,0.006989298,0.024284686,5.651,0,0
-0.033955726000000006,-0.005787344,-0.0013157694000000002,-0.006971582000000001,0.015650314,5.652,0,0
-0.022404246,-0.0056038979999999995,-0.00048066682000000007,-0.020997402000000005,0.0047911939999999995,5.653,0,0
-0.007824826,-0.004146641999999999,-0.00014111042000000004,-0.033931298000000006,-0.007146206000000001,5.654,0,0
0.006449074000000001,-0.0008710540000000002,-2.2964200000000223e-06,-0.045552560000000006,-0.019600926,5.655,0,0
0.016946594000000002,0.0027458279999999996,-0.00038177101999999996,-0.05441200000000001,-0.032214532000000004,5.656,0,0
0.023922700000000005,0.006222778,-0.00109027302,-0.058844780000000006,-0.04238362,5.657,0,0
0.029979360000000004,0.009080659999999999,-0.0010667816000000001,-0.05808420000000001,-0.04801524,5.658,0,0
0.035748520000000006,0.010111868,-0.0008778516,-0.05043618000000001,-0.048705700000000005,5.659,0,0
0.04001226000000001,0.009078362000000001,-0.0010977976,-0.03668871,-0.04332590000000001,5.66,0,0
0.04196992,0.006868260399999999,-0.0012722216000000002,-0.01987389,-0.0322922064,5.661,0,0
0.0396762,0.0048564236000000005,-0.0005390416000000001,-0.0030847500000000024,-0.019828066399999997,5.662,0,0
0.033072536,0.0028114562000000004,0.00024026640000000008,0.01180335,-0.007127946400000001,5.663,0,0
0.022621362,0.0014438902000000003,-0.00041549599999999995,0.022535470000000002,0.0051532736,5.664,0,0
0.010418582,0.0015128362,-0.00027752399999999997,0.02909328,0.0149059536,5.665,0,0
-0.001593158,0.0015398777999999999,0.00121528,0.03221836,0.021894320000000002,5.666,0,0
-0.010760338000000001,0.0007990905999999998,0.001897722,0.03289464,0.02736284,5.667,0,0
-0.013522218000000003,-0.0004873360000000002,0.0024869899999999997,0.03378308,0.03196708,5.668,0,0
-0.013970094,-0.0019437840000000005,0.00396742,0.03369336,0.034965380000000004,5.669,0,0
-0.016531094000000003,-0.0034796760000000006,0.004788444,0.031246160000000002,0.03546172,5.67,0,0
-0.020512094,-0.0049303920000000005,0.004761434,0.02690424,0.03195366,5.671,0,0
-0.026758814,-0.0057085980000000005,0.004608488,0.020604358,0.024792360000000003,5.672,0,0
-0.03753337,-0.005631976,0.0033595789999999997,0.012439828,0.016462548,5.673,0,0
-0.04889794000000001,-0.005768274,0.0016780529999999997,0.0051817140000000005,0.009842384000000001,5.674,0,0
-0.05526882,-0.005925105999999999,0.0009755473999999997,0.0003262082000000002,0.005470870000000001,5.675,0,0
-0.05667610000000001,-0.0055852459999999994,6.705339999999983e-05,-0.0030791158,0.0030333060000000004,5.676,0,0
-0.05275374000000001,-0.004916854,-0.0020204206000000004,-0.0036997438000000004,0.0033876,5.677,0,0
-0.04282536,-0.0036641648000000004,-0.0036494276000000004,-0.0018760238,0.005505736000000001,5.678,0,0
-0.029047198000000003,-0.0027804888,-0.0041195916,-0.0008673898,0.00655525,5.679,0,0
-0.010572798000000001,-0.0019240706,-0.005639504000000001,-0.0023043160000000003,0.005431966000000001,5.68,0,0
0.012621862,-2.5844600000000007e-05,-0.007185644000000001,-0.004578252,0.00294392,5.681,0,0
0.033472022000000004,0.0015004834,-0.00617425,-0.006949282,-0.0012564540000000002,5.682,0,0
0.047788902,0.0019132642,-0.004435716,-0.010928492000000001,-0.008307978,5.683,0,0
0.05598840000000001,0.0027183322,-0.0027841619999999997,-0.015419872,-0.018177708,5.684,0,0
0.05352982,0.003261536,0.00010425599999999984,-0.01607194,-0.026820950000000003,5.685,0,0
0.040452658,0.0025575848,0.00280725,-0.012252760000000001,-0.02982392,5.686,0,0
0.023346638000000003,0.0014799788000000001,0.0034730599999999996,-0.007621148000000002,-0.028049114000000003,5.687,0,0
0.004764398000000001,0.0011681768,0.0034887779999999997,-0.002172472000000001,-0.0226355516,5.688,0,0
-0.011849242,0.0018329048,0.00323654,0.004441788,-0.013559145600000003,5.689,0,0
-0.023694022000000002,0.0023339348000000005,0.0018969742000000001,0.0075813339999999995,-0.0046182616000000004,5.69,0,0
-0.02949194,0.002988752,0.0005558361999999998,0.006064037999999999,-0.0003158335999999997,5.691,0,0
-0.027880420000000003,0.002844382,-0.00012517580000000008,0.002206805999999999,-0.0018582396,5.692,0,0
-0.021160693999999997,0.00040962599999999974,-0.000568598,-0.00433713,-0.007054822,5.693,0,0
-0.011271094,-0.002655988,-0.00079335806,-0.011419930000000002,-0.013078468000000003,5.694,0,0
0.0010373459999999998,-0.004625130000000001,-0.00010765826,-0.014768656000000002,-0.018071952000000002,5.695,0,0
0.012276626,-0.005598560000000001,0.0006074817400000001,-0.014071904000000001,-0.019454632000000003,5.696,0,0
0.020338426,-0.004839142,0.00072288634,-0.009933468,-0.015611778000000003,5.697,0,0
0.0250258,-0.0016650120000000002,0.0010347251399999999,-0.0020950680000000003,-0.008639336000000001,5.698,0,0
0.02673408,0.001616112,0.0015931512,0.005899472000000001,-0.0009985960000000005,5.699,0,0
0.028501000000000002,0.003963294,0.0017064552,0.009993372,0.0073263040000000005,5.7,0,0
0.02834632,0.006464308,0.0018179391999999998,0.010614156000000001,0.014669776000000002,5.701,0,0
0.0231453,0.008724856,0.0027141566000000003,0.009210746,0.019490502,5.702,0,0
0.01653176,0.009177854000000001,0.0034612360000000003,0.00572708,0.02224954,5.703,0,0
0.0085444,0.007178386000000001,0.003348366,0.0015958900000000002,0.022861740000000005,5.704,0,0
-0.0027763400000000004,0.0034269680000000007,0.0026262036,-0.0013662639999999998,0.0207108,5.705,0,0
-0.012086940000000001,-0.001061232,0.0018135656000000005,-0.003672244,0.017121660000000004,5.706,0,0
-0.014295770000000001,-0.004627478,0.0007480116,-0.004892492,0.01436918,5.707,0,0
-0.011256546000000001,-0.005012684,-0.0004630504,-0.004367098200000001,0.011579492,5.708,0,0
-0.0048429660000000015,-0.003133268,-0.0013596664,-0.004015566200000001,0.006612984,5.709,0,0
0.005504393999999999,-0.0019125759999999998,-0.00213292,-0.0052697922,-0.0012016160000000017,5.71,0,0
0.016982554,-0.001621434,-0.003049974,-0.0067529922,-0.010162176000000002,5.711,0,0
0.022659323999999998,-0.0024215599999999997,-0.003696142,-0.0064047902000000006,-0.017287236,5.712,0,0
0.01924011,-0.004724666000000001,-0.0039464439999999995,-0.002598038,-0.018860068,5.713,0,0
0.009234970000000002,-0.006306202,-0.0038196140000000003,0.005395460000000001,-0.012721220000000002,5.714,0,0
-0.009354730000000002,-0.0049372899999999996,-0.0029586900000000004,0.0166465,-0.0018240999999999995,5.715,0,0
-0.030449610000000002,-0.002291964,-0.0015918260000000002,0.028409260000000002,0.010203840000000002,5.716,0,0
-0.03977179,0.00048525400000000007,-0.0003128800000000001,0.03668656,0.020446240000000004,5.717,0,0
-0.04024900000000001,0.002654656,0.000778946,0.03881078,0.025000200000000004,5.718,0,0
-0.0382681,0.0031498539999999997,0.002198404,0.03431466,0.02343628,5.719,0,0
-0.03037178,0.002615184,0.0029490440000000005,0.02475442,0.0194706,5.72,0,0
-0.02231326,-0.0011351240000000002,0.003343212,0.012778239999999998,0.0142028086,5.721,0,0
-0.021886460000000003,-0.0066002100000000005,0.0043103,0.0003393599999999995,0.0067952326,5.722,0,0
-0.02116212,-0.008853068,0.004861240000000001,-0.01105294,-0.0008009673999999998,5.723,0,0
-0.016737834,-0.0091387944,0.0040849580000000005,-0.01966718,-0.007022387400000001,5.724,0,0
-0.010990212000000001,-0.0089145084,0.0020466760000000007,-0.02479028,-0.0117406674,5.725,0,0
-0.001517392000000001,-0.004857490400000001,-0.0006708879999999999,-0.027848800000000003,-0.014211116000000003,5.726,0,0
0.007947688,0.0006955575999999998,-0.0034903140000000004,-0.02959468,-0.014254068000000002,5.727,0,0
0.014603468,0.0032230316000000005,-0.005672504,-0.02965904,-0.013434588,5.728,0,0
0.021224662,0.005478480000000001,-0.007213804,-0.02836576,-0.012750028,5.729,0,0
