bandpass 1,bandpass 2,bandpass 3,bandpass 4,bandpass 5,time,onset,mark
-0.00020388620000000006,-0.000887112,-0.0012669746000000001,-0.00026502360000000007,-0.00012185,6.898,0,0
-0.00044688620000000003,-0.0005177199999999999,-0.0017016566000000002,-0.00013996700000000004,-8.59748e-05,6.899,0,0
-0.0007333582,-1.563399999999994e-05,-0.0016205766,-4.6286000000000526e-06,-0.00019246280000000002,6.9,0,0
-0.0010232408000000002,1.1590000000000206e-06,-0.0007464846000000002,0.000199906,-0.00024547420000000004,6.901,0,0
0.00047821319999999997,-0.00025436099999999993,-0.00034015,0.0002025768,-0.0003415458,6.902,0,0
0.0025962354,-0.000691623,0.0002683202,0.00022075280000000003,-0.00047831680000000006,6.903,0,0
0.0043262454,-0.001567831,0.0012628482,2.9252000000000173e-06,-0.00040356180000000014,6.904,0,0
0.005276159400000001,-0.002520247,0.0015294622000000002,-0.00011728423999999999,1.581019999999996e-05,6.905,0,0
0.005359754600000001,-0.0027120200000000003,0.0004838761999999999,-0.00038490564,0.00031803900000000005,6.906,0,0
0.0043461129999999995,-0.0017542980000000003,3.461999999998782e-07,-0.0006885840400000001,0.0005880954,6.907,0,0
0.0026787550000000005,-0.0002730680000000001,-5.8661199999999986e-05,-0.0005068029800000001,0.0010616004,6.908,0,0
0.001398829,0.0007351559999999998,-0.0011790392,-0.00020374398,0.0008315620000000001,6.909,0,0
0.0004643630000000001,0.0009433619999999999,-0.0012595872,-3.1309400000000443e-06,0.00047383700000000006,6.91,0,0
-0.0005214496000000001,6.043999999999971e-05,-0.00035363119999999994,-3.530814000000002e-05,0.0006113582000000001,6.911,0,0
-0.0014086840000000003,-0.0014236520000000003,-0.0007273112,-5.6922140000000005e-05,0.000495977,6.912,0,0
-0.0019591640000000002,-0.00225776,-0.0008575634,-0.0002275562,0.00018357109999999997,6.913,0,0
-0.0022310590000000005,-0.002390538,-4.2129400000000044e-05,-0.000545451,0.00035204189999999997,6.914,0,0
-0.0019908720000000003,-0.0017799700000000003,-0.00013039720000000005,-0.0008949250000000001,0.00026989629999999993,6.915,0,0
-0.0014444660000000002,-0.00032438399999999994,-4.071500000000006e-05,-0.0009318576,-0.0003812797,6.916,0,0
-0.001359884,0.0016350120000000001,0.000829747,-0.0007054174,-0.0009244899,6.917,0,0
-0.0016790420000000002,0.0030506120000000003,0.0009361253999999999,-0.0006808872,-0.001535572,6.918,0,0
-0.0021574310000000005,0.0033566860000000002,0.00029005139999999997,-0.0006876485999999999,-0.0021471186,6.919,0,0
-0.0025210280000000002,0.0032643740000000004,-0.00010601079999999994,-0.0006077518,-0.002746136,6.92,0,0
-0.0025631860000000003,0.0029147174000000004,-1.1096999999999952e-05,-0.00023179560000000004,-0.00279442,6.921,0,0
-0.0023303060000000003,0.0019906734000000007,-0.00039599300000000003,5.922219999999998e-05,-0.00254556,6.922,0,0
-0.0020548000000000003,0.0008927309600000001,-0.0006494018,0.0001962192,-0.0021941400000000002,6.923,0,0
-0.0017438920000000001,0.00028679016,0.0003672781999999999,0.00035719080000000007,-0.001155592,6.924,0,0
-0.0014368284000000002,-3.297504e-05,0.0012123182,0.0005984178000000001,0.00016995200000000002,6.925,0,0
-0.0010610766,-0.00025416644000000004,0.0015647022,0.0007640116,0.0011051439999999997,6.926,0,0
-0.00048012160000000006,-0.00017679124000000003,0.0025950882000000002,0.0007797876000000001,0.001711934,6.927,0,0
-6.022399999999951e-06,-0.0002946986,0.003213316,0.0009344170000000001,0.0020081648,6.928,0,0
0.00030340900000000004,-0.0007761638000000001,0.0029137720000000002,0.0010452966,0.0009406888,6.929,0,0
0.0003051136,-0.0013443986000000001,0.0028285199999999997,0.0009256536000000001,-0.0005038332000000001,6.93,0,0
0.0011442858,-0.0006898865999999999,0.001629014,0.0007222426,-0.0014097672000000002,6.931,0,0
0.0027712648,0.0015743182,-0.0012656300000000004,0.00047610660000000005,-0.0020277552000000005,6.932,0,0
0.0029397775999999995,0.00350708,-0.0031798000000000004,-0.00017617120000000005,-0.0018716360000000003,6.933,0,0
0.0025631601999999997,0.0040522434,-0.003755196,-0.0007038662000000001,-0.0006377339999999999,6.934,0,0
0.0030238299999999995,0.0026918673999999994,-0.00450586,-0.0007071548,0.00043086199999999996,6.935,0,0
0.002309774,-0.0006892906000000006,-0.0040612294000000005,-0.0006066758000000002,0.0006185460000000001,6.936,0,0
0.00031582999999999996,-0.0047105586,-0.0016886673999999997,-0.0006079758000000001,0.001113234,6.937,0,0
-0.00037478600000000005,-0.007422668600000001,-0.00018172280000000002,-0.00040384579999999995,0.0012447640000000002,6.938,0,0
-0.00028482800000000005,-0.0074675734,0.00011706020000000004,-0.00015315919999999995,0.0007921482000000001,6.939,0,0
-0.000992292,-0.0045481154,0.0010519822,-0.00037345339999999996,0.0008435002000000001,6.94,0,0
-0.0014982340000000002,-0.0007137353999999998,0.0019307655999999999,-0.0007261204,0.0014414462000000004,6.941,0,0
-0.0012187852,0.0019308286,0.0019457136000000002,-0.0005204812,0.0015579062,6.942,0,0
-0.0011421472000000001,0.0037292326000000005,0.0021044265999999997,0.00022273680000000002,0.0014120346,6.943,0,0
-0.0011510252,0.004643572,0.0025165096,0.0007598722,0.0015603164,6.944,0,0
-0.000955738,0.0038901900000000004,0.001856236,0.0010447396,0.0012441370000000002,6.945,0,0
-0.00143664,0.002380418000000001,8.919599999999994e-05,0.0012597046000000001,0.0006099409999999999,6.946,0,0
-0.0020896388000000003,0.0014553020000000003,-0.001627028,0.0013836954,9.772919999999995e-05,6.947,0,0
-0.0020372548000000003,0.0005134276000000001,-0.0027644416,0.0010932300000000002,-0.0003502831999999999,6.948,0,0
-0.0016137528,-0.0007950644000000001,-0.0034800716,0.0007654548000000001,-0.0009970432,6.949,0,0
-0.0011968,-0.0012661244000000001,-0.003173148,0.0008806834000000001,-0.0009878728000000002,6.95,0,0
-0.00064348,-0.0008890724,-0.001723478,0.0008525338000000001,-0.00044941480000000003,6.951,0,0
0.00011157480000000004,-0.0009035444,-0.0002819492,0.0005604912,-0.00045535880000000016,6.952,0,0
0.0007565028000000001,-0.0010595162,0.0010766228,0.0005589762,-0.0007972168000000002,6.953,0,0
0.0007062928000000001,-0.0009610422,0.0021000608000000002,0.0005679734,-0.0008175488,6.954,0,0
0.0007456788000000001,-0.0008483226,0.0021311048000000003,0.0003048314,-0.0007621756000000002,6.955,0,0
0.0016022028000000001,-0.0008337246000000001,0.0019574008,0.0003483482,-0.0012127846000000002,6.956,0,0
0.0019022980000000002,-0.0009481874000000001,0.0022388140000000004,0.00026533700000000004,-0.0009810346000000002,6.957,0,0
0.0019369640000000002,-0.0007111478000000001,0.0021609340000000006,-0.00020295060000000001,0.00013773539999999991,6.958,0,0
0.0023339100000000002,-0.00020724580000000005,0.0012592170000000002,-0.0008246346000000001,0.0008144853999999999,6.959,0,0
0.0026054200000000002,0.0003985706000000001,0.0009336568,-0.0013438206000000001,0.0010529832,6.96,0,0
0.00247304,0.0008370802,0.0012666828000000002,-0.0017920358,0.0013600648,6.961,0,0
0.002295812,0.0010452518,0.0008533208,-0.002160916,0.0010400086,6.962,0,0
0.0020178780000000003,0.0019553604,0.0004433292,-0.0019668964000000002,0.0004189602000000001,6.963,0,0
0.001012128,0.0037463604,0.0006047326,-0.0012655099999999999,0.0005134582,6.964,0,0
0.00013007399999999993,0.0048045024,-2.5877200000000065e-05,-0.0005773684,0.00026693164000000003,6.965,0,0
-0.0005176364000000001,0.0039811528,-0.0013552932,-0.00021765040000000003,-0.0005448549600000001,6.966,0,0
-0.0016045104,0.002457406,-0.0017807072000000001,0.00041662360000000007,-0.00092734496,6.967,0,0
-0.0022820144,7.941200000000006e-05,-0.0019908716,0.000858152,-0.0015099365600000003,6.968,0,0
-0.0020259164,-0.003473178,-0.0024639460000000007,0.0005631248000000001,-0.00269675656,6.969,0,0
-0.0022528204,-0.005268147999999999,-0.00220979,0.0005700120000000001,-0.003171618,6.97,0,0
-0.0029123180000000005,-0.0037378259999999996,-0.001929754,0.0008215780000000001,-0.002200814,6.971,0,0
-0.002902844,-0.00078173,-0.002073198,0.00047196200000000014,-0.001044322,6.972,1,1
-0.0028768520000000005,0.001063774,-0.0020940900000000003,0.00019372820000000004,-0.0003098914,6.973,0,0
-0.003204358,0.001063244,-0.0014790204000000003,0.000618267,0.0007912446000000001,6.974,0,0
-0.003400038,9.651000000000017e-05,-0.0008215463999999998,0.0005921766,0.0017856686,6.975,0,0
-0.003117962,-0.001813998,-0.0003272722000000001,0.00015264739999999998,0.0016727110000000001,6.976,0,0
-0.0020147940000000003,-0.004506376,0.00035955639999999994,0.00046146080000000007,0.001433939,6.977,0,0
-0.000522626,-0.0055502799999999995,0.0005694904,0.0004956144,0.0018961204,6.978,0,0
0.0016486240000000002,-0.004323178,0.00026230180000000005,2.9945000000000026e-05,0.0014704996,6.979,0,0
0.004826646,-0.0028643768,0.00011720779999999999,6.968320000000004e-05,0.0004897676000000002,6.98,0,0
0.006490004000000001,-0.0020454028000000003,0.0006299076000000001,0.00022428760000000003,3.855120000000007e-05,6.981,0,0
0.006825212000000001,-0.0012691568,0.000773557,0.00019026680000000003,-0.0009525207999999999,6.982,0,0
0.0074583,-5.7198800000000005e-05,0.000549981,0.00027420739999999997,-0.0022823488,6.983,0,0
0.00626522,0.0007813392000000001,0.0005878103999999999,0.00042377079999999996,-0.0024229499999999997,6.984,0,0
0.0035287100000000004,0.00115751,0.00023215060000000002,0.00015766180000000002,-0.0015529219999999998,6.985,0,0
0.002183454,0.0022226380000000003,-8.185140000000005e-05,-0.00022666739999999998,-0.0011045307999999999,6.986,0,0
0.0008669920000000001,0.0032346580000000005,0.00012266259999999993,-0.0004663672,-0.0005612317999999999,6.987,0,0
-0.001651212,0.0029879940000000003,0.00043240460000000004,-0.0006399196000000001,0.00034549320000000006,6.988,0,0
-0.002888454,0.0024818638000000002,0.0005923206,-0.0006213105800000001,0.00045656160000000006,6.989,0,0
-0.003480226,0.0023926938000000003,0.0011142364,-0.00020266617999999999,0.0003099436,6.99,0,0
-0.004241262,0.0023565538000000002,0.0011368104,0.00035916522000000004,0.0010976364,6.991,0,0
-0.003725466,0.0019607998,0.0005115522,0.00039015181999999996,0.0019884274,6.992,0,0
-0.0028791348000000005,0.0017777895999999999,0.0012350922,0.00047109702,0.0021807684,6.993,0,0
-0.0028387628,0.0019146777999999999,0.0025141058000000003,0.00034062459999999997,0.0029202340000000003,6.994,0,0
-0.0028220648000000003,0.0008723078000000001,0.0027139638,-0.0003547674,0.0033524920000000003,6.995,0,0
-0.0026074628000000003,-0.0005829041999999999,0.0029152078000000002,-0.0008850148,0.002383138,6.996,0,0
-0.0024006748000000005,-0.0008614301999999999,0.0037856980000000005,-0.0012571062,0.00198875,6.997,0,0
-0.001676916,-0.0012610479999999999,0.0032426876000000004,-0.0016679114000000001,0.002352164,6.998,0,0
-0.0011638660000000004,-0.001957536,0.0010822036,-0.002044498,0.0019273040000000001,6.999,0,0
-0.0004922386,-0.0012404196000000002,-0.0007331683999999999,-0.0017521258,0.0013162751999999998,7.0,0,0
0.0020061354,-7.22075999999999e-05,-0.0018053724,-0.0013768418000000002,0.0013226371999999998,7.001,0,0
0.0042384554000000005,0.00013847860000000003,-0.0024708772,-0.0013117338,0.0007324772,7.002,0,0
0.0041242734,5.7074600000000045e-05,-0.002634250564,-0.0008005058,-0.00025861080000000005,7.003,0,0
0.0039519674,0.00015612860000000005,-0.001645768764,-0.0002793052,-0.0006393868,7.004,0,0
0.004769870000000001,0.0002109962,-0.000950674764,-8.686480000000002e-05,-0.001052152,7.005,0,0
0.0043304,0.00035649420000000013,-0.001739922764,0.0002945452,-0.0014481239999999999,7.006,0,0
0.0024436840000000007,0.00046439400000000013,-0.0030729239640000005,0.0008061256000000001,-0.0011128014,7.007,0,0
0.0015571780000000004,0.0005910574000000001,-0.0041369842,0.0007895792000000002,-0.0003639734,7.008,0,0
0.0018037730000000005,0.0008426628,-0.004582544,0.0007484886,1.49266e-05,7.009,0,0
0.0008614830000000001,0.0007687138,-0.0036481800000000004,0.0007642428000000001,0.00047908460000000005,7.01,0,0
-0.000935427,0.0003834578,-0.0015213160000000004,0.0005534944000000001,0.0011065206000000001,7.011,0,0
-0.0017436250000000002,0.00041216580000000004,0.00010660799999999995,0.0003620924000000001,0.00074295,7.012,0,0
-0.002497701,0.0006438614,0.0011459298,-4.405519999999997e-05,-5.0723999999999984e-05,7.013,0,0
-0.003346544,0.0005930158000000001,0.0006260078000000001,-0.0001914394,-0.000567164,7.014,0,0
-0.0030412611400000003,0.0004895342000000001,-0.0013893822000000003,-0.0003590862,-0.001659794,7.015,0,0
-0.00240668034,-7.347179999999998e-05,-0.0028005162,-0.000539801,-0.002799022,7.016,0,0
-0.00233409434,-0.0008962318,-0.0029785296000000004,8.464859999999993e-05,-0.0025707387999999998,7.017,0,0
-0.00217397434,-0.0013201468000000002,-0.0023600474000000002,0.0008337206,-0.0017189727999999997,7.018,0,0
-0.0017686303400000001,-0.0013394698,-0.0009268134000000002,0.0012981008,-0.0013571148,7.019,0,0
-0.0022328092,-0.0009467612,0.0016412126,0.0018406428000000002,-0.0006383348,7.02,0,0
-0.0033448740000000003,0.0002754128,0.0037481486,0.002338778,0.0004421292000000001,7.021,0,0
-0.0036093060000000005,0.0025345368,0.004768494,0.002214962,0.00031219540000000006,7.022,0,0
-0.002490056,0.0049522768000000005,0.005418946,0.0019311700000000003,-0.0003973926,7.023,0,0
-0.0007696079999999998,0.005438168,0.006036836,0.001705216,3.6199399999999916e-05,7.024,0,0
0.0015079660000000003,0.004402016000000001,0.0061370140000000005,0.0012918542000000001,0.00042614879999999995,7.025,0,0
0.004019576,0.0034943074000000005,0.005285044,0.0010585062000000001,-4.4869200000000075e-05,7.026,0,0
0.005296602000000001,0.00013910140000000033,0.004679764,0.0008062798,-9.811260000000001e-05,7.027,0,0
0.005359496,-0.005181218600000001,0.003171886,0.0006189508,6.288600000000006e-06,7.028,0,0
0.004482644000000001,-0.0076539906000000005,0.0002272280000000001,0.000625839,-0.0008534534,7.029,0,0
0.00266764714,-0.0079691766,-0.001731102,0.0010305648000000001,-0.0017654708000000002,7.03,0,0
0.00080295314,-0.007862148600000002,-0.002884064,0.0013970788000000002,-0.0020083768000000004,7.031,0,0
0.00010452794000000013,-0.0056128186000000005,-0.004047658,0.0012213866200000002,-0.0026661228,7.032,0,0
8.156794000000004e-05,-0.0015288986000000005,-0.0038496056,0.0011629962200000001,-0.0035305659999999997,7.033,0,0
-0.00019270785999999998,0.0021262514,-0.0021676416000000003,0.00069199802,-0.003384448,7.034,0,0
-0.000604991,0.0031031070000000003,-0.001157307,-0.00056073598,-0.0026033167999999995,7.035,0,0
-0.0010464390000000001,0.0016990515999999998,-0.0009121630000000001,-0.00179575798,-0.0020422866199999996,7.036,0,0
-0.0018087718,0.0009111617999999998,-0.000834345,-0.0026087774,-0.00082992262,7.037,0,0
-0.0028666798,0.0008693658,-0.0012378554,-0.0029753260000000004,0.00054600338,7.038,0,0
-0.003105182,0.0002478118000000002,-0.0017212194,-0.0028435559999999997,0.0008851123800000001,7.039,0,0
-0.003024128,0.0001956139880000001,-0.0017884722,-0.002427798,0.0013516851800000002,7.04,0,0
-0.0029033719999999996,0.0004348139880000002,-0.0010596841999999998,-0.0017207082000000001,0.002492259,7.041,0,0
-0.0021026967999999997,-0.00022671021199999978,-0.0005066842,-0.00088769,0.0033454690000000002,7.042,0,0
-0.001393277,-0.0011963762119999999,0.00013641640000000002,-0.0006131870000000001,0.0037779809999999997,7.043,0,0
-0.0013103466,-0.002164098212,0.0010930324,-0.00042035900000000003,0.004453352,7.044,0,0
-0.0007937568000000001,-0.0022574450000000003,0.0011017016000000003,-0.00025712360000000004,0.004459248,7.045,0,0
0.0004066071999999999,-0.0009011209999999998,0.00071411528,-0.00041845040000000003,0.002926356,7.046,0,0
0.001016024,0.000426059,0.00072726608,-0.0006641526000000001,0.00118886,7.047,0,0
0.0016934921999999999,0.000631661,0.0005844826799999999,-0.0008261276000000001,-0.0003861699999999999,7.048,0,0
0.0025844338,0.000504411,3.606228e-05,-0.0007006315999999999,-0.002296602,7.049,0,0
0.0030067900000000005,0.000329438,-9.890032000000001e-05,-0.00041245119999999994,-0.0035413740000000003,7.05,0,0
0.003079592,-0.00017973980000000002,4.7894800000000014e-05,-0.0003464402,-0.003760928,7.051,0,0
0.003026234,-0.0005706138,-0.00013509499999999998,-0.00035289020000000003,-0.0035597420000000003,7.052,0,0
0.0029068960000000004,-0.0005571828600000001,-0.0001177462,-6.429983999999999e-05,-0.0026952636,7.053,0,0
0.0024479920000000004,-0.00036188146,0.0002904802000000001,0.00028991216000000004,-0.0011951176,7.054,0,0
0.0020038408,-5.104599999999985e-07,0.00044380820000000014,0.00047863836000000006,-0.00013696359999999997,7.055,0,0
0.0014161402,0.0006631793400000001,0.0006989174000000001,0.00057142596,0.000554292,7.056,0,0
0.00038521620000000003,0.0012464193400000003,0.0010320906,0.00105637796,0.001342532,7.057,0,0
-0.0005831798,0.0016860444,0.0002800506,0.0011372408000000001,0.0016905876000000001,7.058,0,0
-0.0010803458,0.0019068525999999999,-0.0007407434,0.0005925565999999999,0.0014685114000000002,7.059,0,0
-0.0018484486,0.0020410496000000003,-0.0009540484,0.0003942307999999999,0.0015526394,7.06,0,0
-0.002765046,0.0019500496,-0.0014412638,0.00017948479999999997,0.0019603898,7.061,0,0
-0.002537394,0.0013107196,-0.0017954214,-0.0002788202,0.0015723010000000003,7.062,0,0
-0.0021936906,0.0008284630000000001,-0.0009291128,-0.0005152824000000001,0.0009259130000000001,7.063,0,0
-0.0024527446,0.0008462173999999999,0.00010973919999999999,-0.0005386238000000001,0.0007328052000000001,7.064,0,0
-0.0021844285999999997,0.0005748130000000001,0.0005084598,-0.0007594612000000001,0.00030113540000000004,7.065,0,0
-0.0015354186000000002,0.00027546280000000003,0.0006231848,-0.0006532166000000001,-0.0006020826000000001,7.066,0,0
-0.0012477486000000001,0.0010727648,0.0010830542,-0.00022795359999999997,-0.0009749438000000001,7.067,0,0
-0.001111094,0.0021605314,0.0010870336,-5.508000000000001e-05,-0.0009523426,7.068,0,0
-0.0010478420000000002,0.0025294474,0.00028877760000000003,0.00023085720000000002,-0.0013145906,7.069,0,0
-0.000474888,0.0024229752,-8.543019999999999e-05,0.0005984724,-0.0016156988,7.07,0,0
0.0009483919999999999,0.0016647493999999998,-8.149140000000002e-05,0.0006685818000000001,-0.0013044706,7.071,0,0
0.0015931500000000002,-2.1770600000000262e-05,-0.00024595940000000005,0.00042446179999999995,-0.0008109903999999999,7.072,0,0
0.0016069500000000002,-0.0018549626000000001,-7.8274000000001e-06,0.00019687919999999997,-0.0005066934,7.073,0,0
0.0015822040000000002,-0.0028093926,0.0007855886000000001,-0.0001649324000000001,0.0005253446000000001,7.074,0,0
0.0007922040000000005,-0.002146336,0.0011238424000000002,-0.0006696264,0.0017055266,7.075,0,0
-0.00031052999999999994,-0.000613482,0.0011427736000000001,-0.00103243,0.0021622003999999997,7.076,0,0
-0.001038713,-4.4366e-05,0.0014462756000000001,-0.0013888440000000002,0.0025554742,7.077,0,0
-0.0009136132,-0.0004128360000000002,0.0011497184,-0.0014296040000000001,0.002969516,7.078,0,0
-1.9841200000000002e-05,-0.00021440560000000018,-0.0001964616000000002,-0.0012746686000000003,0.0024740912000000004,7.079,0,0
0.00014082680000000004,-2.9593600000000055e-05,-0.0012279356000000003,-0.0009103176000000003,0.0017563856,7.08,0,0
-0.00036447920000000003,-0.0006765576000000001,-0.0015819172000000002,-0.0003942612000000001,0.0015345592,7.081,0,0
0.0006107738,-0.0007826596000000002,-0.0022855692000000004,7.426519999999991e-05,0.0005725852000000002,7.082,0,0
0.001173928,1.2562399999999844e-05,-0.0026032760000000003,0.0005781952,-0.0006260868,7.083,0,0
-3.587999999999996e-05,0.0006644619999999999,-0.0016446736000000001,0.0006734386,-0.001183342,7.084,0,0
-0.000650076,0.00017073400000000005,-0.0007846198,0.0006783706,-0.0019036204,7.085,0,0
-0.0011723979999999998,-0.00084657,-0.0003774918000000001,0.0010135102,-0.0031338480000000003,7.086,0,0
-0.0021724774,-0.001577984,0.0002440362,0.0017146798000000003,-0.0033822760000000005,7.087,0,0
-0.0017829254000000002,-0.0020123100000000002,0.0003936632,0.0021066238000000004,-0.0026258108000000004,7.088,0,0
0.00010433259999999972,-0.002168988,0.00010585879999999996,0.0022364512000000005,-0.0021188198000000004,7.089,0,0
0.0012681073999999998,-0.0015808220000000004,-0.00017010900000000002,0.0024354202000000007,-0.0013740412000000004,7.09,0,0
0.0016547813999999998,4.005199999999995e-05,-0.0003850224,0.0018991322000000003,0.00021786079999999995,7.091,0,0
0.0016971834,0.001542338,-0.0005443772,0.0010555878,0.0012461187999999999,7.092,0,0
0.0004991001999999999,0.0022147306,-0.00024047020000000002,0.0007192178000000001,0.0010852954000000001,7.093,0,0
-0.000782577,0.0016230285999999997,0.0006488138000000001,0.0009034456000000001,0.0011871986,7.094,0,0
-0.00015827980000000005,0.0008540847999999998,0.0015583198000000001,0.0007240468000000002,0.0011569222,7.095,0,0
0.0019724942,0.0003285868,0.0023162312,0.0005249548000000002,0.0004917586,7.096,0,0
0.0034169096000000003,-0.0006387592000000001,0.002808328,0.0001761572,6.845400000000007e-06,7.097,0,0
0.0039636488000000004,-0.0018073918000000003,0.0034723420000000002,-0.0010433968,0.00012542179999999997,7.098,0,0
0.003922238,-0.0028027718,0.003451404,-0.0019155808,0.00011673839999999998,7.099,0,0
0.003344186,-0.003220918,0.0026957398000000002,-0.0021718486000000003,-8.88038e-05,7.1,0,0
0.002333204,-0.0036730224000000003,0.002176316,-0.0021785186,-0.00015417219999999996,7.101,0,0
0.001209358,-0.0036038344000000008,0.0004212020000000001,-0.0019101034,-0.000703873,7.102,0,0
0.0014128160000000001,-0.0026311944000000005,-0.002106736,-0.0012229154,-0.0016135012000000001,7.103,0,0
0.0019023100000000002,-0.0017819224000000002,-0.003012434,-0.000651188,-0.002055606,7.104,0,0
0.001064088,-0.0018720404000000003,-0.0029288358,-0.0002588114,-0.0019517734000000003,7.105,0,0
-0.0002619119999999999,-0.0018376994000000003,-0.0032485422,0.00016461060000000008,-0.0017482754000000002,7.106,0,0
-0.00148502,-0.0009925354,-0.0022283818000000005,0.0005637954000000001,-0.0007356914000000003,7.107,0,0
-0.003107302,-7.253139999999984e-05,-0.0004855656,0.0009393028000000001,0.0009253226000000001,7.108,0,0
-0.004123264,0.0009941126,-0.0003968296,0.0008296582,0.0016789786,7.109,0,0
-0.0041886860000000005,0.0017474806,-0.000569037,0.0006252054,0.0020172640000000004,7.11,0,0
-0.004180144,0.002329418,-0.0004381398,0.00021369539999999994,0.002889262,7.111,0,0
-0.003491856,0.00286153,-0.0007588402000000001,-0.0004817466000000001,0.00304387,7.112,0,0
-0.0027728540000000004,0.003238584,-0.0010584256,-0.0007488612000000001,0.0023502388,7.113,0,0
-0.0023792880000000002,0.004041574,-0.0006578902,-0.0008460342000000001,0.0018728896000000004,7.114,0,0
-0.0014801780000000002,0.0048481719999999996,-0.00012687880000000008,-0.0013343634,0.0013231924000000003,7.115,0,0
-0.00018915000000000002,0.00458292,0.00026703019999999993,-0.0017759274000000002,0.0003855411999999999,7.116,0,0
0.0007083520000000001,0.0037643064,0.0017058882,-0.0019457494000000002,-0.0003979688,7.117,0,0
0.0015772480000000003,0.0030407944000000004,0.0033354934000000003,-0.0021305042,-0.0009122476000000001,7.118,0,0
0.0027347779999999998,0.0015548793999999998,0.004475314,-0.0020045196,-0.0011257976000000002,7.119,0,0
0.0024814166,-0.00034767060000000005,0.0052662460000000005,-0.0014132408,-0.0010297930000000002,7.12,0,0
0.0019402605999999998,-0.0011065546,0.004261802,-0.0005718774000000001,-0.0008274140000000001,7.121,0,0
0.0020864706,-0.0012461549999999999,0.0017690559999999998,9.11086e-05,-0.00024663200000000005,7.122,0,0
0.0013397501999999999,-0.0017543150000000002,-0.0007592200000000006,0.0003675366,0.000697772,7.123,0,0
4.52362e-05,-0.001557884,-0.0036982200000000003,0.0004438902,0.0015804532,7.124,0,0
-0.0004731484,-0.000559686,-0.006414456000000001,0.00035646360000000005,0.0019151698000000003,7.125,0,0
-0.0010057944,-0.00017311740000000006,-0.006268346000000001,0.00021759060000000005,0.0019210144,7.126,0,0
-0.0023937224,-1.548800000000035e-06,-0.004420856000000001,0.0003919126,0.0018746484,7.127,0,0
-0.0031480860000000005,0.0005452492,-0.0032807456000000005,0.0006575826,0.0015010762000000001,7.128,0,0
-0.0031680579999999996,0.0007210012,-0.0018361136,0.000563437,0.0006642656,7.129,0,0
-0.0031126979999999997,0.0010097932000000002,-9.040559999999996e-05,0.0005502777999999999,-9.148240000000002e-05,7.13,0,0
-0.0028250540000000005,0.0016955826000000002,0.00043472718,0.0008995094000000001,-0.0008536248000000001,7.131,0,0
-0.0008908160000000002,0.002100516,-0.00024028882000000004,0.0011311574,-0.0020266948,7.132,0,0
0.0016174720000000002,0.002589758,-0.00037337242,0.0013945794,-0.0030645886000000002,7.133,0,0
0.0023599420000000003,0.0030458660000000004,0.00020437358,0.002216621,-0.00332745,7.134,0,0
0.0028969668000000007,0.0017292319999999998,0.00016966418000000002,0.003036374,-0.003165218,7.135,0,0
0.0033379054000000005,-0.0008656740000000003,0.0002170004,0.0031619,-0.003193794,7.136,0,0
0.0021683958000000003,-0.002464076,0.0011349544,0.002850648,-0.00261353,7.137,0,0
0.0003399277999999999,-0.0034256580000000007,0.0013932808,0.0022611054000000004,-0.0014395000000000002,7.138,0,0
-3.205760000000004e-05,-0.004343150600000001,0.000885572,0.0009728834,-0.0005946180000000001,7.139,0,0
0.00031696160000000003,-0.0037972146000000003,0.0013577094,-5.686719999999998e-05,0.00017089399999999994,7.14,0,0
0.000523805,-0.0021322346,0.0021127164,-0.0004440116,0.0012832720000000002,7.141,0,0
0.0011501246,-0.0013312666000000002,0.0017543644000000001,-0.0008585636,0.0019499680000000003,7.142,0,0
0.0021226706,-0.001257899,0.001464222,-0.001047477,0.0018473040000000004,7.143,0,0
0.002727138,-0.0014170444,0.0014902486,-0.001066517,0.0017577340000000004,7.144,0,0
0.00264243,-0.0018860284,0.0005055066,-0.0014798664,0.0015870140000000003,7.145,0,0
0.00225997478,-0.001543759,-0.0003696308,-0.002069706,0.0008319499999999999,7.146,0,0
0.00106625678,-0.0005959429999999999,-0.00046457080000000003,-0.002168702,0.00029189060000000004,7.147,0,0
-0.0006552492200000001,-7.777059999999983e-05,-0.0006764156000000001,-0.0023500960000000003,0.00017355860000000005,7.148,0,0
-0.00233228722,0.0010348034,-0.0010945994,-0.00223088,-0.0006944214000000001,7.149,0,0
-0.0037763092200000003,0.0039140493999999994,-0.0009555913999999999,-0.00166913084,-0.0016033794000000002,7.15,0,0
-0.005811134000000001,0.00624552,-0.0004881780000000001,-0.0012335408399999999,-0.0015316894,7.151,0,0
-0.006170030000000001,0.005175954,-0.0007503259999999999,-0.00102461704,-0.0013996108000000002,7.152,0,0
-0.0033843059999999993,0.00245925,-0.000582099,-0.0005685800599999999,-0.0015112478000000001,7.153,0,0
-0.0018225580000000002,-0.00024090200000000052,0.000701917,0.00024775593999999993,-0.0007724918,7.154,0,0
-0.000372718,-0.0032102740000000004,0.001923601,0.00047357878,0.00040772819999999996,7.155,0,0
0.002605628,-0.0053228244000000004,0.001982249,0.00085480878,0.0009267062000000001,7.156,0,0
0.0024454200000000007,-0.004332320400000001,0.001817575,0.00169025698,0.001458869,7.157,0,0
-0.000757444,-0.0015059304,0.0019095984000000001,0.002142384,0.0021093920000000003,7.158,0,0
-0.0025865780000000004,0.00010921959999999985,0.0009163544,0.002214034,0.0022698320000000003,7.159,0,0
-0.0029467454000000003,0.0009616516000000001,-0.00024758140000000006,0.00242361,0.0022225020000000003,7.16,0,0
-0.0019176914000000002,0.0014729600000000002,-0.0008119466000000002,0.00226612,0.002033441,7.161,0,0
0.0006740426000000001,0.0010467308,-0.0012225846000000003,0.0018452720000000002,0.0012257470000000001,7.162,0,0
0.0028068546000000008,0.00046326520000000004,-0.0014242710000000002,0.0018576,-7.7859e-05,7.163,0,0
0.004736438600000001,0.0008979686000000001,-0.0011900028000000002,0.0019484040000000002,-0.000933711,7.164,0,0
0.0051348240000000005,0.0008295008,-0.0013716650000000002,0.001861586,-0.0015977318,7.165,0,0
0.0032217966000000005,-0.0004592892,-0.0017292118,0.0019408539999999999,-0.0023572608,7.166,0,0
0.0019312546,-0.0011908040000000002,-0.0013089838,0.002002748,-0.0022873028,7.167,0,0
0.0017758826,-0.0015188284,-0.0016184278000000002,0.001524934,-0.0014469776,7.168,0,0
0.0015965066,-0.0024790358,-0.0021552460000000004,0.0011656338,-0.0009774756,7.169,0,0
0.0011791444000000002,-0.003383606,-0.0016720896,0.0008602007999999999,-0.0007871048,7.17,0,0
0.0009536274000000002,-0.003140014,-0.0014935156000000002,4.547679999999997e-05,-0.0001395888,7.171,0,0
0.00023465140000000014,-0.0023449715999999997,-0.0019984596,-0.0009671612000000002,-9.470880000000002e-05,7.172,0,0
-0.0011122046,-0.0015770895999999998,-0.0017553576000000001,-0.0014980512,-0.00033661000000000005,7.173,0,0
-0.0021104446,9.876399999999945e-06,-0.0010214591999999998,-0.002150363,1.2626000000000011e-05,7.174,0,0
-0.0023690404000000003,0.0018669064000000001,-0.0007743616000000001,-0.002947032,0.00018103680000000004,7.175,0,0
-0.0024590280000000003,0.0028835644,-6.940159999999985e-05,-0.0027768759999999997,2.1720000000000002e-05,7.176,0,0
-0.002848098,0.003395622,0.0015672784,-0.0021288086,0.0001222926000000001,7.177,0,0
-0.002355948,0.0036691020000000005,0.0031329824000000004,-0.0019055486000000002,0.00024673740000000016,7.178,0,0
-0.0014411616,0.004003778,0.003941804,-0.0018168946,-0.0002996826,7.179,0,0
-0.0009903678000000003,0.00427249,0.00434283,-0.001214395,-0.0008045594000000001,7.18,0,0
-0.0005719606,0.004035662000000001,0.004196142,-0.0008605392284,-0.0009229486,7.181,0,0
-0.0003607486,0.0024724880000000005,0.0031708540000000003,-0.0010230710284000002,-0.0012130332000000001,7.182,0,0
-0.0008504846000000001,0.0003233760000000002,0.0014199739999999996,-0.0009358730284000001,-0.001735982,7.183,0,0
-0.0011894206,-0.0013890360000000002,-0.00037600000000000003,-0.0003823282284000001,-0.0018830400000000003,7.184,0,0
-0.0011206802000000003,-0.0035024420000000006,-0.00163633,0.00024876817159999996,-0.0016691618000000002,7.185,0,0
-0.0013537228000000002,-0.005011462,-0.002199772,0.0003415366,-0.0012833900000000001,7.186,0,0
-0.0011531748000000001,-0.0042724458,-0.002086478,0.00025366299999999995,-0.00017712,7.187,0,0
-0.0005558082,-0.0028082894,-0.0018455660000000003,0.00013657499999999995,0.001197684,7.188,0,0
-2.5092599999999984e-05,-0.0022284354000000005,-0.001502446,-0.0003029438,0.0019886260000000003,7.189,0,0
0.00034364320000000015,-0.0012170349999999998,-0.0009384538000000002,-0.0005345358,0.0026033158,7.19,0,0
0.0008512806000000001,-0.000348227,-0.0005454838000000001,-0.00040462000000000007,0.0030631820000000002,7.191,0,0
0.0020762146,-0.0008314472,-0.0008379718000000001,-0.00033329400000000004,0.00262976,7.192,0,0
0.0031293280000000002,-0.0014913916,-0.0007591032000000001,-0.00028047999999999994,0.001970412,7.193,0,0
0.0031895540000000003,-0.0016510996,0.00011156880000000004,-1.6607800000000048e-06,0.0017043534000000002,7.194,0,0
0.0035413620000000006,-0.0017442798000000001,0.00039426860000000007,-0.00023663188,0.0013255048000000002,7.195,0,0
0.004183068000000001,-0.0013090958000000002,0.00039911,-0.0005368582799999999,0.0006974774000000001,7.196,0,0
0.003551986,0.00024051019999999995,0.001045122,1.0931720000000044e-05,0.00011318139999999999,7.197,0,0
0.0028299796,0.0020254762,0.0017443234,0.00046431072000000006,-0.00040683060000000005,7.198,0,0
0.0029353196,0.0022234626,0.0014908766,0.00047999530000000004,-0.000846322,7.199,0,0
0.0023631276000000002,0.0010568684,0.0013313746,0.0008937704,-0.0011479534,7.2,0,0
0.0011777188,0.0002513303999999997,0.0016786772,0.0014842128000000002,-0.0012536466,7.201,0,0
0.0007898710000000001,-0.00019777360000000014,0.0004257592,0.0013504608000000002,-0.0012272566000000001,7.202,0,0
0.0006463588000000001,-4.781559999999987e-05,-0.0014694807999999998,0.0010527754000000003,-0.0012601126,7.203,0,0
-0.0004695292,0.0007895360000000001,-0.0015404384,0.0006869616000000002,-0.0012020406000000001,7.204,0,0
-0.0018862172,0.0029561120000000003,-0.0011922503999999999,7.698679999999992e-05,-0.0007699346000000001,7.205,0,0
-0.0028042023999999997,0.005072186,-0.0011396324000000004,-0.00044402920000000004,-0.0004233692,7.206,0,0
-0.0038082166,0.0044337836,0.0009587916,-0.0006381489400000001,-0.0002085726,7.207,0,0
-0.0049121419999999996,0.0028270776,0.0038889256000000003,-0.00052814654,0.0006820434,7.208,0,0
-0.0042210148,0.0025449996000000003,0.004516508,-0.00035079814,0.0013752734000000001,7.209,0,0
-0.0018946788000000002,0.0023955236000000003,0.004567146,-0.00034822654000000005,0.00114461442,7.21,0,0
-0.0006077367999999998,0.0020332176000000006,0.004659632,-0.0007463545400000001,0.00118849562,7.211,0,0
1.1153199999999817e-05,0.003332048,0.0025558300000000003,-0.0014009628,0.00135599822,7.212,0,0
0.0008294971999999999,0.004152034000000001,-0.0001933219999999999,-0.0019044088,0.00065484062,7.213,0,0
0.0008197564,0.002117328,-0.0013773919999999999,-0.0017973174,0.00016622862,7.214,0,0
0.0005048103999999999,-0.0017157560000000001,-0.0024146339999999997,-0.0017781085999999998,0.00011565039999999999,7.215,0,0
0.0009842003999999999,-0.005707848000000001,-0.0034945280000000002,-0.0016836945999999999,6.249020000000003e-05,7.216,0,0
0.0017610603999999998,-0.008165406,-0.00318264,-0.0013059526000000002,0.00024313900000000007,7.217,0,0
0.0027508043999999996,-0.008649332000000001,-0.002934268,-0.0010502546,0.00018346920000000006,7.218,0,0
0.003407108,-0.006634678000000001,-0.003300566,-0.0005548244000000001,0.00013456880000000006,7.219,0,0
0.0026037,-0.00313876,-0.002886394,0.000228878,0.00029932800000000007,7.22,0,0
0.00139441,-0.000529368,-0.0022792786,0.000875156,0.00016657340000000005,7.221,0,0
0.0005237899999999999,0.000490372,-0.0020191386,0.0011105794,-0.0003876566,7.222,0,0
-0.00082638,0.00030328199999999993,-0.0008870003999999999,0.0012268055999999999,-0.0005159832,7.223,0,0
-0.002619742,-0.00020258760000000005,0.0005887356000000002,0.0009446033999999999,-0.00037391019999999994,7.224,0,0
-0.0037571240000000006,-4.9023599999999915e-05,0.0012505496000000003,0.0005073898000000001,-0.0002952282,7.225,0,0
-0.004161482,0.0011216064,0.0021482822000000006,0.00040516580000000003,7.401860000000001e-05,7.226,0,0
-0.004837304000000001,0.0020445784,0.0037083122,0.0007632084000000001,0.0002892748,7.227,0,0
-0.00518325,0.0024947784,0.0045154060000000005,0.0012073322,0.0005991368000000001,7.228,0,0
-0.004787366,0.0022652082000000004,0.0046450960000000005,0.0012047358,0.0006008324000000001,7.229,0,0
-0.00513841,0.0005903262000000002,0.004389114,0.0009992754000000001,0.00018104640000000006,7.23,0,0
-0.004605938,-0.0006153057999999999,0.0025831700000000005,0.0005370034,4.536440000000008e-05,7.231,0,0
-0.0026605360000000002,-0.0007575478,-0.00029780599999999985,-0.00012490060000000007,-0.00013474579999999997,7.232,0,0
-0.000969368,-0.0008665042,-0.00276871,-0.0006972846,-0.00039563580000000003,7.233,0,0
0.0015646460000000003,-0.0001095743999999999,-0.004052814,-0.001034104,-0.00012261599999999998,7.234,0,0
0.004534076,0.0014453376,-0.004403877400000001,-0.0009805540000000002,0.0002001404,7.235,0,0
0.005777590000000001,0.0024597895999999998,-0.0036944448,-0.000419084,-0.0003353776000000001,7.236,0,0
0.0059428960000000005,0.0028826276000000002,-0.0019997074,0.000324446,-0.0004994796,7.237,0,0
0.005990538,0.0027865058,-0.0007439374,0.0009414800000000001,-0.0002709136,7.238,0,0
0.0050312560000000004,0.0019060018,-0.0006174793999999999,0.0011762934,-0.0006058388000000001,7.239,0,0
0.004129224000000001,0.0009909037999999998,-0.0006074558,0.0012532168000000002,-0.00069661146,7.24,0,0
0.0038890700000000005,0.00020806840000000003,-0.00039560859999999986,0.0010549238,-2.532745999999996e-05,7.241,0,0
0.0034936880000000004,-0.0007777914,-0.0005744461999999999,0.0005084126000000001,0.0007176185400000001,7.242,0,0
0.002269554,-0.0009137210000000002,-0.0006056761999999999,0.00036199380000000007,0.0006943345400000001,7.243,0,0
5.0647999999999926e-05,-0.000593319,-0.0005479062,0.0004127358,0.0005623771400000001,7.244,0,0
-0.0024725880000000004,-0.0008699690000000001,-0.0009661364000000002,0.00013062479999999998,0.0003267014000000001,7.245,0,0
-0.004866144,-0.0010548616,-0.0014929562,-0.0003922662,-0.0006713546000000001,7.246,0,0
-0.007102402,-0.00022827779999999988,-0.001586752,-0.00031320240000000003,-0.0016166026000000002,7.247,0,0
-0.007797344,0.0005458700000000002,-0.0014514132,-0.00031042920000000005,-0.0017165144,7.248,0,0
-0.005545912,0.00019990000000000014,-0.0012244042000000002,-0.0007226046000000002,-0.0018122418,7.249,0,0
-0.0032112319999999996,-0.0002998,-0.0005144902,-0.0007457046,-0.0020345998,7.25,0,0
-0.0021857479999999995,-0.0009894860000000004,0.00039899780000000006,-0.0006234566000000001,-0.0014663388,7.251,0,0
0.0005493239999999998,-0.0016288650000000002,0.0009221038,-0.0008485712000000001,-0.0007894175999999999,7.252,0,0
0.0036112180000000002,-0.0020723850000000004,0.001861421,-0.0010851206000000002,-0.0006289237999999999,7.253,0,0
0.003555078,-0.0020022430000000003,0.003205922,-0.0006428280000000001,-0.0004322018,7.254,0,0
0.0031173336,-0.0007349140000000001,0.003587486,-0.00013667440000000007,0.00018594460000000002,7.255,0,0
0.0033119715999999997,0.0001206096,0.00368351,0.0004925316,0.0005489476,7.256,0,0
0.0014324335999999997,-8.897800000000001e-05,0.0037368559999999998,0.0012179516,0.0007193444000000002,7.257,0,0
-0.0011981183999999999,-0.00021770779999999998,0.00244016,0.0015312946,0.0010202644,7.258,0,0
-0.002243711,-7.81518e-05,0.0008157099999999998,0.001387296,0.0013582624000000002,7.259,0,0
-0.0025564646,-0.00030764780000000003,0.000403594,0.00108904316,0.0018532800000000001,7.26,0,0
-0.0015485146,-0.00046068940000000005,-0.00014719920000000005,0.00090113956,0.0022521100000000003,7.261,0,0
0.0016378294000000003,-0.00043322860000000006,-0.0014412592,0.00053018236,0.0021906354,7.262,0,0
0.0039905854,-8.531279999999999e-05,-0.0018753592000000001,0.00051874636,0.0016514854,7.263,0,0
0.00470158,0.0013341832,-0.0017881811999999999,0.0009786303600000002,0.0012956801999999999,7.264,0,0
0.005206752,0.0032006162,-0.0023887392,0.0009995824,0.00036000420000000015,7.265,0,0
0.004619774600000001,0.0040505262000000005,-0.0026071808,0.0005755360000000001,-0.0011475038,7.266,0,0
0.0022174399999999998,0.0024135280000000003,-0.0014684608,0.0005176728000000001,-0.0016248612,7.267,0,0
-1.8070000000000022e-05,-0.000511128,-0.0005100626000000001,0.00018445760000000003,-0.0012324298,7.268,0,0
-0.0008834180000000002,-0.0028410859999999996,-0.0008267306000000001,-0.0006670964,-0.0011265950000000002,7.269,0,0
-0.0009333220000000001,-0.004774156,-0.0011517386,-0.0008225284,-0.0009251982,7.27,0,0
-0.0009269586000000002,-0.0052406268,-0.0010841080000000003,-0.0006941576,0.00014963179999999995,7.271,0,0
-0.0012356640000000003,-0.0031521808000000004,-0.0012619772000000003,-0.0009388212000000001,0.0009467118000000001,7.272,0,0
-0.001022892,-0.0003942168000000003,-0.0013169594000000003,-0.000900369,0.0010895124,7.273,0,0
-0.001144884,0.0014136031999999999,-0.0002986474,-0.0003294253999999999,0.0014308068,7.274,0,0
-0.002080222,0.0025589032,0.0008811506000000001,-6.097340000000003e-05,0.0015670158000000002,7.275,0,0
-0.0024884940000000004,0.003152068,0.0009041456000000001,-0.0001870982,0.0008426638000000003,7.276,0,0
-0.002834426,0.002764262246,0.0010015204,-5.6062599999999994e-05,0.00022067699999999996,7.277,0,0
-0.0034273479999999998,0.001238832246,0.0014846644000000003,7.758379999999995e-05,-3.6442199999999913e-05,7.278,0,0
-0.0030655924,-0.0003502377540000001,0.0012132784,-0.00014332220000000002,-0.0008087982,7.279,0,0
-0.0022708756000000005,-0.001217123554,0.0005635086,-0.00019694340000000002,-0.001185544,7.28,0,0
-0.0020595316,-0.0017731675540000004,0.0005568574,-0.00010002360000000002,-0.0007015610000000001,7.281,0,0
-0.0013978056000000002,-0.0011349178000000003,0.00023010680000000002,-0.00041804120000000003,-0.0006222350000000001,7.282,0,0
-0.0002590674,0.0010850242,-0.0006373032,-0.0005591290000000001,-0.0008252286,7.283,0,0
0.00022667500000000002,0.0027186482,-0.0007454758240000001,-0.0005950290000000001,-0.0004335,7.284,0,0
0.0007519982000000001,0.0030326600000000004,-0.0008230372240000001,-0.0008456948000000001,-6.17764e-05,7.285,0,0
0.0018492902,0.0031521160000000004,-0.001097024824,-0.0008388452,-0.00038438739999999995,7.286,0,0
0.0026617942000000004,0.003022628,-0.00047097382400000014,-0.0006191206000000001,-0.0006822606,7.287,0,0
0.00288764,0.001532796,0.0005591841760000001,-0.000383736,-0.00050579578,7.288,0,0
0.0028306,-0.000631584,0.0009182088000000001,-0.00013792199999999996,-0.00073620718,7.289,0,0
0.002740798,-0.001436838,0.0014444520000000001,-2.5291200000000013e-05,-0.00094652818,7.29,0,0
0.002609292,-0.001440756,0.002599952,8.737960000000002e-05,-3.5474180000000005e-05,7.291,0,0
0.002614818,-0.001965688,0.0036700840000000005,0.0003723540000000001,0.00075532382,7.292,0,0
0.0023111366000000003,-0.001789522,0.004291128,0.0003776458000000001,0.0006330966000000001,7.293,0,0
0.0011887346,-0.0005392352000000001,0.0038797695999999997,0.00043470020000000006,0.0008458345999999999,7.294,0,0
0.0003834685999999999,0.00021966480000000006,0.0023792556000000005,0.000476967184,0.0007774160000000001,7.295,0,0
-0.00016128260000000005,0.0003104888000000001,-0.00023685839999999987,0.000275374984,-0.000579904,7.296,0,0
-0.0010754466,0.0003273486100000001,-0.0043722244,0.00032489978400000003,-0.0014837220000000003,7.297,0,0
-0.0012886922000000002,-0.00016448339000000006,-0.0088655204,0.00012529378400000002,-0.0012667680000000004,7.298,0,0
-0.00046787660000000003,-0.0012987301900000002,-0.011726456,-0.000244737016,-0.0011773184,7.299,0,0
-7.455359999999996e-05,-0.0021352941900000004,-0.012071922,4.271500000000008e-05,-0.0009125118000000001,7.3,0,0
-0.0005614804,-0.0028028661900000008,-0.00951076,0.0006866810000000002,0.00010977619999999995,7.301,0,0
-0.0009604764000000001,-0.003159042000000001,-0.004890618,0.0007709472,0.0007157468,7.302,0,0
-0.0013205834000000003,-0.0018751600000000003,0.0012222020000000008,0.0007415404000000002,0.000590232,7.303,0,0
-0.002263623,0.0001033099999999999,0.0075807420000000006,0.0011023832,0.0008039452,7.304,0,0
-0.003250976,0.0005477782,0.011003532000000002,0.0010310232000000001,0.0012193006000000002,7.305,0,0
-0.0032831400000000004,0.00014793019999999996,0.01091811,0.0007529634000000001,0.0012840266,7.306,0,0
-0.0029816000000000005,0.0005289063999999999,0.009353454,0.0006673432,0.0013221042000000002,7.307,0,0
-0.0028276240000000004,0.0004993304,0.006862954000000001,0.00045859799999999995,0.0013072490000000001,7.308,0,0
-0.0020889694,-4.971599999999978e-06,0.0033110004,5.7208799999999946e-05,0.0009559726,7.309,0,0
-0.0013101306,0.0007615782,0.0011971682,-0.00030266760000000005,0.000554461,7.31,0,0
-0.0009296524400000001,0.0018572182,0.0008893462,-0.0005977502000000002,0.00034842220000000005,7.311,0,0
0.0007992615600000002,0.001860803,0.00041629899999999997,-0.0009616780000000001,-0.00012831999999999996,7.312,0,0
0.00352018556,0.000749979,-0.0001182148,-0.0007160060000000002,-0.0008674608,7.313,0,0
0.00506404896,-0.0006860570000000001,0.0002564988,-0.0001249968,-0.0014675564000000002,7.314,0,0
0.00551280816,-0.0018168010000000003,0.000730659,2.436965999999999e-05,-0.0023314247999999997,7.315,0,0
0.005170854,-0.0022528871000000003,0.000592897,0.00030191966,-0.003099624,7.316,0,0
0.0032582260000000004,-0.0016370281000000005,0.0010875262,0.0007083482600000001,-0.0027405492,7.317,0,0
0.0004288119999999997,-8.50301000000003e-05,0.0015000159999999998,0.0005771846600000001,-0.0017243692,7.318,0,0
-0.001725688,0.0021615719,0.0010468022,-5.0029340000000015e-05,-0.0008426232,7.319,0,0
-0.0038630700000000006,0.0030813079,0.0005856782000000001,-0.0005301374,0.0003752248,7.32,0,0
-0.0048013560000000005,0.0026108040000000004,0.00018990199999999999,-0.0006929169999999999,0.0015475848000000001,7.321,0,0
-0.004050254,0.0019508999999999998,-0.0008414920000000001,-0.0009118949999999999,0.0019674000000000002,7.322,0,0
-0.004338436,0.0010783479999999998,-0.0025239299999999998,-0.0010972474,0.0020635260000000004,7.323,0,0
-0.004698226,0.0005179300000000001,-0.0039630762,-0.0012143134,0.002281782,7.324,0,0
-0.0032941800000000003,0.00037947,-0.004727808200000001,-0.0010855074,0.0023404640000000004,7.325,0,0
-0.001444436,0.0005213000000000001,-0.00503991,-0.0009013147999999999,0.0018385770000000003,7.326,0,0
-3.617000000000008e-05,0.0005790648000000001,-0.004594937400000001,-0.00045541540000000017,0.0012549252000000001,7.327,0,0
0.001826996,0.0004337566000000001,-0.0032464772000000007,3.1667999999999996e-05,0.0007321624000000001,7.328,0,0
0.0032009219999999997,-0.00046572940000000004,-0.0017518546,0.00035252000000000005,-5.391159999999995e-05,7.329,0,0
0.0035389214,-0.0012700354,-0.00030412060000000005,0.0009822860000000002,-0.0006359376,7.33,0,0
0.003005228,-0.0013242594,0.0006262473999999999,0.0008823824,-0.0008616276,7.331,0,0
0.0015708482000000002,-0.0018351822000000002,0.0006204425999999999,0.00037676120000000005,-0.0013233998000000001,7.332,0,0
0.0010110102,-0.002380604,0.0006796243999999999,0.00024069180000000005,-0.001562259,7.333,0,0
0.0012403582,-0.002138686,0.0008732502000000001,0.000119364,-0.0013777779999999999,7.334,0,0
0.0017108528000000002,-0.001685198,2.1518199999999953e-05,-0.000245723,-0.0013087224,7.335,0,0
0.0023902382000000003,-0.001534536,-0.0007742458000000001,-0.000285858,-0.0010493816,7.336,0,0
0.0025702960000000006,-0.0008369080000000001,-0.00043333580000000013,0.0001789572,-6.294759999999993e-05,7.337,0,0
0.00222552,0.000383442,-0.0005550850000000001,0.0004501492,0.0007494324000000001,7.338,0,0
0.0019215820000000002,0.001718452,-0.0010502254000000003,0.000743906,0.0006422094000000001,7.339,0,0
0.0014163576000000002,0.003674844,-0.000787429,0.001087637,0.0005692618000000001,7.34,0,0
0.0005562099999999999,0.005737596,-0.000464101,0.0010687426000000001,0.0009364500000000001,7.341,0,0
-0.0002711380000000001,0.0056605878,-0.0006211864,0.00021728660000000012,0.00121291,7.342,0,0
-0.001591622,0.0029899617999999996,-0.00024811920000000006,-0.0008164214,0.00129309,7.343,0,0
-0.002605038,0.00035214380000000013,0.0009959568,-0.0012624824,0.001665819,7.344,0,0
-0.0029110216,-0.0015935282,0.0017424124000000002,-0.0016358816,0.001316503,7.345,0,0
-0.0032632620000000003,-0.0033206924000000002,0.0020262244,-0.0016484531999999999,-0.0004144270000000002,7.346,0,0
-0.003356744,-0.0035850976,0.002283466,-0.001073533,-0.002201415,7.347,0,0
-0.002663476,-0.0018941356,0.0017425399999999999,-0.000720713,-0.0029225330000000006,7.348,0,0
-0.001124956,-0.0009789976,0.00059478,-0.0007153090000000001,-0.00304579654,7.349,0,0
0.0002599780000000001,-0.0024736396000000003,0.00013203599999999987,-0.0009523178,-0.0027191787400000006,7.35,0,0
0.0007979912,-0.0040943474,-0.00016610820000000008,-0.0013888578000000001,-0.00137958114,7.351,0,0
0.0013776339000000002,-0.0043816260000000004,-0.0013398962000000002,-0.001606159,-0.00023140374000000003,7.352,0,0
0.0020109199,-0.0040329778,-0.0018582242000000004,-0.001324496,-8.855174e-05,7.353,0,0
0.0011238391000000002,-0.0030328638000000005,-0.0016519906000000003,-0.0009593472,-0.0002393028,7.354,0,0
-3.308890000000003e-05,-0.0002719278,-0.0022328626,-0.00044320280000000007,-0.00010204644000000001,7.355,0,0
0.0005555079000000001,0.0029302882000000006,-0.0026462924000000003,0.00018064360000000004,7.387395999999997e-05,7.356,0,0
0.0010678472,0.004998736200000001,-0.0014747884000000002,0.00026349200000000004,0.0009544805600000001,7.357,0,0
0.0009832072000000001,0.005190711000000001,-7.899040000000006e-05,0.00031562,0.00219006456,7.358,0,0
0.001882248,0.0027210310000000014,0.0005361699999999999,0.00039508880000000004,0.00257974216,7.359,0,0
0.0026188620000000004,1.0625000000000218e-05,0.001530038,0.0004039468,0.0026124884,7.36,0,0
0.001902305,-0.0018141461999999998,0.0026312540000000004,0.0003575758,0.0023070680000000002,7.361,0,0
0.0013439516,-0.0038247561999999995,0.0026013580000000002,0.00018563840000000004,0.0012102068000000002,7.362,0,0
0.0013823989999999999,-0.0039833685999999995,0.0017955040000000003,8.875600000000003e-05,-0.00014089320000000008,7.363,0,0
0.0005452700000000002,-0.0013376066,0.0012333350000000001,0.00013446640000000005,-0.0007078592,7.364,0,0
-0.00018804599999999998,0.0007726894,0.000358001,0.000430562,-0.0010141036,7.365,0,0
6.896600000000002e-05,0.0014537346000000001,-0.000769535,0.0007340466000000001,-0.0013972832,7.366,0,0
0.00021230360000000005,0.0028575405999999998,-0.0009035565999999999,0.0013158946,-0.0016795900000000001,7.367,0,0
-0.00028971780000000005,0.0041751,-0.0002493086,0.001740348,-0.001465156,7.368,0,0
-0.0010626928000000001,0.004484158,0.00031763840000000005,0.001285906,-0.0009895633999999999,7.369,0,0
-0.0023017548000000003,0.004497294000000001,0.0010248344000000002,0.0009693488000000001,-0.0008418868,7.37,0,0
-0.0039377718,0.00395330608,0.0016106194000000001,0.0010004368,-0.0003276132,7.371,0,0
-0.005251384000000001,0.0023738560800000003,0.0014529188000000001,0.0007111834000000001,0.00018717320000000002,7.372,0,0
-0.005968862000000001,0.0008588540799999999,0.0012785628,0.0006386674000000001,0.0006296872,7.373,0,0
-0.005648440000000001,0.00017931608,0.0011024028000000002,0.0010406388,0.0012105186,7.374,0,0
-0.004765394000000001,-0.00098530192,0.0007953180000000002,0.00089542324,0.001952016,7.375,0,0
-0.002309972,-0.001402664,0.0002941870000000001,0.00059467524,0.0024785584,7.376,0,0
0.0013934879999999996,-0.0007940272,6.361200000000152e-06,0.00101092264,0.002536384,7.377,0,0
0.003975182,-0.0015176892,-0.00047308079999999996,0.00119590464,0.0019985854,7.378,0,0
0.006292163999999999,-0.0029150852000000005,-0.0024036408,0.00123986004,0.0005839573999999999,7.379,0,0
0.008343476,-0.0032821152,-0.003945532,0.0015249108,-0.0006244105999999999,7.38,0,0
0.007717232000000001,-0.0034465252000000003,-0.003577404,0.0014597224000000002,-0.0012704144,7.381,0,0
0.005444768,-0.0036956136,-0.003479782,0.0009092254000000002,-0.0018159504000000001,7.382,0,0
0.004051639399999999,-0.0024151336,-0.0033691308000000004,0.00037353760000000005,-0.0019250298,7.383,0,0
0.0022845226000000004,-0.0005295096000000003,-0.0012416328000000002,3.936300000000005e-05,-0.0008664217999999999,7.384,0,0
0.0008974154000000001,0.0012315044000000002,0.00012112859999999993,-0.000317233,0.00013896020000000005,7.385,0,0
0.0006630278000000001,0.0019569212,-9.385940000000007e-05,-0.00043644,0.00023922300000000008,7.386,0,0
0.00011787180000000003,0.0009680227999999996,0.0003523106,-0.0001911002,0.000892223,7.387,0,0
-0.0004485116,-0.00025580320000000004,0.0007917514,0.00013266400000000003,0.0016329690000000002,7.388,0,0
-0.0008967768,-0.0012859832,0.0006724514,7.083980000000003e-05,0.0012977626,7.389,0,0
-0.0014172856,-0.0020395234000000003,0.001577536,-0.00011250019999999996,0.0010402396,7.39,0,0
-0.00196468,-0.0015408382000000002,0.003039458,-0.0004670128,0.0015532566,7.391,0,0
-0.001813482,0.0004754418000000002,0.0037576980000000003,-0.0014154196,0.0017740726000000002,7.392,0,0
-0.001550218,0.0025569418000000003,0.004118752000000001,-0.002292562,0.0013957132,7.393,0,0
-0.001987736,0.0040508818,0.00418624,-0.002734186,0.0015674896000000002,7.394,0,0
-0.00206584,0.004776048,0.002733848,-0.003160802,0.0019329126000000004,7.395,0,0
-0.002198132,0.004875924,0.000594508,-0.00331217,0.0012262308,7.396,0,0
-0.0034141680000000004,0.0034453519999999996,-0.00018839839999999991,-0.0027879,0.00038678880000000005,7.397,0,0
-0.004455032,-4.0909999999999905e-05,-0.0005512283999999999,-0.002424876,-7.792379999999998e-05,7.398,0,0
-0.004500638,-0.0032170720000000005,-0.0007508643999999999,-0.0022540800000000003,-0.0008638097999999999,7.399,0,0
-0.005460194000000001,-0.005213784000000001,1.7591800000000044e-05,-0.0015475218,-0.0016046198000000001,7.4,0,0
-0.006696022000000001,-0.006492416,0.00094537724,-0.0007642577999999999,-0.0015945636,7.401,0,0
-0.005524548,-0.0060195351999999995,0.0005015396399999999,-0.00022043579999999995,-0.0014024102,7.402,0,0
-0.0024934600000000003,-0.0034837982000000007,-0.00022630836000000001,0.0005492722,-0.0015464462,7.403,0,0
0.0010698439999999997,-0.00023110419999999962,-0.00085843436,0.0015068822000000003,-0.0008384158000000002,7.404,0,0
0.003888870000000001,0.0018781398000000003,-0.0008714945599999999,0.001880092,-5.557779999999996e-05,7.405,0,0
0.006703910000000001,0.0023952338000000004,-0.00116602,0.0016170677999999999,-0.0013974202,7.406,0,0
0.008213726000000001,0.0016759510000000004,-0.0037769880000000002,0.0013657194,-0.0045653016,7.407,0,0
0.00756597,-0.0008131859999999998,-0.006173774,0.0015527474,-0.0086627956,7.408,0,0
0.00774649,-0.003662084,-0.0077059220000000005,0.0019985174,-0.013546777999999999,7.409,0,0
0.00805994,-0.004874334,-0.00924683,0.0025464314,-0.017623912,7.41,0,0
0.0072034704,-0.004974798000000001,-0.009324272000000002,0.0032080996,-0.0182065,7.411,0,0
0.0055565704,-0.0040292044,-0.005910993999999999,0.00366949,-0.014556782,7.412,0,0
0.0024808423999999997,-0.0011328984,-0.0010706939999999996,0.003667228,-0.007732122000000001,7.413,0,0
-0.0029088976000000003,0.0019743736,0.0036603940000000004,0.0027599817999999997,0.0006851780000000003,7.414,0,0
-0.0077303316,0.0043084996000000006,0.008728210000000002,0.0014178138000000002,0.009335438000000001,7.415,0,0
-0.011309547999999999,0.0066014436,0.013062698000000001,0.00037505380000000003,0.017325838,7.416,0,0
-0.01328704,0.008653942000000001,0.015128340000000002,-0.0008102902,0.023174,7.417,0,0
-0.011824236,0.009682640000000001,0.01400984,-0.0021303862,0.0259928,7.418,0,0
-0.009196322400000002,0.008933256,0.011459612000000001,-0.003002884,0.02586958,7.419,0,0
-0.0057291944,0.007244766,0.006893752000000001,-0.003691304,0.022574996,7.42,0,0
-0.0010886324,0.004927814600000001,0.0002030319999999997,-0.004039114,0.016307474,7.421,0,0
0.0029251956000000004,0.0018064186000000004,-0.005261128,-0.0035793699999999997,0.0075732540000000015,7.422,0,0
0.0053149056,-0.0012485314,-0.008422308,-0.0029287382,-0.0015436260000000006,7.423,0,0
0.00703223,-0.0039382074,-0.01083312,-0.0021427774,-0.009857606000000001,7.424,0,0
0.008181934,-0.006010367400000001,-0.011808092000000001,-0.0009782062,-0.017110262,7.425,0,0
0.008371156000000001,-0.006756518000000001,-0.010100202,0.00014604579999999995,-0.02128108,7.426,0,0
0.007766646,-0.006191780000000001,-0.007448206000000001,0.0011422938000000002,-0.022114340000000003,7.427,0,0
0.006148390000000001,-0.00500684,-0.004278164,0.0020257720000000003,-0.02045804,7.428,0,0
0.004530648200000001,-0.0029886604000000003,-0.0007166200000000003,0.0027456912000000003,-0.01634569,7.429,0,0
0.0039609442,-2.8912399999999998e-05,0.0026117219999999995,0.0035577860000000003,-0.009778888000000001,7.43,0,0
0.0032330182,0.0030773496000000003,0.005763292,0.003977448,-0.0025065280000000005,7.431,0,0
0.0011064901999999998,0.0050642036,0.008576456,0.003393142,0.004783832000000001,7.432,0,0
-0.0015651078,0.0052238264,0.010210014,0.002249582,0.011885592,7.433,0,0
-0.003968804,0.0047411968,0.00922534,0.0007060500000000001,0.017088602,7.434,0,0
-0.006638378,0.0033454923999999995,0.006734768,-0.001029828,0.019465360000000004,7.435,0,0
-0.008826082,0.0008081603999999999,0.004039414,-0.002438266,0.01896964,7.436,0,0
-0.008634866,-0.0009467988,0.00044082200000000044,-0.0035501200000000004,0.016003078000000004,7.437,0,0
-0.0064068364,-0.0012568596000000001,-0.0034395520000000002,-0.004166874,0.010689072000000003,7.438,0,0
-0.0034716124,-0.0017344036,-0.005157156,-0.0038824920000000004,0.00421759,7.439,0,0
-0.0003309344000000003,-0.0033022072,-0.005248002,-0.003269042,-0.00226351,7.44,0,0
0.0026683396,-0.0047893572,-0.00577577,-0.002558991,-0.008273510000000001,7.441,0,0
0.0042623316000000005,-0.005553748000000001,-0.00563593,-0.0010509190000000004,-0.013257368000000002,7.442,0,0
0.00392538,-0.006439560000000001,-0.005008034,0.000666691,-0.016063662,7.443,0,0
0.002544794,-0.0068866940000000005,-0.005563464,0.002203213,-0.01639782,7.444,0,0
0.0005328619999999998,-0.0050443222000000005,-0.005957446,0.0035891810000000003,-0.015278024000000001,7.445,0,0
-0.0023668340000000004,-0.0023085302000000005,-0.0043106099999999994,0.004269528000000001,-0.011881328,7.446,0,0
-0.004346842,-0.0002998482000000002,-0.0017768099999999995,0.004081423999999999,-0.006169966000000001,7.447,0,0
-0.0035912920000000003,0.0021469358,0.0011332880000000003,0.0034943739999999997,-0.0007234860000000002,7.448,0,0
-0.002851226,0.0044775658000000005,0.005547132,0.0026090370000000002,0.004096474,7.449,0,0
-0.003205592,0.004955574000000001,0.009289381999999999,0.0013628485999999998,0.009411718000000001,7.45,0,0
-0.002505348,0.004799828,0.010477138,0.00041276280000000006,0.012991262,7.451,0,0
-0.0013465676,0.004774436000000001,0.010142464,-0.0005318192000000001,0.01368048,7.452,0,0
-0.0012810876000000002,0.004261218000000001,0.0080333654,-0.0013381032,0.013289510000000003,7.453,0,0
-0.0005603796000000003,0.003247895,0.0043326554000000005,-0.0017956022,0.01117155,7.454,0,0
0.0017835144,0.001403533,0.0005404914000000003,-0.0022530378000000005,0.006357491999999999,7.455,0,0
0.0038170624000000005,-0.001071083,-0.0033524386000000003,-0.0025895980000000002,0.0011000519999999998,7.456,0,0
0.004692804000000001,-0.003717051,-0.0075010926,-0.00264702,-0.003534508000000001,7.457,0,0
0.005198386,-0.005736103,-0.010687854,-0.0024583720000000003,-0.008189238000000001,7.458,0,0
0.005045334,-0.006498686,-0.011877484,-0.0020893924,-0.011708378000000002,7.459,0,0
0.003167658,-0.005699146,-0.011235021999999999,-0.0016043616,-0.01308836,7.46,0,0
0.0011589759999999995,-0.0039193144,-0.009304432000000001,-0.0012141644,-0.012846016000000002,7.461,0,0
-0.0002610640000000001,-0.0023869586000000004,-0.005606615999999999,-0.0005483594,-0.01139912,7.462,0,0
-0.001703108,-0.0014473846000000001,-0.0003441759999999994,-1.5451000000000012e-05,-0.008179742,7.463,0,0
-0.0031228880000000003,-0.0006252738,0.004291444,-3.65122e-05,-0.0035629900000000007,7.464,0,0
-0.0038581740000000002,0.0008038922000000001,0.007358986,0.00017513539999999998,0.0012541500000000003,7.465,0,0
-0.0032917288,0.0025215206,0.009501334,0.0006356102000000001,0.005830566000000001,7.466,0,0
-0.002615586,0.0038589128,0.010262676,0.0005540652,0.00988203,7.467,0,0
-0.002323592,0.0047163548,0.009303476,0.0002183228,0.012524212,7.468,0,0
-0.0014871616,0.0052203300000000005,0.0076248520000000005,8.995860000000002e-05,0.01311928,7.469,0,0
-5.826960000000002e-05,0.0056834139999999995,0.005328539,-1.6046000000000354e-06,0.01211685,7.47,0,0
0.0003958052,0.00576611,0.002415173,-0.00016567620000000003,0.0091786136,7.471,0,0
0.0006795544000000001,0.004898761999999999,-0.00016589699999999992,-0.00018867880000000004,0.0044896476000000005,7.472,0,0
0.0018537824000000001,0.003395191999999999,-0.0023098850000000002,0.0003216312,-0.0003921924000000001,7.473,0,0
0.003611416,0.001209376,-0.004178529,0.0009291810000000001,-0.0049027724,7.474,0,0
0.005363208,-0.000964616,-0.005454260000000001,0.0008739723600000001,-0.008748182400000002,7.475,0,0
0.00546785,-0.002173484,-0.005902788,0.00071878088,-0.010709406000000001,7.476,0,0
0.005454842,-0.001352232,-0.0063328,0.00093618028,-0.010728616,7.477,0,0
0.0063622620000000005,0.0003612400000000001,-0.006276486,0.00073911968,-0.010016768,7.478,0,0
0.005776128,0.0001856360000000003,-0.004448184,0.0005693056800000001,-0.007938304,7.479,0,0
0.0033528760000000003,-0.0016085899999999996,-0.0012408,0.00090500312,-0.0038878720000000005,7.48,0,0
0.0013757060000000004,-0.004111244,0.002088334,0.0009311694000000002,0.00033378800000000044,7.481,0,0
-0.0010793499999999998,-0.006126405999999999,0.004878426,0.0005873372000000001,0.003927044,7.482,0,0
-0.005161038,-0.006397292,0.0070478120000000005,0.00040243980000000004,0.0076282960000000006,7.483,0,0
-0.008202354,-0.004211316,0.006711400000000001,-0.0001285962,0.010543472,7.484,0,0
-0.008885190000000001,-0.0014408180000000002,0.0036702980000000007,-0.0011110082000000002,0.011287140000000001,7.485,0,0
-0.006742186000000001,0.001039088,-0.00024988000000000007,-0.0016596374,0.010393990000000002,7.486,0,0
-0.0028906739999999998,0.002928114,-0.004365588,-0.0018104500000000003,0.008816362000000001,7.487,0,0
0.00044726599999999977,0.002850882,-0.00795142,-0.002017712,0.005923394,7.488,0,0
0.0033593480000000003,0.0022142708000000002,-0.008084875,-0.0017720270000000005,0.00161947,7.489,0,0
0.0053693840000000005,0.0013524928000000001,-0.005434029,-0.0009462868000000001,-0.0026143500000000005,7.49,0,0
0.005393408000000001,8.841479999999993e-05,-0.003816639,-0.00026363379999999994,-0.00642384,7.491,0,0
0.00448759,-0.0016097612,-0.002296619,0.0007204242000000002,-0.009938972,7.492,0,0
0.003866294,-0.0024758092,-0.00029813899999999995,0.0017131702000000003,-0.011902024,7.493,0,0
0.0029458902000000006,-0.0021777026,0.0004488180000000001,0.0018750876000000003,-0.011656924,7.494,0,0
0.0019325543999999999,-0.0015657094,0.00045815800000000007,0.0018047470000000002,-0.010190274,7.495,0,0
0.0006220664,-0.0005643213999999999,0.00208601,0.001997422,-0.0075110894,7.496,0,0
-0.0012560715999999999,0.0004955065999999999,0.004831214,0.0019095580000000004,-0.0034133013999999994,7.497,0,0
-0.0026087536000000003,0.0015700746,0.006462938000000001,0.0013351596000000002,0.0007218066000000002,7.498,0,0
-0.0037401238000000004,0.0021394852,0.006550414000000001,0.0011647378000000002,0.004326930600000001,7.499,0,0
-0.004610980000000001,0.002815338,0.006404682000000001,0.0011512918,0.0075974006,7.5,0,0
-0.004627292000000001,0.0032795500000000004,0.006180594000000001,0.0005754498000000002,0.009579496,7.501,0,0
-0.004127668,0.0031766500000000005,0.005164444000000001,-0.0001597144,0.009876194000000001,7.502,0,0
-0.0033400018,0.0028894040000000004,0.0034275880000000005,-0.0005503260000000001,0.009116326000000001,7.503,0,0
-0.0018978177999999998,0.0021974102000000004,-0.00027491199999999955,-0.0010622686,0.007147176000000001,7.504,0,0
-8.521800000000105e-06,0.0012326182000000003,-0.005976844,-0.0017190961999999999,0.004227078,7.505,0,0
0.0016621342,-4.4223799999999975e-05,-0.011371218,-0.0015908746,0.0013452580000000002,7.506,0,0
0.0027679702,-0.0011248738,-0.016128392000000002,-0.0012231884000000002,-0.0014834520000000001,7.507,0,0
0.003412374,-0.0017089598000000002,-0.019666120000000002,-0.0009701863999999998,-0.004443252,7.508,0,0
0.0035261439999999997,-0.0020489920000000003,-0.017535574,-0.0002558898,-0.006752302,7.509,0,0
0.0027665748,-0.00242009,-0.009645614,0.0005963242,-0.008270782,7.51,0,0
0.0017722213000000001,-0.00261168,-9.84740000000003e-05,0.0010000846,-0.009195876,7.511,0,0
0.0006614912999999998,-0.002590764,0.008825466,0.0011274226,-0.009022134,7.512,0,0
-0.0011425867,-0.0021681020000000003,0.015513346000000003,0.0013907906,-0.007432856,7.513,0,0
-0.0027500367,-0.0009281459999999998,0.017711154,0.0013528216,-0.00492901,7.514,0,0
-0.0035941695,0.0007176500000000003,0.015592316000000002,0.0007670396,-0.0021124720000000007,7.515,0,0
-0.00466777,0.002514868,0.011820284,6.0187600000000054e-05,0.0011156619999999997,7.516,0,0
-0.0049833740000000005,0.004024036,0.008442356000000002,-0.0006161304,0.004333416,7.517,0,0
-0.004500868000000001,0.004000300000000001,0.006689594,-0.0013365824000000001,0.0065962320000000005,7.518,0,0
-0.0043496260000000005,0.002914582,0.005391128,-0.0017054280000000002,0.007740436,7.519,0,0
-0.0038903960000000004,0.0019959483999999997,0.00373064,-0.0015445902,0.008015774,7.52,0,0
-0.0023334860000000005,0.0009104542,0.0014230040000000003,-0.0015335422,0.0067027368,7.521,0,0
-5.8416000000000154e-05,-0.00045776980000000007,-0.0008898520000000003,-0.0013401044000000003,0.0040435968,7.522,0,0
0.001940424,-0.0013892478,-0.0019978988000000004,-0.0006931426000000001,0.0012889707999999998,7.523,0,0
0.0039421379999999995,-0.0016158798,-0.0021239334000000003,-0.00042579353999999995,-0.0012879312,7.524,0,0
0.005304918,-0.0020813842,-0.0018632326000000002,-0.00018111014000000004,-0.0034676231999999996,7.525,0,0
0.005521958,-0.002199846,-0.0011509405999999998,0.00047170986,-0.004518572,7.526,0,0
0.0051013,-0.0018426716,-0.0003111092,0.00092475406,-0.004333464,7.527,0,0
0.0048675920000000004,-0.0022638436,-0.0016186044000000002,0.0008343004600000001,-0.0035722356,7.528,0,0
0.004274194,-0.0030532896,-0.0036561018000000004,0.0010751714,-0.0025083538000000003,7.529,0,0
0.0027465019999999996,-0.0035354996000000003,-0.004405922600000001,0.0013754802,-0.0007512737999999998,7.53,0,0
0.00159991,-0.0031410876000000005,-0.0057559806,0.0006951842,0.0015447842,7.531,0,0
0.0008168805999999997,-0.0009803300000000002,-0.0077687680000000005,3.807419999999999e-05,0.0032078341999999998,7.532,0,0
-0.00022571320000000012,0.003066088,-0.008420204,-0.00012201939999999997,0.0046093778,7.533,0,0
-0.0012265272000000003,0.006740214,-0.007945786,-0.0009078354000000001,0.006020832,7.534,0,0
-0.0014211852000000002,0.008568787999999999,-0.007596848000000001,-0.0019713234,0.00620292,7.535,0,0
-0.0017895052000000001,0.007869919999999999,-0.006379344,-0.0018772874,0.0054288800000000005,7.536,0,0
-0.0023176378000000003,0.0031662019999999995,-0.002882132,-0.0019452594,0.004661674,7.537,0,0
-0.0020615432000000004,-0.0033534580000000006,0.0016222880000000004,-0.002456546,0.00307772,7.538,0,0
-0.0015621653999999998,-0.008092778,0.004593118,-0.0020190416,0.0007035599999999998,7.539,0,0
-0.0009622178000000001,-0.010291898,0.0062620620000000005,-0.0013876616,-0.00128139,7.54,0,0
-0.0003738878,-0.010280788000000003,0.007159418,-0.0010698437999999998,-0.003259876,7.541,0,0
-0.0006646178,-0.007741810200000001,0.006032302,-0.00037432979999999996,-0.005054704,7.542,0,0
-0.0021426546,-0.0040856906000000005,0.00457527,0.0005431922,-0.005739370000000001,7.543,0,0
-0.0033685604000000006,-0.001839765,0.004022772000000001,0.0010598318,-0.005475646,7.544,0,0
-0.0033974230000000005,-0.0006749430000000001,0.0031232420000000005,0.0019643578,-0.004684302,7.545,0,0
-0.0019491370000000005,0.0005126410000000001,0.0026058324000000003,0.0032672920000000006,-0.00290585,7.546,0,0
0.0001236869999999997,0.0025565712000000006,0.0020839964000000004,0.004152062,-0.0006720000000000003,7.547,0,0
0.002859303,0.0040442756,0.0003326004000000003,0.004549152000000001,0.0010293099999999999,7.548,0,0
0.005736629000000001,0.004166807,-0.0014858456000000002,0.004731736,0.002498952,7.549,0,0
0.005701054200000001,0.004853121,-0.0022691396,0.004520026000000001,0.00374851,7.55,0,0
0.0031594142,0.005686379000000001,-0.002724302,0.0035754200000000006,0.00415537,7.551,0,0
0.00013977220000000031,0.006056431,-0.0023402350000000004,0.0026051060000000007,0.0038076480000000003,7.552,0,0
-0.0036364798,0.006324855,-0.00046329300000000004,0.0019335484,0.0035933780000000004,7.553,0,0
-0.007288099800000001,0.00716865,0.0011106430000000001,0.0008973123999999999,0.0027735080000000005,7.554,0,0
-0.008750874,0.0067438,0.0019236250000000002,-0.00042022960000000003,0.000779868,7.555,0,0
-0.007874312,0.0028823639999999992,0.0029984890000000004,-0.0015292296000000002,-0.0011568759999999998,7.556,0,0
-0.005019059999999999,-0.0020726760000000003,0.0032735200000000002,-0.0026165236,-0.00293428,7.557,0,0
-0.0019271099999999992,-0.006187544000000001,0.0019886764,-0.0036210920000000002,-0.005305038,7.558,0,0
0.0006019200000000003,-0.009364536000000001,-0.00032132959999999996,-0.004309224,-0.0073593980000000005,7.559,0,0
0.003361896,-0.009866390000000001,-0.0036020436000000003,-0.004718924,-0.008328302000000001,7.56,0,0
0.0047657,-0.00723618,-0.0061036956,-0.005023622,-0.009009072,7.561,0,0
0.004544976,-0.003929457999999999,-0.0067852516,-0.004833326000000001,-0.00884323,7.562,0,0
0.004485118,-0.0003289699999999996,-0.006120769999999999,-0.003991057000000001,-0.0070291518,7.563,0,0
0.004092103799999999,0.002381088,-0.003365594,-0.0029815836,-0.0044645798,7.564,0,0
0.0023987658,0.0025271576,0.001070038,-0.0016095456,-0.0017814297999999996,7.565,0,0
0.0003648057999999998,0.0020081,0.0051243320000000005,0.00022901440000000007,0.0015430842000000002,7.566,0,0
-0.0014509082,0.0015288448000000002,0.007790730000000001,0.0015046724,0.0051051021999999995,7.567,0,0
-0.0025085802,0.00040455680000000004,0.0087408,0.0021117074,0.007741022,7.568,0,0
-0.0020511340000000005,-0.0007632112,0.008782666000000001,0.00305914,0.00929079,7.569,0,0
-0.00010462799999999962,-0.0010624968,0.007487670000000001,0.003379998,0.009616358,7.57,0,0
0.002427456,-0.0006902312000000001,0.0023651100000000006,0.003180082,0.008466409999999999,7.571,0,0
0.004136004,-0.0004276339999999999,-0.00552629,0.0036682700000000004,0.0066236540000000005,7.572,0,0
0.004622789,2.833400000000003e-05,-0.014197752000000001,0.004161584,0.005152346,7.573,0,0
0.004217259,0.00109405,-0.023099184000000002,0.0042860960000000005,0.004316346,7.574,0,0
0.0032790450000000004,0.001916174,-0.029418800000000002,0.0045163040000000005,0.0039864440000000004,7.575,0,0
0.0018980870000000001,0.001866634,-0.02892744,0.004750222,0.003807808,7.576,0,0
0.0006408189999999999,0.00167095,-0.0204998,0.004220244,0.0032078242000000002,7.577,0,0
0.00016097599999999996,0.001927592,-0.00712988,0.0032571308000000003,0.0020268256,7.578,0,0
-0.0007774740000000001,0.00213298,0.007696899999999999,0.002344558,0.000656711,7.579,0,0
-0.002839144,0.0018321934000000001,0.0210866,0.0011333720000000001,-0.0007591610000000001,7.58,0,0
-0.004785992000000001,0.001671201,0.02845864,-0.000946832,-0.0020369330000000003,7.581,0,0
-0.005581728,0.0015127988,0.0277639,-0.003177124,-0.0031450252,7.582,0,0
-0.005425027800000001,0.0006079988,0.023033444000000004,-0.0046250708000000005,-0.004274660600000001,7.583,0,0
-0.003992841800000001,-0.00014036640000000003,0.016525750000000002,-0.006147688,-0.005444484,7.584,0,0
-0.0010534437999999997,-2.365780000000001e-05,0.009546662,-0.007416132000000001,-0.006461498,7.585,0,0
0.0021167602,0.00026342060000000004,0.005625356000000001,-0.0074571640000000005,-0.0071100980000000005,7.586,0,0
0.0047205662,0.0006872648,0.004008326,-0.006909534,-0.007226512000000001,7.587,0,0
0.0059950920000000005,0.0020516008,0.0020727159999999996,-0.006204068,-0.007000526000000001,7.588,0,0
0.006046186,0.003615262,-1.1486000000000222e-05,-0.0049085922,-0.006532668000000001,7.589,0,0
0.004991478000000001,0.0035420498,-0.0018461500000000002,-0.0035609642,-0.005204192000000001,7.59,0,0
0.0032245579999999998,0.0019523738,-0.005293644,-0.0028346841999999997,-0.004094968,7.591,0,0
0.0012877020000000004,0.00014244379999999975,-0.009716834,-0.0024363982000000003,-0.004381516,7.592,0,0
-0.000611924,-0.0022088442000000007,-0.011681588000000001,-0.0023479142,-0.004932156,7.593,0,0
-0.0018174000000000003,-0.0047700922,-0.010011502,-0.002180846,-0.004898873999999999,7.594,0,0
-0.0023136484000000003,-0.005591454,-0.006655568,-0.0014470500000000003,-0.004959193999999999,7.595,0,0
-0.0022393864000000005,-0.0045794522,-0.002760362,-0.00066219,-0.0042066714,7.596,0,0
-0.0023796884,-0.0021724022,0.0018840799999999998,0.00022366839999999992,-0.0013513634000000003,7.597,0,0
-0.0018511424000000002,0.0007604178,0.0043152526000000005,0.0014398744000000002,0.0017538706000000002,7.598,0,0
-0.0004586144,0.0031738898,0.0033891926000000003,0.0021482024000000002,0.0043473946,7.599,0,0
-7.987199999999985e-05,0.004163039800000001,0.0009195406000000001,0.0023521784,0.007314566600000001,7.6,0,0
-0.001071114,0.003008772,-0.0010141033999999998,0.0029684164000000003,0.009395718,7.601,0,0
-0.002109522,0.0011241280000000003,-0.0017500762,0.003415794,0.009748494,7.602,0,0
-0.0032571740000000007,-0.0004824246,-0.0013743808,0.003275782,0.009640902,7.603,0,0
-0.005452536,-0.0013428426,-0.0007772149999999999,0.0034225340000000005,0.009328634000000002,7.604,0,0
-0.007359756,-0.0021813365999999996,-0.001432285,0.0034069040000000005,0.007924438,7.605,0,0
-0.0072061420000000004,-0.0035534786,-0.002018031,0.0027989220000000006,0.006297994,7.606,0,0
-0.004612744,-0.0046375806,-0.0028007722,0.0021438714000000005,0.005066048,7.607,0,0
-0.0007138599999999998,-0.005070952,-0.0038971141999999998,0.0010740094,0.003264234,7.608,0,0
0.0033397,-0.0053416502,-0.0037115298,-0.0004687586000000001,0.0006126099999999998,7.609,0,0
0.006811776,-0.0044144582,-0.0022830952,-0.0016058646,-0.00227047,7.61,0,0
0.008900236,-0.0010353042,-0.0010649906000000002,-0.0023488886,-0.004615138,7.611,0,0
0.008313662,0.0021712158,-0.0011137885999999999,-0.0027439680000000003,-0.006571694,7.612,0,0
0.005532236,0.0037506878000000002,-0.0024721946,-0.0020562768000000004,-0.007133764,7.613,0,0
0.003189010000000001,0.004275906,-0.0049773748,-0.0009559148000000003,-0.006189948,7.614,0,0
0.002158478,0.004173956,-0.0076668094,-0.00031131760000000007,-0.005097962,7.615,0,0
0.000779806,0.0032276220000000003,-0.008905251999999999,0.0002386154,-0.0038142260000000004,7.616,0,0
-0.0003747879999999999,0.0013089620000000003,-0.006634052,0.0005491164000000001,-0.002666396,7.617,0,0
-0.0008456599999999999,-0.001116448,-0.0008896120000000006,0.00048572000000000003,-0.0019621720000000003,7.618,0,0
-0.002304808,-0.003614672,0.005629148,0.0005689040000000001,-0.001069666,7.619,0,0
-0.002657252,-0.004449285999999999,0.010769148,0.0011407128000000002,0.00026847800000000005,7.62,0,0
-0.0012055719999999994,-0.003426456,0.013348332000000001,0.0018656278000000002,0.0011554200000000003,7.621,0,0
0.0003186780000000002,-0.00187828,0.013466304,0.0025426148,0.0015887624000000002,7.622,0,0
0.0015760840000000002,0.00016702400000000032,0.0117122,0.003290518,0.0016454608000000003,7.623,0,0
0.0024680002,0.0022717540000000004,0.008633992,0.0036395060000000003,0.0009616252000000001,7.624,0,0
0.0024035482,0.0025500120000000004,0.005707384,0.003197772,0.00028340140000000005,7.625,0,0
0.0009235582000000001,0.001050142,0.003649704,0.00267463,0.0001766534,7.626,0,0
-0.0011244138000000002,-0.000724786,0.0015967420000000004,0.002548068,0.00047930900000000003,7.627,0,0
-0.0027376278,-0.0023283220000000003,-0.00115624,0.0022354560000000002,0.0016152746,7.628,0,0
-0.003930596,-0.002910694,-0.0032365320000000003,0.002491602,0.0034803422,7.629,0,0
-0.004556068,-0.0022833740000000003,-0.00468699,0.004128488,0.005301736,7.63,0,0
-0.003468576,-0.00101455,-0.0072966920000000005,0.00556321,0.0067558800000000006,7.631,0,0
-0.002127535,0.000353042,-0.010229912,0.0061016379999999995,0.007633908,7.632,0,0
-0.0014111129999999999,0.0015423400000000001,-0.011592926,0.006291192,0.007241756,7.633,0,0
-0.000529075,0.002666346,-0.011137825999999998,0.0050257696000000004,0.004831468,7.634,0,0
-0.0006713690000000001,0.00330002,-0.008918705999999998,0.0020512715999999997,0.0013783480000000004,7.635,0,0
-0.0013730618000000001,0.00356921,-0.004787448,-0.0009298843999999999,-0.0017155899999999997,7.636,0,0
-0.0014951736,0.003636078,0.00016915600000000017,-0.0036005524,-0.0035930140000000003,7.637,0,0
-0.0011678704,0.0031172142,0.004261606,-0.006282182400000001,-0.0043280502,7.638,0,0
-0.0008530026,0.0024335882,0.006772762000000001,-0.007886816000000001,-0.0034029121999999998,7.639,0,0
-0.0006861466000000001,0.0020160362,0.008731548,-0.007895582,-0.0005009781999999999,7.64,0,0
-0.0003785696000000001,0.0016808202,0.009113936,-0.0055064760000000015,0.0027886378000000003,7.641,0,0
-0.0001390114,0.0018357802000000005,0.0072548660000000004,6.967999999999992e-05,0.0054598978,7.642,0,0
-0.0012726946000000002,0.001587878,0.005590532800000001,0.00643152,0.008008096000000001,7.643,0,0
-0.003925374400000001,-0.00011849199999999999,0.004363386800000001,0.011715204,0.010352238000000001,7.644,0,0
-0.006701912400000001,-0.002128174,0.0029632768,0.015637678,0.011471460000000003,7.645,0,0
-0.0099143266,-0.004582704,0.0031623188,0.016584500000000002,0.012182000000000002,7.646,0,0
-0.010531878000000001,-0.007475728000000001,0.0045026728,0.014051012,0.013635320000000001,7.647,0,0
-0.007263074000000001,-0.007952512000000002,0.003957294,0.010625088000000001,0.014881,7.648,0,0
-0.005097538,-0.0063717556,0.002788924,0.007547512,0.015349340000000001,7.649,0,0
-0.0037053560000000004,-0.004401255600000001,0.001660827,0.00410284,0.01577374,7.65,0,0
0.0005903399999999997,-0.0013050436000000005,-0.0008739870000000001,0.0003893420000000004,0.014469658000000002,7.651,0,0
0.003341234,0.0014034164,-0.0026565210000000002,-0.00422585,0.009021460000000002,7.652,0,0
0.003088324,0.0027643524,-0.002706097,-0.010128326,-0.00047860000000000003,7.653,0,0
0.007465208000000001,0.003412954,-0.0038043850000000004,-0.01754417,-0.0127092,7.654,0,0
0.014495926,0.003516722,-0.006809798000000001,-0.026250298000000005,-0.026764120000000002,7.655,0,0
0.01807491,0.003826162000000001,-0.009973052,-0.03424378,-0.04012105800000001,7.656,0,0
0.019482250000000003,0.005089524000000001,-0.012884106000000003,-0.039628880000000005,-0.04954832000000001,7.657,0,0
0.019660762,0.006347526,-0.014828428000000001,-0.0416374,-0.05468192000000001,7.658,0,0
0.016692997999999997,0.006691870000000001,-0.013326322000000002,-0.0391107,-0.055004960000000006,7.659,0,0
0.0114641024,0.005919425400000001,-0.006915582000000002,-0.03188352,-0.04985432000000001,7.66,0,0
0.0067924002,0.0045786918000000005,0.0015642379999999995,-0.021941464,-0.040535480000000006,7.661,0,0
0.0034328162,0.0042833398,0.008218658,-0.010866424,-0.028722209999999998,7.662,0,0
0.0013245344000000002,0.0044981298,0.012453884,-7.863999999998487e-06,-0.01456931,7.663,0,0
-0.0014582395999999998,0.00356361572,0.013288242,0.009571516000000002,0.0006283699999999996,7.664,0,0
-0.0047196040000000005,0.0005454643199999999,0.010022802,0.017726256000000003,0.01413839,7.665,0,0
-0.0071009218,-0.00307524208,0.005900568,0.024582220000000002,0.024997890000000002,7.666,0,0
-0.0094012598,-0.00746843208,0.0029519254,0.0294446,0.0330318,7.667,0,0
-0.008928418,-0.011562892080000001,-0.0004890506,0.03232178,0.037938120000000006,7.668,0,0
-0.004343940000000001,-0.010486392,-0.0038117666000000005,0.03367292,0.040056320000000006,7.669,0,0
-0.0013832874,-0.006121707999999999,-0.004076120600000001,0.03336592,0.040501260000000004,7.67,0,0
-0.0010339074000000003,-0.001720026000000001,-0.0028331486000000012,0.03153156,0.03987244000000001,7.671,0,0
-1.2911400000000027e-05,0.0017839079999999998,-0.0021363700000000007,0.0286262,0.037690760000000004,7.672,0,0
-0.0025827934000000005,0.0018772980000000006,0.00019224200000000013,0.02464336,0.03402388,7.673,0,0
-0.0078817334,-0.00176483,0.003618298,0.018765198,0.02922798,7.674,0,0
-0.009050406,-0.00439021,0.005113052,0.010820698000000002,0.021008756,7.675,0,0
-0.008329656,-0.00523793396,0.004422828,0.0004918579999999987,0.008504296000000001,7.676,0,0
-0.006908490000000001,-0.00665633996,0.002728682,-0.011287582,-0.005484744000000001,7.677,0,0
-0.0017774300000000004,-0.00522232996,8.602999999999974e-05,-0.022139062,-0.019585424,7.678,0,0
0.00358881,-0.0017484299599999998,-0.0025284420000000005,-0.029151220000000005,-0.031670404,7.679,0,0
0.006372434000000001,0.0035541460400000005,-0.0054647920000000004,-0.03105842,-0.03715874,7.68,0,0
0.009782464000000001,0.010121928,-0.008643166,-0.02912604,-0.036091820000000004,7.681,0,0
0.013390084,0.01311752,-0.008568300000000001,-0.024195960000000002,-0.03160772,7.682,0,0
0.013804784,0.01174334,-0.0052438400000000005,-0.017522128,-0.02454402,7.683,0,0
0.012562041999999999,0.009027925999999999,-0.0016139120000000008,-0.011781476,-0.017361434,7.684,0,0
0.010384942,0.004863256000000001,0.002420438,-0.008126662000000002,-0.012327738000000001,7.685,0,0
0.0040690219999999985,-0.0029007440000000002,0.008468998,-0.004647458000000001,-0.008420443800000002,7.686,0,0
-0.006305698000000001,-0.007254864000000001,0.012899242,-0.0007091259999999998,-0.0040807338,7.687,0,0
-0.016679478,-0.007838024,0.013983892000000001,0.002993862,0.0007172062,7.688,0,0
-0.025940516000000004,-0.00967369,0.01299673,0.0064927100000000005,0.0050094002,7.689,0,0
-0.0337888,-0.011258842,0.008731158,0.009884536000000001,0.0087554842,7.69,0,0
-0.03613014,-0.009234246000000002,0.0030694580000000006,0.012309052000000001,0.01185873,7.691,0,0
-0.032748719999999995,-0.006097221999999999,-0.0006392847999999998,0.013224240000000002,0.01387138,7.692,0,0
-0.025362618,-0.0034272879999999997,-0.0028667668000000005,0.013108400000000001,0.01497788,7.693,0,0
-0.008483517999999997,0.005365492,-0.0064411568,0.011926262,0.01524008,7.694,0,0
0.013048662000000003,0.015191534000000001,-0.0091391448,0.010149034000000001,0.014208258,7.695,0,0
0.020713660000000002,0.020156918000000003,-0.0094246448,0.008169008,0.012487203999999998,7.696,0,0
0.017623080000000003,0.017949086000000003,-0.009174738600000001,0.005995752199999999,0.010278762,7.697,0,0
0.010089758000000002,0.006004712000000001,-0.0064950966,0.0036651170000000003,0.007124706,7.698,0,0
-0.002341281999999999,-0.010055968000000002,-0.0022333545999999992,0.0015586710000000004,0.0041739407999999995,7.699,0,0
-0.0012002819999999987,-0.018783382,-0.0023316346,-0.00027224099999999994,0.0017237028000000002,7.7,0,0
0.015101820000000002,-0.015307802000000002,-0.006248994600000001,-0.0019756829999999998,-0.0007622112000000002,7.701,0,0
0.028916280000000003,-0.002113694000000001,-0.008462298000000002,-0.0031417112000000002,-0.0028691392000000002,7.702,0,0
0.03978732,0.019216645999999997,-0.01039317,-0.003605236,-0.0040622992,7.703,0,0
0.042892834000000005,0.031603316,-0.010736208000000002,-0.003410906,-0.004183684,7.704,0,0
0.026484094,0.025575430000000003,-0.003951728,-0.0026506568000000006,-0.0033649040000000006,7.705,0,0
0.006240273999999999,0.010620910000000004,0.005185872000000001,-0.0013499888,-0.0016495300000000002,7.706,0,0
-0.003848686,-0.007463830000000001,0.011123912000000001,0.00015564320000000008,0.000972038,7.707,0,0
-0.009735586000000001,-0.023818610000000004,0.015274124,0.0013930192000000002,0.0036630460000000005,7.708,0,0
-0.01289164,-0.029631380000000006,0.0190668,0.0019470152,0.0054945820000000005,7.709,0,0
-0.011613100000000001,-0.024234786,0.01985962,0.0021945360000000004,0.006722894,7.71,0,0
-0.009131202,-0.017990232000000002,0.012803259999999999,0.0025042660000000002,0.006823100000000001,7.711,0,0
-0.010961902,-0.011303186000000002,0.00017337999999999729,0.0022255380000000004,0.0055380076,7.712,0,0
-0.012833802000000002,-0.0046128122,-0.011625420000000001,0.001191798,0.0036660436,7.713,0,0
-0.010363024000000002,0.0013970037999999998,-0.024294740000000002,-0.00013179200000000015,0.0013104315999999997,7.714,0,0
-0.009987682000000001,0.0091030098,-0.036788440000000006,-0.001607106,-0.0013631084000000002,7.715,0,0
-0.011881240000000001,0.015533815800000001,-0.03576232,-0.0033249200000000003,-0.0035331084000000002,7.716,0,0
-0.01132052,0.0187572098,-0.0226204,-0.0049597700000000005,-0.0049565780000000005,7.717,0,0
-0.01103744,0.016857740000000003,-0.009678619999999999,-0.005803932,-0.006408368,7.718,0,0
-0.012518538000000001,0.009031204000000001,0.005014380000000002,-0.005453310000000001,-0.007690122,7.719,0,0
-0.013763372,-0.004477516000000001,0.0213927,-0.004795188000000001,-0.008042334,7.72,0,0
-0.008587672,-0.016476856,0.029058340000000002,-0.004159828000000001,-0.007856866,7.721,0,0
0.005289908000000003,-0.020758786,0.025637896,-0.0031106040000000003,-0.007811188,7.722,0,0
0.018608068000000005,-0.018604222400000002,0.019070976,-0.002223676,-0.006884398,7.723,0,0
0.026737128000000002,-0.0118998624,0.012742704,-0.00223917,-0.005132252,7.724,0,0
0.031957320000000004,-0.0032895123999999998,0.006422028,-0.00313298,-0.004493990000000001,7.725,0,0
0.029817910000000003,0.0033354916,0.00246566,-0.003772816,-0.003878892,7.726,0,0
0.018061586,0.0055155376,0.0024978100000000005,-0.0038994880000000004,-0.0021616919999999998,7.727,0,0
0.005422805999999999,0.005948482,0.0037217160000000008,-0.003948022000000001,-0.001036414,7.728,0,0
-0.003762674,0.0055517885999999995,0.004085942,-0.0028696800000000008,-0.001099084,7.729,0,0
-0.009815774000000001,0.0043454166,0.004181908000000001,-0.0006428040000000003,-0.001183328,7.73,0,0
-0.013479904000000001,0.0027955388,0.0030742600000000005,0.0013668260000000002,-0.0015132980000000002,7.731,0,0
-0.01486502,0.0011609340000000002,0.0011512999999999998,0.0032089540000000004,-0.0031101260000000004,7.732,0,0
-0.014037300000000003,0.0010311780000000002,-0.0004062340000000003,0.004709884,-0.004967664,7.733,0,0
-0.0133991,0.0015763194000000002,-0.0017022610000000003,0.004628394000000001,-0.006138374,7.734,0,0
-0.01336032,0.0017249074000000003,-0.003432167,0.0030644180000000006,-0.00669797,7.735,0,0
-0.01270542,0.0020559612000000003,-0.005926691,0.0004358159999999999,-0.00698033,7.736,0,0
-0.008942636,0.0038047660000000002,-0.010273737,-0.003077934,-0.006684306,7.737,0,0
-0.002213156000000001,0.0061966700000000005,-0.016120508999999998,-0.00463313,-0.005024706,7.738,0,0
0.004049644,0.007866342,-0.019678656,-0.0021835820000000003,-0.0014566380000000001,7.739,0,0
0.00842002,0.00875326,-0.0185495938,0.00164853,0.00349634,7.74,0,0
0.013360340000000002,0.008601308,-0.013015113799999999,0.004505752,0.007963592,7.741,0,0
0.016919916,0.00743335,-0.003014613799999998,0.007477206000000001,0.012157222,7.742,0,0
0.014985216,0.005841680000000001,0.008865726200000002,0.010021424,0.016519794,7.743,0,0
0.012005555999999999,0.004216162000000001,0.0164257262,0.010407064,0.020505100000000002,7.744,0,0
0.009502478,0.0017107320000000004,0.018076972,0.011542704,0.024534120000000003,7.745,0,0
0.003114537999999999,-0.0016609559999999999,0.016174616000000003,0.016535394000000002,0.029521580000000006,7.746,0,0
-0.006349222000000001,-0.005054494,0.011834522000000002,0.02311396,0.035007060000000007,7.747,0,0
-0.015873262,-0.00789567,0.0064097262,0.028385060000000004,0.039156260000000005,7.748,0,0
-0.026721162,-0.009047436,0.0027812602,0.03272956,0.04165382000000001,7.749,0,0
-0.03748776,-0.007547038000000001,0.0024057362000000004,0.03500758,0.043149200000000006,7.75,0,0
-0.04437684,-0.004664748000000001,0.0030972282000000005,0.033059960000000006,0.043088720000000004,7.751,0,0
-0.04666482000000001,-0.002222076,0.0036031942,0.026065386,0.03763466,7.752,0,0
-0.04145984200000001,-9.950799999999989e-05,0.004129756,0.014123845999999999,0.02446056,7.753,0,0
-0.027681182000000002,0.0013015420000000002,0.0029692020000000006,0.00040454599999999955,0.006282659999999999,7.754,0,0
-0.010201402000000002,0.0021355880000000003,-0.00022354600000000003,-0.010546074000000003,-0.01380158,7.755,0,0
0.005323718,0.0028302720000000004,-0.003465938,-0.015734426000000003,-0.0311501,7.756,0,0
0.016533818000000002,0.0021275520000000004,-0.00639051,-0.014510306000000002,-0.04061332000000001,7.757,0,0
0.026071020000000004,-0.00026549799999999986,-0.008928658,-0.009162803999999998,-0.04212924,7.758,0,0
0.0343928,-0.0031023680000000003,-0.010460598000000002,-0.003366980000000001,-0.03731042,7.759,0,0
0.037524300000000003,-0.005998776000000001,-0.011285018,0.0005429599999999999,-0.026740652000000004,7.76,0,0
0.038436780000000004,-0.008577870000000001,-0.012738902000000002,-0.0006548480000000004,-0.016481840000000005,7.761,0,0
0.03735918,-0.010452942000000002,-0.015958382,-0.008044734000000001,-0.011968402000000001,7.762,0,0
0.02754294,-0.011006234,-0.018646180000000002,-0.017072596000000002,-0.008594141999999999,7.763,0,0
0.012104920000000003,-0.008698810000000001,-0.017922418000000002,-0.0258839,-0.00471914,7.764,0,0
-0.00086928,-0.0048744800000000005,-0.014251074000000002,-0.03673454,-0.0062668080000000004,7.765,0,0
-0.009099580000000001,-0.001475358,-0.007900754000000001,-0.048587280000000004,-0.01638298,7.766,0,0
-0.011181670000000001,0.0030802040000000004,0.002239226,-0.05761886,-0.032515138,7.767,0,0
-0.00574623,0.008517304,0.013279825999999998,-0.06330743999999999,-0.051141838,7.768,0,0
0.0033129900000000005,0.011592784,0.020689264,-0.06655,-0.07030436,7.769,0,0
0.012139130000000001,0.013111484000000001,0.024060039999999998,-0.06572316,-0.08461476000000001,7.77,0,0
0.01909575,0.014061802000000002,0.0238125,-0.059076340000000005,-0.08655856,7.771,0,0
0.02351074,0.012886994,0.020008259999999996,-0.04660816,-0.07388540000000002,7.772,0,0
0.026186360000000002,0.009268098,0.014251598,-0.030620248000000003,-0.05212721,7.773,0,0
0.027712320000000002,0.0033535180000000006,0.007619838,-0.013723148000000001,-0.02721569,7.774,0,0
0.02749568,-0.0018690520000000002,0.0009803980000000008,0.0037781920000000014,-0.0028846700000000006,7.775,0,0
0.023637804000000002,-0.0030099860000000005,-0.004183602,0.020802732000000004,0.018374770000000006,7.776,0,0
0.015623324000000001,-0.0018603140000000005,-0.007595522,0.033398972,0.03538369000000001,7.777,0,0
0.004817544,-0.0010314220000000002,-0.01050356,0.040226120000000004,0.04621448000000001,7.778,0,0
-0.006118656,0.0008999800000000001,-0.012887200000000001,0.04265808,0.05035656000000001,7.779,0,0
-0.013798236,0.0032720999999999996,-0.01378162,0.0405859,0.04954146,7.78,0,0
-0.01768068,0.002374499,-0.013877760000000001,0.034901839999999996,0.04601774,7.781,0,0
-0.01909694,-5.221300000000017e-05,-0.012625221999999998,0.028548340000000005,0.03987608000000001,7.782,0,0
-0.0183903,-0.0026036090000000002,-0.007663642,0.02279542,0.032474199999999995,7.783,0,0
-0.01732328,-0.006840071000000001,0.002055538,0.017737368000000003,0.02642944,7.784,0,0
-0.017750500000000002,-0.009625301000000001,0.013963878,0.014339198,0.02218592,7.785,0,0
-0.01823568,-0.007766486000000001,0.024285578000000002,0.011625492,0.01841562,7.786,0,0
-0.016267840000000002,-0.00324582,0.028962380000000003,0.0074785879999999996,0.014301162,7.787,0,0
-0.0120922942,0.0035762199999999997,0.0263724398,0.0017893479999999992,0.009226076000000001,7.788,0,0
-0.007725194199999999,0.0125879,0.018853221800000004,-0.003761740000000001,0.0018389159999999995,7.789,0,0
-0.0032226401999999998,0.01761198,0.0069415818,-0.008068430000000001,-0.005887264000000001,7.79,0,0
0.0032607597999999996,0.015985906,-0.0078360382,-0.010538920000000002,-0.011823784000000002,7.791,0,0
0.0098534598,0.010937012000000001,-0.0217390582,-0.009119948000000003,-0.015083842,7.792,0,0
0.011015156000000002,0.005174530000000001,-0.031699698,-0.0011359480000000003,-0.012970506,7.793,0,0
0.006072816,-0.001037324,-0.03681474,0.011485212,-0.005406825999999999,7.794,0,0
-0.0014357579999999997,-0.008575504000000001,-0.03636558,0.024069832,0.003323314,7.795,0,0
-0.009925518,-0.01293039,-0.027879724,0.035121588,0.011857974,7.796,0,0
-0.016906658,-0.0106748,-0.012705544000000001,0.043022740000000004,0.02060141,7.797,0,0
-0.020246200000000002,-0.008619182,0.002473396,0.045829100000000005,0.027635180000000002,7.798,0,0
-0.02063438,-0.010737747999999998,0.013859656,0.04366264,0.03349286,7.799,0,0
-0.01964182,-0.014461548,0.021980356,0.03810576000000001,0.03881388,7.8,0,0
-0.0188573,-0.019064688000000003,0.025398,0.03004373,0.04071606,7.801,0,0
-0.01898188,-0.024476964000000004,0.023668759999999997,0.019846256000000003,0.03838154,7.802,0,0
-0.018996819999999998,-0.02321434,0.018329541200000004,0.007243535999999999,0.032251768,7.803,0,0
-0.015366398000000003,-0.010033019999999997,0.0114122212,-0.007076904000000001,0.021637772,7.804,0,0
-0.009057374000000002,0.00750644,0.0054795671999999995,-0.020779524,0.007919791999999998,7.805,0,0
-0.003037598000000001,0.019741059999999998,0.0017330031999999995,-0.033425114000000006,-0.006676527999999999,7.806,0,0
0.0024578620000000003,0.018483199999999998,0.0011265432000000003,-0.04421702000000001,-0.019994308000000002,7.807,0,0
0.008382762,0.007912479999999996,0.003418502,-0.052313740000000004,-0.031293756000000006,7.808,0,0
0.014372060000000002,-0.0035550800000000004,0.006882134000000001,-0.05809554,-0.0414611,7.809,0,0
0.019337336000000004,-0.011127998,0.009626948,-0.06157938,-0.0503802,7.81,0,0
0.0238164,-0.0066975980000000025,0.009721417999999999,-0.06032084,-0.055708280000000006,7.811,0,0
0.025916260000000003,0.009817022,0.00649739,-0.05123954,-0.0556579,7.812,0,0
0.027731220000000008,0.026428682000000002,-0.0001386499999999997,-0.034328599999999994,-0.05013972,7.813,0,0
0.028059780000000003,0.033796582000000006,-0.008351482,-0.01195064,-0.038519095999999996,7.814,0,0
0.022265264240000002,0.038388580000000005,-0.015115862,0.012888219999999997,-0.021949396,7.815,0,0
0.012858404240000003,0.03733078,-0.020308648000000002,0.03649596,-0.003044636,7.816,0,0
0.00435448424,0.01837468,-0.021589450000000003,0.05524842,0.015177744,7.817,0,0
-0.0005971657600000002,-0.008156840000000002,-0.016191638,0.07003798,0.032134544,7.818,0,0
0.0002189542399999994,-0.02710708,-0.008577402000000001,0.08244534,0.04956362,7.819,0,0
0.00752915,-0.0429955,-0.0024744640000000004,0.09092484,0.0665068,7.82,0,0
0.01505813,-0.05614918,0.002630678,0.09393534,0.07948488000000001,7.821,0,0
0.018790514200000004,-0.051169959999999994,0.003782162,0.09057484,0.08686552000000002,7.822,0,0
0.012561964200000003,-0.032693059399999995,0.001425178,0.07898886,0.08877032000000001,7.823,0,0
-0.0085046558,-0.017543309400000002,0.0005445452000000001,0.058867234,0.08274358000000001,7.824,0,0
-0.0354675758,-0.007578167399999999,0.0009245531999999997,0.03197665399999999,0.06591362,7.825,0,0
-0.0574647158,-0.00045032739999999985,0.0029297111999999994,-0.0006111459999999999,0.039076860000000005,7.826,0,0
-0.07132286,0.0061987325999999995,0.006357517199999999,-0.034169166,0.007861680000000001,7.827,0,0
-0.07653800000000001,0.010741992,0.007980325199999999,-0.063341926,-0.02465666,7.828,0,0
-0.06897128,0.012709642,0.007520618000000001,-0.0867729,-0.05828312,7.829,0,0
-0.049858932,0.01669032,0.005392344,-0.10189012,-0.08547416,7.83,0,0
-0.025867532000000002,0.021320020000000002,0.0012536320000000002,-0.10441216,-0.09635892000000001,7.831,0,0
-0.0030010520000000023,0.019519904,-0.0029158020000000003,-0.09714164,-0.09490998,7.832,0,0
0.018099907999999998,0.012224664,-0.003451772,-0.08525840000000001,-0.08809538000000001,7.833,0,0
0.038199648,0.008190461999999999,-0.002284664,-0.0690151,-0.07408542000000001,7.834,0,0
0.0534911,0.007190301999999999,-0.004116436000000001,-0.050936640000000005,-0.05754112000000001,7.835,0,0
0.060791700000000004,0.005650322000000001,-0.007410924000000001,-0.0327993568,-0.043475120000000006,7.836,0,0
0.06114826,0.006774398,-0.008507830000000001,-0.013780136800000002,-0.028732060000000004,7.837,0,0
0.05618496,0.011631258,-0.009662364000000001,0.0034727432000000004,-0.012881400000000001,7.838,0,0
0.04525954,0.013106748000000001,-0.0103859626,0.016439683200000003,0.0020411400000000003,7.839,0,0
0.031874478,0.009479174000000002,-0.005890342599999999,0.026303243200000003,0.01745348,7.84,0,0
0.020133378,0.006675128000000001,0.00035416340000000036,0.03126466,0.02987306,7.841,0,0
0.011407938000000001,0.005915708,0.0051427234,0.029674799999999998,0.03451086,7.842,0,0
0.006288168,0.005395092000000001,0.0090985114,0.02513532,0.034250699999999995,7.843,0,0
0.004990808,0.004444514,0.010030676000000002,0.019062156,0.03015236,7.844,0,0
0.005321024000000001,0.00288265,0.007823123000000001,0.011163404,0.020511151999999998,7.845,0,0
0.004644138000000001,-8.913600000000008e-05,0.0056345840000000015,0.002537424,0.005290231999999999,7.846,0,0
0.005065914,-0.004597676,0.0036960640000000006,-0.006610236,-0.012476708000000001,7.847,0,0
0.006621154000000001,-0.0096743,0.0011907668000000003,-0.014956055999999999,-0.028434988,7.848,0,0
0.006128328000000001,-0.01273951,-0.00012846519999999998,-0.019096151999999998,-0.038979008,7.849,0,0
0.002987226,-0.012808328,-0.0007259662,-0.0184059,-0.040165280000000005,7.85,0,0
-0.0017813679999999993,-0.0111049254,-0.0018693072,-0.013672332,-0.03095428,7.851,0,0
-0.008686104,-0.007799601400000001,-0.0031860632,-0.003599032000000001,-0.015603100000000003,7.852,0,0
-0.018092734,-0.0041970654,-0.003670936,0.011222508000000003,0.0024318200000000003,7.853,0,0
-0.027184748,-0.0012001794000000001,-0.003063582,0.026821408,0.02072482,7.854,0,0
-0.03387344,0.0006212508,-0.0018611959999999999,0.040613268,0.0332494,7.855,0,0
-0.0379125,0.0011718701999999998,-0.00024209399999999966,0.051562760000000006,0.039684300000000006,7.856,0,0
-0.037400279999999994,0.0017850741999999998,0.0006284700000000001,0.056477940000000004,0.044117420000000004,7.857,0,0
-0.031868379999999995,0.0025705042,0.0008213700000000004,0.05307216,0.04461724,7.858,0,0
-0.025240632,0.0024713482,0.0016227680000000001,0.04371342,0.04070766,7.859,0,0
-0.018834636000000002,0.0012528319999999997,0.003078796,0.030649953600000005,0.03637298,7.86,0,0
-0.010110810000000001,-0.0004332140000000001,0.0046145760000000004,0.014929393600000002,0.03136342,7.861,0,0
-0.0013185899999999997,-0.0025183700000000002,0.005916242,-0.0002462064000000007,0.022856751999999998,7.862,0,0
0.0046430099999999995,-0.004335714,0.006834746,-0.013048846400000001,0.013295872,7.863,0,0
0.010644902000000001,-0.004785154,0.0060096920000000005,-0.024777686400000005,0.003993392,7.864,0,0
0.018431746000000002,-0.00421547,0.003468048,-0.03572214,-0.008279288000000001,7.865,0,0
0.024383960000000003,-0.0030233414000000007,0.0009236899999999998,-0.04373626,-0.022303148000000002,7.866,0,0
0.026290440000000005,-0.0006040134000000004,-0.0014153980000000004,-0.04811996,-0.03441898,7.867,0,0
0.026882000000000003,0.0022612445999999997,-0.0040546160000000005,-0.04814504,-0.04357006,7.868,0,0
0.027020060000000002,0.0043879546,-0.006281704,-0.041233112,-0.047532580000000005,7.869,0,0
0.023697540000000003,0.0058415746,-0.0072231080000000015,-0.027632012000000004,-0.042816160000000006,7.87,0,0
0.015630512,0.006168748,-0.007452458,-0.009360312000000003,-0.030865620000000003,7.871,0,0
0.0036994520000000006,0.005319856,-0.0066408940000000005,0.011238788000000001,-0.013940699999999999,7.872,0,0
-0.010456928,0.0045484720000000005,-0.004373564000000001,0.029368048,0.006065020000000001,7.873,0,0
-0.025873948,0.004308884000000001,-0.0016160900000000001,0.04067942,0.02328732,7.874,0,0
-0.041039068000000005,0.003203348,0.0006645740000000001,0.04608368,0.03570804,7.875,0,0
-0.05201076,0.0012427880000000003,0.002666488,0.04789866000000001,0.04604992000000001,7.876,0,0
-0.055436820000000005,-0.00048249199999999995,0.004158126,0.04467948,0.05233428,7.877,0,0
-0.05213694,-0.0018647666000000001,0.003568138,0.03712576,0.05193248,7.878,0,0
-0.04351576,-0.0024271225999999996,0.001872314,0.028321686,0.047543100000000005,7.879,0,0
-0.026362780000000002,-0.0021505859999999995,0.00086429,0.017595866000000005,0.04025812000000001,7.88,0,0
-0.00171464,-0.0025690880000000006,-0.00029157680000000004,0.0024303659999999998,0.026713276000000005,7.881,0,0
0.02283608,-0.003965576,-0.0013327664000000001,-0.015961954,0.0052289360000000035,7.882,0,0
0.04293944,-0.0044820194,-0.0008857184000000001,-0.032282454,-0.017509404,7.883,0,0
0.059653460000000005,-0.0045481514,-0.00026596400000000004,-0.044384900000000005,-0.036074804,7.884,0,0
0.06975146,-0.0043037792,-0.00038134180000000005,-0.05269312,-0.052448504,7.885,0,0
0.0692834,-0.0025422256,-0.0003030438,-0.055760340000000005,-0.06406587999999999,7.886,0,0
0.06175986000000001,-0.0005220822000000001,6.513379999999999e-05,-0.05396504000000001,-0.06640034,7.887,0,0
0.05134844000000001,0.0003394918,-0.00013992260000000005,-0.05057840000000001,-0.0640462,7.888,0,0
0.03719550160000001,0.0009950318000000002,-0.0013373830000000001,-0.04549392000000001,-0.060323060000000005,7.889,0,0
0.0208404736,0.002874999,-0.0032559372000000005,-0.035787804,-0.050098840000000006,7.89,0,0
0.0089773902,0.0047916434,-0.0052580024000000005,-0.021427304,-0.03406386,7.891,0,0
0.0009877942000000002,0.005201954,-0.006689106400000001,-0.002859023999999998,-0.015256020000000002,7.892,0,0
-0.0051417458,0.0037740480000000003,-0.005843078000000001,0.018396836000000003,0.00578408,7.893,0,0
-0.0097802874,0.0012252039999999997,-0.0010433100000000004,0.038125996,0.02477178,7.894,0,0
-0.0158119194,-0.0016270260000000002,0.00596173,0.0527702,0.03842264,7.895,0,0
-0.026223936,-0.0046334160000000004,0.012119690000000002,0.06073818000000001,0.04774178,7.896,0,0
-0.03852358,-0.006851004000000001,0.014480544000000001,0.06296822,0.055129460000000005,7.897,0,0
-0.049543380000000005,-0.007765290000000001,0.01253495,0.06058824,0.06039802,7.898,0,0
-0.05906970000000001,-0.008035804,0.008108626,0.05410098000000001,0.06315718,7.899,0,0
-0.06267194000000001,-0.007887342,0.0021387279999999995,0.044166300000000006,0.061886880000000005,7.9,0,0
-0.058602180000000004,-0.006099842,-0.0035628680000000003,0.029307340000000005,0.05341498000000001,7.901,0,0
-0.04817908,-0.003241632,-0.006059442,0.009915280000000002,0.037317600000000006,7.902,0,0
-0.033598538000000004,-0.0003060519999999998,-0.005322314000000001,-0.01112152,0.015241379999999997,7.903,0,0
-0.014895098000000002,0.0029976660000000004,-0.004068588000000001,-0.03166242,-0.00937102,7.904,0,0
0.004954741999999999,0.004795098,-0.0026905099999999997,-0.0484605,-0.031904060000000005,7.905,0,0
0.021318362,0.0041001004,-0.0005402919999999998,-0.05846408,-0.049404540000000004,7.906,0,0
0.034911162,0.0028837684000000002,0.001556334,-0.061117660000000004,-0.06084322,7.907,0,0
0.04567994,0.0018154104,0.002769928,-0.05704366,-0.06388034000000001,7.908,0,0
0.05068740000000001,-2.0813600000000156e-05,0.003256886,-0.04743684,-0.059555380000000005,7.909,0,0
0.04777322,-0.0011810468,0.003524796,-0.035334828,-0.05227244,7.91,0,0
0.04017508,-0.0015088672000000002,0.0032520840000000006,-0.021865216,-0.04248486,7.911,0,0
0.028877764000000007,-0.0015335712000000001,0.0021378300000000003,-0.006847756000000001,-0.029514632000000002,7.912,0,0
0.013901524000000002,-0.00045240319999999994,0.0007473280000000001,0.007715164,-0.016021312000000003,7.913,0,0
-0.001279915999999999,-0.00031958559999999993,-0.0005689119999999999,0.020409664,-0.0036959120000000017,7.914,0,0
-0.013366236,-0.0020792023999999997,-0.0019548919999999997,0.031797152,0.008412688,7.915,0,0
-0.020787376000000003,-0.0029223964,-0.003100294,0.041052960000000006,0.018950168,7.916,0,0
-0.02336286,-0.0013203483999999998,-0.0034343760000000003,0.04518094,0.02699502,7.917,0,0
-0.020331546000000002,0.0008848416000000001,-0.003289574,0.04520914000000001,0.03387826000000001,7.918,0,0
-0.013812392000000003,0.004148924,-0.002584456,0.04335672,0.03984436,7.919,0,0
-0.0074015346000000015,0.00760949,-0.0013110080000000002,0.03906954,0.0452728,7.92,0,0
-0.0014000806,0.008942650000000002,-0.0007051900000000001,0.0332779,0.05153314,7.921,0,0
0.0029335014,0.00882679,-0.00016138060000000002,0.027616500000000002,0.05574422,7.922,0,0
0.0030862574,0.007486659999999999,0.0013363474,0.020429162,0.052348700000000005,7.923,0,0
0.0015552234000000002,0.005590542,0.0017843854,0.010277902000000002,0.042418161999999995,7.924,0,0
-6.944000000000004e-05,0.003696912,0.0009952094,-0.000283658,0.029824186,7.925,0,0
-0.004361014,0.0018424860000000002,0.0017899734,-0.010115678000000001,0.014594266000000002,7.926,0,0
-0.010658156000000002,-0.0011216379999999997,0.002951118,-0.018255158,-0.00015705400000000022,7.927,0,0
-0.016130685999999998,-0.004515364,0.00236545,-0.022221580000000005,-0.008424414000000002,7.928,0,0
-0.020499726000000003,-0.00664929,0.001965272,-0.021425160000000002,-0.011146216000000002,7.929,0,0
-0.02330824,-0.007023288,0.002525228,-0.017815858000000004,-0.013671240000000001,7.93,0,0
-0.02294174,-0.005672116,0.0020509908,-0.014630618000000001,-0.0172982,7.931,0,0
-0.018774538,-0.0035471280000000005,0.0004349127999999999,-0.012986918,-0.02156964,7.932,0,0
-0.01126148,-0.0002333340000000002,-0.0011824132,-0.013706398000000002,-0.02761132,7.933,0,0
-0.0011931399999999988,0.0041327099999999995,-0.0031665172,-0.017509618,-0.035461019999999996,7.934,0,0
0.00977186,0.008492396000000001,-0.0052017112,-0.022478780000000004,-0.042350320000000004,7.935,0,0
0.01890868,0.009840878,-0.008292704000000001,-0.025516240000000003,-0.04425892000000001,7.936,0,0
0.025900398,0.007928632000000001,-0.014247802,-0.02525752,-0.04037938,7.937,0,0
0.03011892,0.006566842000000001,-0.020514002,-0.022758034000000003,-0.033247356000000006,7.938,0,0
0.02969824,0.005360402,-0.023520476,-0.019809414000000004,-0.024879724,7.939,0,0
0.026582400000000003,0.003601342,-0.023175315999999998,-0.017759594000000004,-0.016639124,7.94,0,0
0.021939596000000002,0.004519032,-0.019526019999999998,-0.015905294,-0.011953024,7.941,0,0
0.014426034,0.006706434000000001,-0.010603139999999999,-0.014429936,-0.012073444000000001,7.942,0,0
0.005631554,0.005137080000000001,0.00257742,-0.012198782000000002,-0.012595188,7.943,0,0
-0.0020808260000000005,0.0020526020000000006,0.015724560000000002,-0.006448162,-0.009859962,7.944,0,0
-0.007644026,0.0010180240000000002,0.024840516000000003,0.0005821380000000003,-0.004480861999999999,7.945,0,0
-0.009459112,0.0004958139999999998,0.028966620000000002,0.007267338,0.0029052780000000003,7.946,0,0
-0.006884386,-0.002540474,0.02914796,0.01380852,0.010639918000000002,7.947,0,0
-0.0016342659999999997,-0.008182048,0.024820231999999998,0.018536940000000002,0.014593898000000003,7.948,0,0
0.005066854000000001,-0.01244427,0.016548205,0.019996800000000002,0.014172456000000003,7.949,0,0
0.011568514,-0.0146693,0.006517645000000001,0.019647940000000003,0.012956086,7.95,0,0
0.015501144000000001,-0.0160733684,-0.0031471750000000003,0.019997360000000002,0.014055766,7.951,0,0
0.016881459999999997,-0.0132493024,-0.011042555,0.021194440000000002,0.017478126,7.952,0,0
0.01581736,-0.0057743184000000015,-0.016963607000000002,0.02295878,0.022930946,7.953,0,0
0.012470984000000001,-0.00017562640000000026,-0.02000448,0.02570536,0.02954391,7.954,0,0
0.0079074668,0.0017208616,-0.018129438,0.028559160000000004,0.033486039999999995,7.955,0,0
0.002507196800000001,0.002556452,-0.012052448000000002,0.028002660000000002,0.03162168,7.956,0,0
-0.004046403200000001,0.00222898502,-0.0034193480000000004,0.022954746,0.02628116,7.957,0,0
-0.0109598832,0.0007173830199999997,0.006241692,0.014753308,0.02093892,7.958,0,0
-0.017760727200000003,-0.0011709389800000003,0.012677272000000002,0.004487508,0.014466292,7.959,0,0
-0.02456155,-0.00268337698,0.014580712000000003,-0.005552872,0.007503466,7.96,0,0
-0.028423140000000003,-0.0038870549800000005,0.014135978,-0.013138612000000001,0.002342398,7.961,0,0
-0.027390700000000004,-0.00470277,0.011959497999999999,-0.017748978000000002,-0.0026533220000000005,7.962,0,0
-0.023110874,-0.0046857520000000005,0.007616870000000001,-0.020125380000000002,-0.009586122,7.963,0,0
-0.0168577916,-0.004305028000000001,0.0030520420000000005,-0.021004900000000003,-0.016739974,7.964,0,0
-0.0093768596,-0.003264319,0.00022982199999999997,-0.021412820000000003,-0.022129388,7.965,0,0
-0.0021694176,-0.0006746310000000002,-0.0011865979999999999,-0.02215202,-0.026119640000000003,7.966,0,0
0.0039020024000000005,0.003747785,-0.0025289580000000004,-0.022709240000000002,-0.027920640000000004,7.967,0,0
0.0086292564,0.008516205,-0.0031859678000000008,-0.021726560000000002,-0.027721160000000005,7.968,0,0
0.011383454000000001,0.012114791,-0.0017070518000000003,-0.018143604,-0.02547332,7.969,0,0
0.012480452,0.014693820000000002,6.825020000000002e-05,-0.012149264,-0.020443276000000003,7.97,0,0
0.011342336,0.014457408000000001,0.0013082982,-0.005845597999999999,-0.014443280400000003,7.971,0,0
0.0070053120000000005,0.010576532,0.0018887322,-0.001023964,-0.0088010684,7.972,0,0
0.0012153520000000003,0.006211442,0.0021162520000000003,0.0026903660000000005,-0.0020413683999999993,7.973,0,0
-0.003850268,0.00309667,0.002411888,0.005389866,0.0061460316,7.974,0,0
-0.006741182,-0.00037037600000000017,0.0017435899999999997,0.006437252,0.011961367600000002,7.975,0,0
-0.0076641800000000005,-0.0036491680000000004,0.000347172,0.0073229060000000006,0.014961072,7.976,0,0
-0.006848384,-0.005389472,-0.0011693040000000004,0.009299392,0.01689056,7.977,0,0
-0.0037731140000000006,-0.0072257020000000005,-0.003467528,0.011421222000000002,0.017144660000000003,7.978,0,0
1.4111999999999935e-05,-0.00892137,-0.006264212,0.012589506,0.015174580000000003,7.979,0,0
0.002342344,-0.009158038,-0.00787838,0.01264914,0.013038860000000003,7.98,0,0
0.006081436000000001,-0.008459212,-0.008631262,0.012001930000000003,0.012193680000000002,7.981,0,0
0.012780524000000001,-0.007693328,-0.00845649,0.009940086,0.010259,7.982,0,0
0.018396214,-0.006231878,-0.006296354,0.0057832840000000005,0.0068745559999999995,7.983,0,0
0.022249467999999998,-0.00377344,-0.00308212,0.0004941240000000003,0.003114501999999999,7.984,0,0
0.02338642,-0.0015714940000000003,-0.0003215119999999996,-0.004275356000000001,-0.001051098,7.985,0,0
0.018222542,0.0008821740000000005,0.0021281040000000005,-0.008707466,-0.0059158579999999995,7.986,0,0
0.007729601999999999,0.004130410000000001,0.003843178,-0.013660842,-0.010438638,7.987,0,0
-0.004457058,0.006479834,0.003972006,-0.017094900000000003,-0.013105334000000001,7.988,0,0
-0.016615498,0.006449044600000001,0.00368564,-0.01722846,-0.01433728,7.989,0,0
-0.024997578,0.0051022992,0.0038389879999999998,-0.0143089024,-0.013465874000000001,7.99,0,0
-0.027204900000000004,0.003657109200000001,0.0034214680000000004,-0.0076939624,-0.008437954000000001,7.991,0,0
-0.025245200000000002,0.0014224872000000003,0.003006884,0.004176517599999999,-0.0002704540000000007,7.992,0,0
-0.021269792,-0.0008385988000000001,0.0037597560000000004,0.0219207576,0.009125466,7.993,0,0
-0.015645392,-0.0026062394000000003,0.00342887,0.0410277176,0.019458686000000003,7.994,0,0
-0.007941644000000001,-0.004985406,0.001974144,0.0546878,0.028676160000000003,7.995,0,0
-0.0008896240000000003,-0.007651466000000001,0.001188594,0.06149068,0.03552914,7.996,0,0
0.003758616,-0.009272698000000001,0.0003330899999999999,0.06126286,0.0412123,7.997,0,0
0.007791648,-0.009440690000000002,-0.0014589300000000002,0.05125506,0.044071740000000005,7.998,0,0
0.009913024,-0.008684786000000002,-0.002787228,0.03467722566,0.04177734,7.999,0,0
0.006206996000000001,-0.005885334000000001,-0.002753286,0.018072225659999996,0.034662152,8.0,0,0
-0.00045506400000000025,-0.0025389740000000003,-0.0026823360000000004,0.0016943456599999998,0.023062392,8.001,0,0
-0.004997144,-0.0025734620000000003,-0.0029461820000000003,-0.015478254340000002,0.006077911999999999,8.002,0,0
-0.008682430000000001,-0.0043072580000000004,-0.00262955,-0.032573634340000004,-0.017001048,8.003,0,0
-0.011445086,-0.0036483458,-0.0015893322,-0.0491206,-0.040823927999999995,8.004,0,0
-0.009706514000000001,-0.0017570978000000003,-0.0010777558000000002,-0.06385518000000001,-0.05886814,8.005,0,0
-0.0044508840000000004,0.0007326421999999996,-0.0002057338,-0.07312728,-0.07031736000000001,8.006,0,0
0.0006126759999999995,0.0058635442,0.0017005802000000002,-0.07412919999999999,-0.07338508,8.007,0,0
0.005612262,0.0102449922,0.0041340942000000006,-0.06798062,-0.06623954,8.008,0,0
0.011233122,0.011279636000000003,0.0056115304,-0.055964240000000005,-0.05198292,8.009,0,0
0.014957390000000001,0.010025318,0.003915648,-0.039136728,-0.034668062,8.01,0,0
0.01611174,0.006631778600000001,-0.0005003540000000002,-0.021101188,-0.018177042,8.011,0,0
0.017076800000000003,0.0031018186000000003,-0.006612578000000001,-0.0055004680000000005,-0.006432717999999999,8.012,0,0
0.018118380000000003,0.0018298006000000001,-0.012525658,0.008795952000000001,0.0022384680000000004,8.013,0,0
0.01755108,0.0013368206000000003,-0.015127484,0.022372692,0.009786188000000001,8.014,0,0
0.0163644,0.00022711460000000004,-0.012518936,0.031172960000000003,0.012762490000000001,8.015,0,0
0.015572168,-0.000454368,-0.005660316,0.03477994,0.012163650000000002,8.016,0,0
0.012203094000000001,-0.001040232,0.0029200640000000004,0.0360814,0.013426286,8.017,0,0
0.006869460000000001,-0.0022665940000000002,0.009281204000000001,0.03535254,0.0178563,8.018,0,0
0.003213726,-0.0024223860000000003,0.01219097,0.03297068,0.024096140000000002,8.019,0,0
-0.00030216400000000017,-0.00032588799999999987,0.012728772000000001,0.030504860000000005,0.031359540000000005,8.02,0,0
-0.005708352000000001,0.002316174,0.009385764000000001,0.027308100000000002,0.038172960000000006,8.021,0,0
-0.010323878000000002,0.005402838,0.00424094,0.0214766786,0.04048624000000001,8.022,0,0
-0.012157824000000001,0.00984953,0.000700586,0.010789458600000001,0.034856492,8.023,0,0
-0.012692068,0.013280854,-0.0018623480000000002,-0.0038383014000000007,0.021738792000000003,8.024,0,0
-0.011687158,0.01380026,-0.0032943120000000006,-0.0172304614,0.005938052000000003,8.025,0,0
-0.007193188,0.013445984,-0.0018712900000000005,-0.0269669814,-0.007856208,8.026,0,0
-0.00048456799999999946,0.010742454,0.0010013720000000002,-0.03231186,-0.018976648000000002,8.027,0,0
0.005495272000000001,0.0033305739999999998,0.0033457380000000004,-0.03166028,-0.026324439999999998,8.028,0,0
0.00972037,-0.004922426000000001,0.005094618,-0.02673348,-0.02849806,8.029,0,0
0.01247483,-0.010564766000000001,0.004663434000000001,-0.02113108,-0.027439699999999997,8.03,0,0
0.0135611,-0.013593654000000002,0.0014876800000000008,-0.01634027,-0.026404499999999997,8.031,0,0
0.01213272,-0.013024083800000003,-0.0021261179999999993,-0.01109239836,-0.023240840000000002,8.032,0,0
0.00912628,-0.008614993800000002,-0.004999284,-0.00454225836,-0.01713183,8.033,0,0
0.0064863,-0.0036878198000000004,-0.007529434,0.0005097416400000002,-0.012853972,8.034,0,0
0.0034436740000000003,8.412819999999995e-05,-0.008558998,0.00271040984,-0.011442131999999999,8.035,0,0
-0.0010486859999999996,0.0022835422,-0.00705133,0.004700373840000001,-0.009986092,8.036,0,0
-0.005240366000000001,0.0031607019999999996,-0.0044154120000000005,0.0069317222000000005,-0.006421809999999999,8.037,0,0
-0.008326726000000001,0.0036627359999999998,-0.0017082879999999996,0.0078399022,-0.0009261000000000009,8.038,0,0
-0.011339806000000001,0.0035889740000000004,0.0011138120000000005,0.009626502200000001,0.008226802,8.039,0,0
-0.01262441,0.002781372,0.0034738060000000003,0.014090674000000001,0.021285742000000003,8.04,0,0
-0.011304652,0.0012494339999999998,0.004324742,0.01883086,0.033752822,8.041,0,0
-0.01012404,-0.0014806300000000001,0.0022717680000000004,0.02184142,0.04093314000000001,8.042,0,0
-0.010272680000000001,-0.004513518000000001,-0.004032402,0.023181940000000005,0.042875920000000005,8.043,0,0
-0.011396860000000002,-0.0066636360000000006,-0.013523916,0.022632180000000002,0.040588500000000007,8.044,0,0
-0.014510270000000002,-0.008173520000000002,-0.022797592,0.021145800000000003,0.033649080000000005,8.045,0,0
-0.020255188,-0.00637415,-0.028993576,0.01894842,0.025064288000000004,8.046,0,0
-0.025198560000000002,-0.002101026,-0.027883076,0.01603086,0.017015722,8.047,0,0
-0.02713874,0.00020597400000000004,-0.015976676000000002,0.013759760000000003,0.008948066000000001,8.048,0,0
-0.02685586,0.0015804739999999997,0.003033164000000003,0.011350884000000002,-0.00026941400000000037,8.049,0,0
-0.023094404000000002,0.0033482656,0.021421664000000003,0.00936867,-0.008447394,8.05,0,0
-0.01555043,0.0036445635999999997,0.033756084000000006,0.0076409979999999995,-0.013419982,8.051,0,0
-0.00720672,0.0035216236,0.03730498,0.004373606,-0.015979996,8.052,0,0
0.0006478600000000001,0.0050939916,0.029818820000000006,-0.0005064940000000006,-0.014452506,8.053,0,0
0.00930116,0.0074212376,0.015072520000000004,-0.005398658000000001,-0.006896385999999999,8.054,0,0
0.016700644,0.008968566,0.0013155999999999997,-0.008639844,0.005415333999999999,8.055,0,0
0.021395290000000004,0.008558312,-0.0068979440000000005,-0.01003938,0.019040394000000002,8.056,0,0
0.023676980000000004,0.007346142000000001,-0.00818463,-0.009222366000000003,0.029863854000000002,8.057,0,0
0.02208692,0.005841818,-0.00335185,-0.005113972,0.03446516,8.058,0,0
0.016415376000000002,0.0031971560000000005,0.0038836900000000004,0.0010583080000000004,0.031998490000000004,8.059,0,0
0.008849488,-0.000600766,0.009252052,0.0037068480000000004,0.022927464,8.06,0,0
0.0014520680000000004,-0.005065372,0.010779812000000001,0.0013236760000000002,0.007897924,8.061,0,0
-0.004469750000000001,-0.008653542,0.0060112180000000005,-0.0022950659999999997,-0.008593596,8.062,0,0
-0.006233746000000001,-0.010954100000000001,-0.0018598019999999998,-0.006359180000000001,-0.021651636000000002,8.063,0,0
-0.004363922,-0.011764122000000002,-0.005792778,-0.0124324,-0.033167206,8.064,0,0
-0.0008022739999999995,-0.010591390000000003,-0.007091474,-0.019513020000000002,-0.046023180000000004,8.065,0,0
0.005914666000000001,-0.007783798,-0.00732272,-0.025409680000000004,-0.05805930000000001,8.066,0,0
0.014730964000000003,-0.0052604868,-0.0034240739999999996,-0.030660439999999997,-0.06570828000000001,8.067,0,0
0.021127000000000003,-0.004486562800000001,0.0006287999999999999,-0.03493328,-0.06848358,8.068,0,0
0.024025320000000003,-0.005398678800000001,0.0013218772,-0.03547134,-0.06492534000000001,8.069,0,0
0.024169580000000003,-0.0059177928,0.0031365712,-0.03092946,-0.05216657000000001,8.07,0,0
0.020952966000000003,-0.004827702800000001,0.0043421832,-0.021775341999999996,-0.03274943,8.071,0,0
0.017183666000000004,-0.0035633880000000002,0.0027868512000000004,-0.011123151999999999,-0.013441430000000002,8.072,0,0
0.015022306000000003,-0.0012858159999999997,0.0027841912,-0.003318848,0.0005837499999999996,8.073,0,0
0.013147325999999999,0.0019931280000000003,0.0032037800000000003,0.002244462,0.009872090000000002,8.074,0,0
0.011201724,0.004876794000000001,0.0006802260000000001,0.006825302,0.01463526,8.075,0,0
0.007842972,0.006356926000000001,-0.000116751,0.009537024,0.01459248,8.076,0,0
0.0012426719999999994,0.006135258,0.0024034670000000003,0.011900874000000002,0.01349198,8.077,0,0
-0.007335328,0.003916396,0.002904673,0.015052590000000001,0.01333846,8.078,0,0
-0.015267768000000001,0.00011949200000000012,0.0001936230000000004,0.01949564,0.013387820000000002,8.079,0,0
-0.021209765999999998,-0.003605072,-0.0032698230000000003,0.024849260000000005,0.013889080000000002,8.08,0,0
-0.0249691,-0.007594806000000001,-0.0058073280000000005,0.02929932,0.015897380000000003,8.081,0,0
-0.026802780000000002,-0.011189844000000001,-0.00918822,0.03242824,0.01955288,8.082,0,0
-0.026776840000000003,-0.012011082,-0.014121579999999998,0.03441628000000001,0.02499274,8.083,0,0
-0.0241339,-0.008437998,-0.01862606,0.033810700000000006,0.031355440000000005,8.084,0,0
-0.019231561999999997,-0.0029002779999999996,-0.021750520000000002,0.029839760000000003,0.036963140000000005,8.085,0,0
-0.013667877399999999,0.0019071820000000003,-0.02322536,0.022090189240000002,0.03896128,8.086,0,0
-0.007525949399999999,0.006492602,-0.020836511999999998,0.009448929240000003,0.033873354,8.087,0,0
-0.0016136074000000005,0.011958224,-0.011176951999999997,-0.00470633076,0.024250188000000002,8.088,0,0
0.0027053346000000004,0.0175531,0.005175908000000002,-0.01716481076,0.014404428,8.089,0,0
0.0060344166,0.019986499999999997,0.020665808,-0.02776885076,0.005056222000000001,8.09,0,0
0.008700352,0.02029744,0.027124488000000002,-0.03451668000000001,-0.001442998,8.091,0,0
0.010008004000000001,0.02049788,0.025574189999999997,-0.034711540000000006,-0.0038603080000000002,8.092,0,0
0.010155464,0.0168423646,0.019119688,-0.029371340000000003,-0.005491542,8.093,0,0
0.008609745799999999,0.0074774246,0.00855932,-0.022251362000000004,-0.007030182000000001,8.094,0,0
0.0042104718,-0.0024483354000000004,-0.0007563500000000003,-0.014245628000000003,-0.0070265119999999995,8.095,0,0
-0.0009161282000000003,-0.0091118754,-0.0028896300000000002,-0.0047797080000000014,-0.0055571660000000005,8.096,0,0
-0.005092028200000001,-0.0125190174,0.0007450600000000001,0.004412652,-0.0012577099999999996,8.097,0,0
-0.0081392622,-0.01266451,0.004067942000000001,0.011463892,0.0061230300000000015,8.098,0,0
-0.008789196,-0.010113808000000002,0.005915592000000001,0.017653914,0.013316030000000001,8.099,0,0
-0.007025022800000002,-0.0058063884,0.008856202,0.0226323,0.016213966,8.1,0,0
-0.004883830800000001,-0.0026816424000000003,0.009180092,0.02278054,0.01246146,8.101,0,0
-0.0037583088,-0.0025933344000000002,0.0026772119999999996,0.018046193999999998,0.002016360000000001,8.102,0,0
