bandpass 1,bandpass 2,bandpass 3,bandpass 4,bandpass 5,time,onset,mark
-0.0021601744,-0.00050213284,0.0003270783999999999,9.41572e-05,0.0015076458,2.162,1,1
-0.0009359744000000001,0.00030374716000000006,0.0005145821999999999,1.5090000000000006e-05,0.0019623138,2.163,0,0
0.0012300456000000001,0.0016004591600000003,-0.00010554980000000009,-0.000308348,0.0031187538000000004,2.164,0,0
0.004074945599999999,0.0022319450000000004,-0.0013013238000000001,-0.0007096756,0.0038872940000000003,2.165,0,0
0.006115435600000001,0.002916875,-0.00114065618,-0.000521012,0.0029527436,2.166,0,0
0.006723344000000001,0.0029300998,-0.0014572941800000002,-0.00045944419999999995,0.0026850376000000006,2.167,0,0
0.005326784000000001,0.0006887817999999999,-0.00219885198,-0.00042616739999999995,0.0024183470000000004,2.168,0,0
0.00269004,-0.0020636822,-0.00211000398,0.0004449006,0.0005756649999999999,2.169,0,0
0.0009637863999999999,-0.0031499922,-0.00297271798,0.0011644682,-0.001055981,2.17,0,0
0.0003787104000000001,-0.0037439422,-0.005111576,0.0013536374,-0.0014807046,2.171,0,0
8.413040000000005e-05,-0.004456130000000001,-0.005803580000000001,0.0015651816,-0.0023561026,2.172,0,0
0.0007099224,-0.0035083799999999997,-0.004977820000000001,0.0017880649999999997,-0.003263028,2.173,0,0
0.0017604864,-0.001809916,-0.003946956,0.0013666363999999998,-0.0028209740000000004,2.174,0,0
0.001672976,-0.001150696,-0.0011125460000000003,0.0009106792,-0.0021995478,2.175,0,0
0.0005610580000000001,-0.001128594,0.003210014,0.0009339232000000001,-0.0017579128000000002,2.176,0,0
-0.0010629900000000002,-0.001387026,0.004241252200000001,0.0010345552,-0.0009389268000000001,2.177,0,0
-0.0025272080000000004,-0.001655872,0.0012422862000000005,0.0014217502000000001,-1.9290799999999988e-05,2.178,0,0
-0.003390174,-0.001608976,-0.0015129137999999997,0.0017269908000000001,0.0002538288,2.179,0,0
-0.004049588000000001,-0.001061014,-0.0041763198,0.0018372616000000002,0.0006497846,2.18,0,0
-0.003881052,-6.526000000000004e-05,-0.007226229800000001,0.0016278522,0.0012708176000000002,2.181,0,0
-0.0028662060000000005,0.001218874,-0.005917908,0.0009172642,0.0010012844000000002,2.182,0,0
-0.002351312,0.00224793,-0.0011501679999999996,0.0002913628,0.0004104264000000001,2.183,0,0
-0.0021911024,0.002544266,0.0018145980000000006,-0.000324791,0.00021410340000000005,2.184,0,0
-0.0012472504,0.002330098,0.003656728,-0.0008803986,-0.00030304059999999996,2.185,0,0
-0.0003426924,0.0020604,0.005421210000000001,-0.0010351962,-0.0013146645999999999,2.186,0,0
7.516113999999992e-05,0.00203062,0.00478746,-0.0013021602000000002,-0.0014375514000000002,2.187,0,0
0.00138008914,0.002300808,0.0030949940000000002,-0.0016290188000000001,-0.0010897112,2.188,0,0
0.00256945954,0.002590038,0.0029276920000000004,-0.0012691656000000003,-0.0012840158,2.189,0,0
0.0026239915399999996,0.00203661946,0.003032828,-0.0010963226,-0.0011985983999999999,2.19,0,0
0.0026699095400000003,0.0007458814599999997,0.0026697780000000003,-0.0014158036,-0.0005534703999999999,2.191,0,0
0.0026538720000000003,-0.0003197785400000002,0.00243011,-0.0010880856000000001,-0.0002580988,2.192,0,0
0.0016167260000000002,-0.0011171245400000002,0.0019617716000000004,-0.0007041336,-0.00010097299999999993,2.193,0,0
0.000535632,-0.00177129854,0.0007972896000000003,-0.0006199530000000001,0.000783863,2.194,0,0
0.0003283419999999999,-0.0019542626000000002,-0.0006693424,-0.00014536800000000016,0.0017193336000000002,2.195,0,0
-3.1431999999999986e-05,-0.0014551206,-0.0009401263999999998,0.000550686,0.0017479996,2.196,0,0
-0.0005219680000000001,-0.0008263028,-0.0005155044,0.000945891,0.0018749539999999999,2.197,0,0
-0.0004570236000000002,-0.0009754288,-0.0005533013999999999,0.0006867230000000001,0.0022304819999999998,2.198,0,0
-0.0005760734000000002,-0.0016063588,5.8836599999999965e-05,0.00021473299999999996,0.0016642313999999999,2.199,0,0
-0.0012413754000000002,-0.0020931022,0.0007087383999999999,-7.8461e-05,0.0010344866,2.2,0,0
-0.0015014454000000003,-0.0026703442,1.740039999999991e-05,-0.0004708488,0.0009392522,2.201,0,0
-0.0013961854,-0.0031676639999999997,-0.0007597140000000001,-0.0007060276000000001,0.00019361820000000007,2.202,0,0
-0.0016696918,-0.0024671300000000005,-0.0004763892000000001,-0.0006312086000000001,-0.0009136897999999999,2.203,0,0
-0.001954402,-0.0012245220000000002,-0.0005438460000000002,-0.0006375926,-0.0009276556,2.204,0,0
-0.001794438,3.520600000000019e-05,-0.0007475738000000001,-0.0005529566000000002,-0.0012528342,2.205,0,0
-0.0019894300000000004,0.0019146140000000002,-0.00020395000000000005,-0.00018191880000000004,-0.0018823238000000003,2.206,0,0
-0.0022808280000000004,0.00384131,7.894579999999997e-05,0.00012449840000000004,-0.0013037850000000002,2.207,0,0
-0.0019252186,0.004757944,6.0320799999999966e-05,0.0005954894000000001,-0.0007085948000000001,2.208,0,0
-0.0016200584,0.004445992,0.0003821116,0.0012865894000000002,-0.0010160024,2.209,0,0
-0.0014567594,0.00424546,0.0010954136000000001,0.0014229294000000002,-0.001223937,2.21,0,0
-0.0007291174000000001,0.0038032720000000003,0.0010474920000000001,0.0011353594000000002,-0.0006917116,2.211,0,0
0.00046800460000000004,0.0026872560000000003,0.0008567786000000001,0.0011229932000000001,-0.0005668644,2.212,0,0
0.0011855832,0.0013085578,0.0013216842000000001,0.0005469012000000001,2.4465400000000127e-05,2.213,0,0
0.0016280690000000002,0.00026824780000000005,0.0009681506000000001,-0.0005667968000000001,0.0012895894,2.214,0,0
0.0019084968000000002,1.920420000000003e-05,-0.0006900834,-0.0008581326000000002,0.0018147528000000003,2.215,0,0
0.0018948728000000002,-0.0001347177999999999,-0.0019833776,-0.0010771306000000001,0.0018177140000000002,2.216,0,0
0.0018808448000000003,-0.00031831179999999994,-0.0027999996000000003,-0.0016393578000000002,0.0017187092000000002,2.217,0,0
0.0014236834000000002,-0.0009491256000000001,-0.0035818956,-0.0014352998000000002,0.0012823384,2.218,0,0
0.0011290590000000002,-0.0016156156000000001,-0.0018989100000000002,-0.0008094898000000002,5.755039999999999e-05,2.219,0,0
0.0011482126000000002,-0.001963042,0.000785586,-0.0006525254000000002,-0.000679235,2.22,0,0
0.0008478522,-0.0024228042,0.0020217846000000006,-0.00026556700000000003,-0.0007279756000000002,2.221,0,0
0.0002808672,-0.0029127822,0.0038318986000000005,0.00034871100000000003,-0.0012057968000000001,2.222,0,0
-0.00044931340000000004,-0.0029210042,0.005525970600000001,0.0005823914000000001,-0.0020201180000000004,2.223,0,0
-0.001024825,-0.0028388622000000002,0.004076642600000001,0.0008080814000000001,-0.0018685246,2.224,0,0
-0.0015872474,-0.0031572802000000002,0.0022056546000000002,0.0010837248000000002,-0.001117522,2.225,0,0
-0.0016239532,-0.0024028780000000002,0.002549712,0.0011023048,-0.001327896,2.226,0,0
-0.0004889422000000001,-0.0003937019999999999,0.0014092901999999997,0.0007104182000000001,-0.000637334,2.227,0,0
0.0008404118,0.002064552,-0.0013772738000000003,0.0003388738,0.000758384,2.228,0,0
0.0010881778,0.004066266,-0.0021891758,0.0003501258,0.000776443,2.229,0,0
0.0008257217999999999,0.004345496,-0.0016821020000000002,0.00047352980000000004,0.0008687864,2.23,0,0
-1.1280000000000881e-06,0.0027494159999999993,-0.0018981848000000003,0.0002373504,0.0015499304,2.231,0,0
-0.002086044,-0.0001589920000000006,-0.001250771,0.00025964660000000003,0.0011095932,2.232,0,0
-0.0031943640000000003,-0.002320046,0.000509703,0.0004193564000000001,0.00048746780000000006,2.233,0,0
-0.0030700676000000007,-0.0027454719999999997,0.000695945,-0.0004353036000000001,0.0010311274,2.234,0,0
-0.0025294690000000003,-0.002267172,-0.0001505568,-0.0013977436,0.0006772914,2.235,0,0
-0.00044624300000000003,-0.0005270739999999999,-0.000742906,-0.0015107896000000002,-0.00047072259999999996,2.236,0,0
0.0019225490000000002,0.002128642,-0.00173996,-0.0013937026000000001,-0.0005185388,2.237,0,0
0.0031158450000000003,0.0034969780000000004,-0.0023960012000000005,-0.0012783224000000003,-0.0004610004,2.238,0,0
0.0041982726000000005,0.0033376100000000004,-0.0014901072000000003,-0.0009113164,-0.0012451763999999999,2.239,0,0
0.004885856,0.0028279060000000007,-0.000830585,-0.00061678,-0.0013162199999999999,2.24,0,0
0.004101376,0.0004076339999999998,-0.0018407030000000002,-0.000491165,-0.0005035574,2.241,0,0
0.0029887480000000003,-0.0029168680000000004,-0.002797613,-0.00023528960000000006,-0.0007096919999999999,2.242,0,0
0.0022256088000000003,-0.004426778000000001,-0.0034048698,0.00023692039999999998,-0.000978311,2.243,0,0
0.0013091488,-0.004961048,-0.0041090918,0.0005829098,-0.00020386899999999997,2.244,0,0
0.0003096228,-0.0048558084,-0.0025070859999999995,0.0007633014000000001,0.00034838860000000003,2.245,0,0
-0.0005005692,-0.0031462255000000005,0.0015956800000000001,0.0010877494000000002,0.0003809144,2.246,0,0
-0.0009674532000000001,-0.0010133955800000001,0.004099800000000001,0.0012341474000000002,0.0011596784,2.247,0,0
-0.0011198644,-0.00085126758,0.004392970000000001,0.0010419934,0.0019044604,2.248,0,0
-0.0011990796,-0.00133692158,0.004454068000000001,0.0010055862,0.0015162304,2.249,0,0
-0.0008085542,-0.0010428395800000001,0.0031842100000000003,0.0011971054,0.0013186946,2.25,0,0
-0.0001588982,-0.00055978248,0.0005682426,0.0012788914,0.0012728601999999999,2.251,0,0
-6.6058e-05,0.0001734375999999999,-0.0007419294,0.0011894794,0.0005422561999999999,2.252,0,0
-0.00032749360000000003,0.0014651196000000002,-0.0006212574,0.000959176,-0.0002938178,2.253,0,0
-0.0003654672,0.0033588216000000003,-0.0014542354,0.0007058478,-0.00027963854,2.254,0,0
-0.0007834506,0.0039598820000000005,-0.0033114034000000002,0.00045392039999999994,-0.00037962714,2.255,0,0
-0.0020329146000000005,0.0027651,-0.004774922,2.9751200000000007e-05,-0.0008324511400000001,2.256,0,0
-0.0026518508,0.0021778862,-0.005883316,-0.00044011700000000007,-0.00055213414,2.257,0,0
-0.0023594159999999996,0.0019543182,-0.005127062,-0.0005416636,-0.00025638314000000004,2.258,0,0
-0.0022471472,0.0004372362000000001,-0.0012504519999999991,-0.00045084020000000005,-0.0005490924000000001,2.259,0,0
-0.0020653512,-0.0003953058,0.002497496,-0.0005372372,-0.0005008626,2.26,0,0
-0.0010461772000000002,0.00014199560000000005,0.004286796000000001,-0.0009351260000000001,0.0005214034000000001,2.261,0,0
-0.00017969620000000006,-1.1973999999999337e-06,0.005859509200000001,-0.0011228618,0.0010587564,2.262,0,0
-0.00011400940000000004,0.00013271660000000005,0.0056468668000000015,-0.0010747574,0.0013382614,2.263,0,0
0.00030849459999999997,0.0011501646,0.0022395388,-0.0012292788000000002,0.0022904794000000003,2.264,0,0
0.0010447266,0.0013029550000000002,-0.0008071352000000001,-0.0009846438000000002,0.0023755068,2.265,0,0
0.0012891346,0.0014601484500000002,-0.0018050112,-0.0002973438000000001,0.0012868008000000001,2.266,0,0
0.0017232496,0.00150165265,-0.0026407584,0.0003576862,0.0004318748000000001,2.267,0,0
0.002395396,0.0001793646499999999,-0.0034889160000000008,0.0007105878,-0.00019285520000000004,2.268,0,0
0.002320552,-0.0008266253500000001,-0.0028869080000000005,0.0008753804000000001,-0.0013982672,2.269,0,0
0.0022661580000000003,-0.00103738795,-0.0017560600000000003,0.0005765466,-0.0018531900000000002,2.27,0,0
0.002451548,-0.0015752268000000002,-0.001438068,-1.4983399999999962e-05,-0.00081737,2.271,0,0
0.002159434,-0.0023569062,-0.000797848,-0.0005414054,-9.023399999999991e-05,2.272,0,0
0.0015624999999999999,-0.0023082422000000003,0.00065153,-0.0010912902,4.201239999999999e-05,2.273,0,0
0.0010329232,-0.0022371942000000006,0.00125334,-0.0012660248,0.0009378323999999999,2.274,0,0
0.0003282492000000001,-0.002317128,0.0015075460000000002,-0.00104536096,0.0016710064000000002,2.275,0,0
-0.0008240288000000001,-0.0013764720000000001,0.002993882,-0.00054536816,0.0012289902000000002,2.276,0,0
-0.0016735788,0.0005275120000000001,0.003889112,-0.00010393576000000001,0.0010832522000000001,2.277,0,0
-0.0020775748000000003,0.002486528,0.0031882632000000003,0.00037221304,0.0013138674000000002,2.278,0,0
-0.0024264660000000004,0.0037230480000000005,0.0026947584000000004,0.00082001024,0.0007917350000000002,2.279,0,0
-0.002727352,0.004604948000000001,0.0023177766000000003,0.0007462246,0.0003453632000000001,2.28,0,0
-0.0021298546,0.0037593440000000013,0.0006032506,0.00031061380000000006,0.00036862940000000007,2.281,0,0
-0.0010663326000000003,0.0014045440000000002,-0.0012643974,3.411560000000001e-05,-9.48066e-05,2.282,0,0
-0.00028314460000000024,-3.5220000000001054e-06,-0.0023105905999999997,-5.071240000000004e-05,-0.0006742622,2.283,0,0
0.0005361034,-0.0007071639999999999,-0.0033042958000000003,-0.00016155140000000004,-0.0010122118000000001,2.284,0,0
0.0008910374000000002,-0.0012656676,-0.003606468,-4.6645200000000026e-05,-0.0017535759999999997,2.285,0,0
0.00071068,-0.0004382656,-0.002485832,0.00024373680000000001,-0.0026124959999999997,2.286,0,0
6.250659999999998e-05,0.0010960464000000002,-0.00019234000000000005,0.00025960039999999994,-0.00283885,2.287,0,0
-0.0005209710000000001,0.0012917524,0.0023929240000000003,0.0001825802,-0.002798886,2.288,0,0
-0.0007986374800000001,0.00045697840000000006,0.004272556,0.000352558,-0.0031967720000000005,2.289,0,0
-0.00054928496,-0.0004498579999999999,0.005046444,0.000367579,-0.0031331220000000003,2.29,0,0
-0.00033805996,-0.001770252,0.004508952600000001,0.000664173,-0.002251506,2.291,0,0
-0.00072198656,-0.0034496500000000003,0.0028919925999999997,0.0012309212,-0.0015844850000000005,2.292,0,0
-0.0008701109600000001,-0.004088998,0.0006170405999999998,0.0012095658000000002,-0.0008789170000000001,2.293,0,0
-0.0005746084799999999,-0.0036544620000000002,-0.0013666834000000002,0.0008739474000000001,0.000724093,2.294,0,0
0.0003150710000000001,-0.002431688,-0.0028769014,0.0005654480000000001,0.002278383,2.295,0,0
0.001365126,-0.0005322039999999999,-0.003577848,7.4504e-05,0.002508609,2.296,0,0
0.00194023662,0.001128614,-0.003496854,-0.0005041592000000001,0.0029471460000000003,2.297,0,0
0.0019127306200000002,0.0018179400000000003,-0.003432686,-0.0006548256,0.003758992,2.298,0,0
0.0014217310200000002,0.0018061238000000002,-0.0026304483999999998,-0.00040863340000000007,0.0029444214,2.299,0,0
0.00018007302000000002,0.0011820838000000003,-0.0015019573999999999,-3.047020000000004e-05,0.0014583654000000004,2.3,0,0
-0.00118497098,0.00019793180000000001,-0.0009134510000000001,0.0001676598,0.0007837754000000003,2.301,0,0
-0.0020154056000000003,0.00026030979999999997,-0.0004733010000000001,0.00012974199999999996,-0.0006444265999999999,2.302,0,0
-0.0029106296,0.0006647478,8.601259999999999e-05,-9.701400000000003e-05,-0.0025165346,2.303,0,0
-0.003202776,0.0013244,-7.586500000000005e-05,-0.0005541138,-0.002401684164,2.304,0,0
-0.00306652,0.002570228,4.209999999999934e-06,-0.0008466968,-0.001878085564,2.305,0,0
-0.003303978,0.0036711700000000005,0.0012731195999999998,-0.0009740736000000001,-0.002041041564,2.306,0,0
-0.0022699600000000006,0.004544758,0.0021833456,-0.000888569,-0.0012124943640000002,2.307,0,0
-0.00010822799999999993,0.00467459,0.002893822,-0.0005300002,-0.00017764636400000004,2.308,0,0
0.000840124,0.0042825422,0.003677198,1.6831800000000004e-05,-0.0002850932,2.309,0,0
0.0007063959999999999,0.0030126322000000004,0.0037985140000000002,0.0005350936,6.786820000000002e-05,2.31,0,0
0.0015069702000000001,4.2810199999999965e-05,0.0025978400000000006,0.0007330088,0.0014471682000000003,2.311,0,0
0.0033800682,-0.0035920598,0.00061706,0.0006551412,0.0020195590000000006,2.312,0,0
0.0046095042000000004,-0.006021423800000001,6.547060000000002e-05,0.0004950042,0.0022354830000000003,2.313,0,0
0.0049749802000000004,-0.007739258000000001,0.0009954586,0.0002233246,0.0027854380000000003,2.314,0,0
0.0053667998,-0.008775928,0.0008783066000000001,-0.00022551920000000002,0.002391460800000001,2.315,0,0
0.0049192896000000005,-0.007296832000000001,0.0006996686000000003,-0.00016912060000000002,0.0011483248,2.316,0,0
0.0021189056000000006,-0.004734676000000001,0.0017383196000000003,0.0001760914,0.000566208,2.317,0,0
-0.0012758784,-0.002712242,0.0012184610000000001,0.0002946866,0.00016701740000000005,2.318,0,0
-0.0034259504000000007,-0.0010083628,0.00011078899999999992,0.0004275788,-0.0008448706,2.319,0,0
-0.0035332768000000004,0.00014548659999999997,0.0004283429999999999,0.0006386112,-0.0011127334,2.32,0,0
-0.0019760708,-0.00010163339999999987,0.0003007989999999999,0.0006764186,-0.0011096514,2.321,0,0
-0.0005486967999999998,-0.0012236334000000001,-0.0005029620000000001,0.0002606868,-0.0018470046,2.322,0,0
0.0008042745999999999,-0.0012642214,-0.0014298280000000002,-0.0002128422,-0.00245607,2.323,0,0
0.0019773539999999997,-0.0003451846000000001,-0.0033745420000000003,-0.0004075194,-0.002192378,2.324,0,0
0.0015231868000000004,0.00077968,-0.0052944260000000005,-0.000548809,-0.0017763392,2.325,0,0
-0.0005521592,0.002527298,-0.006168494,-0.0008393686,-0.0016124949999999998,2.326,0,0
-0.0020336112,0.00459288,-0.006468096,-0.0009666648000000002,-0.0006807590000000001,2.327,0,0
-0.0026284626,0.005567904,-0.00589947,-0.0008945288,0.0003898050000000001,2.328,0,0
-0.0031308119999999997,0.005175,-0.004442852,-0.0010836402,0.0007232332000000001,2.329,0,0
-0.003260648,0.0042040336199999995,-0.002342218,-0.0014970472000000001,0.0006891908200000001,2.33,0,0
-0.00266534,0.0032019322200000006,-0.0001513920000000002,-0.00175647,0.0008666738200000001,2.331,0,0
-0.0018076704000000003,0.002091300420000001,0.0015343619999999998,-0.0019011739999999998,0.00047238822,2.332,0,0
-0.001212865,0.00062587182,0.0030992400000000005,-0.001959356,-0.00032060978000000005,2.333,0,0
-0.00017574300000000007,-0.00027862618000000007,0.003910694,-0.0018244772,-0.0004944677800000001,2.334,0,0
0.0010186930000000002,-0.0004331498,0.0030105087999999997,-0.0012938314000000002,-0.0010733542000000002,2.335,0,0
0.001866983,-0.0007226444000000001,0.0016679567999999996,-0.0004658974,-0.0017094334000000004,2.336,0,0
0.0025462894,-0.0009841446000000002,0.0002116227999999999,5.955599999999994e-05,-0.0015627494000000003,2.337,0,0
0.0030030740000000005,-0.000928609,-0.0009005212000000001,0.00047039139999999994,-0.0011198240000000002,2.338,0,0
0.0032854,-0.001179911,0.00021591680000000008,0.0008089982,-0.0009475064,2.339,0,0
0.0028710032,-0.0018216130000000001,0.0017772920000000002,0.0009141564000000001,-0.00047649020000000005,2.34,0,0
0.0018504352000000002,-0.002056257,0.001477218,0.0007211483999999999,0.00036671779999999997,2.341,0,0
0.0011832142000000002,-0.0023081250000000003,0.001437282,0.00044142499999999996,0.0003945354,2.342,0,0
0.0002724601999999999,-0.0027152940000000005,0.0016785764000000006,0.0004040535999999999,0.00015097199999999998,2.343,0,0
-0.0008574978000000001,-0.0020597604,-4.977959999999994e-05,0.0003569882,0.0007410242,2.344,0,0
-0.0010670862000000001,-0.0007056923999999999,-0.0008319575999999999,0.0002531982,0.0013860360000000002,2.345,0,0
-0.0013045842,0.00014659759999999993,0.0007287104,0.0001243384,0.001418556,2.346,0,0
-0.0021193212,0.0008892716000000001,0.0014283616,0.00021269620000000003,0.0018403000000000002,2.347,0,0
-0.0018561113399999996,0.0018440516000000002,0.0011673311999999998,0.000330397,0.0020443232000000003,2.348,0,0
-0.0014140173399999998,0.002226594,0.001354362,0.0004151688,0.0011129572,2.349,0,0
-0.0017920421399999999,0.002178168,0.00134396,0.0003596266,0.0005117852,2.35,0,0
-0.00115284628,0.002168526,0.001430888,-2.1689600000000017e-05,0.0004433032,2.351,0,0
-0.00024714547999999997,0.0019922354000000003,0.0023135288,1.4389800000000002e-05,-0.00017414260000000006,2.352,0,0
-0.00038635774,0.0016100640000000002,0.0032444808000000004,5.8376400000000026e-05,-0.0004392464000000001,2.353,0,0
-0.00061542974,0.0016280180000000002,0.002756408,-3.321799999999995e-05,0.0003802076,2.354,0,0
-0.00033008334000000005,0.0024900060000000003,0.0005359460000000003,0.00036142220000000004,0.0005532584,2.355,0,0
0.00014873679999999995,0.003959612,-0.001819682,0.0009751042,-0.00019054360000000004,2.356,0,0
0.000510306,0.0047858246,-0.00355271,0.0012069726000000002,0.00016014719999999993,2.357,0,0
0.0012366484,0.004648980600000001,-0.005061322,0.0009905658000000002,0.0008207098,2.358,0,0
0.0020408264,0.003849990600000001,-0.0049062172,0.0007203526,5.1357800000000086e-05,2.359,0,0
0.0022115803599999997,0.0015770806000000002,-0.0026376692,0.00040648120000000005,-5.424705999999995e-05,2.36,0,0
0.00215582036,-0.0011324714,-0.0016292752,0.0003142952,0.0014869329400000002,2.361,0,0
0.00203089236,-0.0034011074,-0.0014187292000000002,0.00039684759999999996,0.0018803039400000004,2.362,0,0
0.0015386209599999997,-0.00498358,-3.5265200000000104e-05,0.0005523508,0.0014288907400000002,2.363,0,0
0.0009335913599999999,-0.005575814,0.0010389800000000001,0.0008796636,0.00205350274,2.364,0,0
0.0007549572000000001,-0.00625818,0.00175188,0.001131185,0.0019663164,2.365,0,0
0.00033804361999999996,-0.006936508000000001,0.003245746,0.0011290590000000002,0.0004593624000000001,2.366,0,0
-0.00049025238,-0.00622942,0.004465708,0.0009778846,-0.0001284538,2.367,0,0
-0.0009754629800000001,-0.0046202474,0.0041040434,0.0008304616000000002,-0.0002438776,2.368,0,0
-0.00108431738,-0.0030748614,0.0028135373999999998,0.0006678911200000001,-0.0015595756,2.369,0,0
-0.0010654307800000002,-0.0009930254,0.0007504093999999999,0.0005883051200000001,-0.0022508552000000005,2.37,0,0
-0.0012622116000000003,0.0007465846,-0.0012640646,0.00026112292000000004,-0.0019162374,2.371,0,0
-0.0012643576000000002,0.0016891066000000003,-0.0024790186,-0.00023264267999999997,-0.0023484852,2.372,0,0
-0.0013116536,0.002005172,-0.0024668554,-0.00026224968,-0.0027858222000000004,2.373,0,0
-0.0016533476,0.00101044,-0.0012489974,-0.00030363619999999994,-0.0016335254000000002,2.374,0,0
-0.0019599904,0.000285228,-0.00032003139999999995,-0.0006277302000000001,-0.0008117996000000002,2.375,0,0
-0.002073964,0.00072031,0.00033855660000000015,-0.00028667000000000005,-0.0012293274000000002,2.376,0,0
-0.0012673559999999999,0.001630716,0.0005148286000000001,0.000484166,-0.0003796454000000001,2.377,0,0
9.124799999999994e-05,0.0028726000000000003,-0.000686964,0.0008034562,0.0007083966,2.378,0,0
0.0009279220000000001,0.00436176,-0.002300456,0.0008952964,0.0003753804,2.379,0,0
0.0012280124000000003,0.0054600840000000005,-0.0034104240000000004,0.0008078318,0.0005543446,2.38,0,0
0.0016668828,0.00479534,-0.00454983,0.0002653618,0.0017570566,2.381,0,0
0.001395306,0.00256276,-0.004807952000000001,-0.0004542882,0.0014367572000000002,2.382,0,0
0.00044997639999999996,0.0003068140000000001,-0.0032402560000000004,-0.0010156582,0.0004066291999999999,2.383,0,0
0.0003925184,-0.001480788,-0.0015851320000000004,-0.0014672606,0.0008803026,2.384,0,0
0.0005108037999999999,-0.0032750599999999998,-0.0003418080000000002,-0.001583926,0.0010568966,2.385,0,0
0.00033864960000000004,-0.003964666,0.001418866,-0.0011506455999999998,0.0002829826000000001,2.386,0,0
0.0005660044,-0.003400354,0.002642684,-0.0009756202,0.0002858116000000001,2.387,0,0
0.0006943213999999999,-0.003622108,0.002546902,-0.0010146582,0.0007652522000000002,2.388,0,0
4.950339999999992e-05,-0.004598302,0.002503358,-0.00062718545,0.00027478760000000007,2.389,0,0
-0.00018540640000000008,-0.004935994,0.002668962,-0.00064080145,-0.0003216326,2.39,0,0
0.00013735339999999997,-0.004684654,0.001959678,-0.00102165785,-0.00032486040000000003,2.391,0,0
-0.00012457600000000002,-0.004344255,0.0014082084000000001,-0.0009256440500000001,-0.0004581822,2.392,0,0
-0.00047081140000000004,-0.0032050788,0.0016387244000000002,-0.0007151460500000001,-0.0007167708,2.393,0,0
-0.0004500174,-0.0009549987999999999,0.0010397244,-0.0006297570000000001,-0.0006890568,2.394,0,0
-0.0006587954,0.0018632712,-8.441959999999995e-05,-0.00020452800000000004,-0.0006761318,2.395,0,0
-0.0014060594,0.0049556812,-0.00033868959999999997,0.00030952800000000005,-0.00084443,2.396,0,0
-0.0016955152000000002,0.0077447562,-0.0008077659999999999,0.0006833828,-0.0004508897999999999,2.397,0,0
-0.0020886612000000004,0.008955336000000001,-0.001898132,0.0009353082000000002,1.1374200000000044e-05,2.398,0,0
-0.0026145532000000004,0.008403645999999999,-0.002412182,0.0011641284,-0.00023648319999999997,2.399,0,0
-0.0018223312000000005,0.005905928,-0.002237022,0.0012422974,-0.00010319259999999996,2.4,0,0
-0.0009617591999999999,0.0022080620000000002,-0.0015962486000000002,0.0011380186,0.0005308314000000001,2.401,0,0
-0.0008953766000000001,-0.0003447776000000001,-0.0005739406000000002,0.0013110046,3.596220000000005e-05,2.402,0,0
-0.0003131760000000001,-0.0016569578,0.0008215474000000001,0.0011885734000000002,-0.0006609077999999999,2.403,0,0
0.0007378592000000001,-0.0027968638000000004,0.0020593454,0.0007456386000000001,0.00019171420000000002,2.404,0,0
0.0008584812000000001,-0.0034001198000000003,0.0023428492,0.0006108832000000001,0.0005232048,2.405,0,0
0.0006304240000000001,-0.0036443078,0.0021785754000000004,0.00045983360000000003,-0.0004558012000000001,2.406,0,0
0.0005709372000000002,-0.0045008782,0.0013084914000000003,-0.0001048092,-0.00048664400000000005,2.407,0,0
0.0007221928000000001,-0.004769744,-0.0010223306,-6.626456000000001e-05,-0.00010937580000000009,2.408,0,0
0.0006159348000000001,-0.0038602252,-0.0027513026000000004,0.00021979864,-0.0008534618000000001,2.409,0,0
3.4688800000000006e-05,-0.0022655802,-0.0027195196,-5.897116000000001e-05,-0.0011920190000000003,2.41,0,0
0.001059658,-0.0006875382,-0.0023344692,-0.00026864776,-0.00022257300000000005,2.411,0,0
0.0028732454,-0.00012476360000000003,-0.0009075931999999998,-0.00037913696000000004,0.0002922290000000001,2.412,0,0
0.0034426632,6.15144e-05,0.0015668968,-0.0004513004,0.0006247168,2.413,0,0
0.003810102,0.0003611496,0.0029819767999999997,-0.0009361768000000001,0.0014861508000000002,2.414,0,0
0.004315058,9.768640000000001e-05,0.003628494,-0.0011217236,0.0018309200000000002,2.415,0,0
0.0031801636000000004,-0.00010012499999999998,0.004178098,-0.0007947122,0.0013977477999999998,2.416,0,0
0.0013194216,0.0005857844,0.003547828,-0.0005789362,0.000998534,2.417,0,0
0.0003607355999999999,0.0008767744,0.0020939360000000002,-0.0005930456,0.0008199092000000001,2.418,0,0
-0.00020699740000000002,0.0008079414000000001,0.0013136065999999997,-0.00041064620000000004,0.00019993740000000002,2.419,0,0
-0.0005900954,0.0016417956000000001,0.0007972547999999998,-0.00025417020000000003,-6.7391e-05,2.42,0,0
-0.0005869696000000001,0.0027629990000000004,-2.5312000000000072e-05,-0.0007593066,0.0001458828,2.421,0,0
-0.00011332160000000004,0.003319039,-7.775999999999974e-06,-0.0008933356,-0.0001531834,2.422,0,0
0.0001382756,0.0039073910000000005,0.0010423680000000001,-0.0009094934000000001,-0.0005378526,2.423,0,0
5.701459999999997e-05,0.0045085740000000004,0.0010864066,-0.0009572206,-0.00019976479999999995,2.424,0,0
-0.00024922340000000005,0.004566838,0.0004925363999999998,-0.00076534342,0.0001485016000000001,2.425,0,0
-0.0010070807999999999,0.004107366,0.0006848872,-0.00038668042000000003,-9.127219999999992e-05,2.426,0,0
-0.0018749128000000001,0.0035286700000000002,9.400419999999987e-05,-0.00012243322,0.00042043040000000004,2.427,0,0
-0.002822132,0.0025918636000000004,-0.0015338238000000002,0.00015392138,0.0013045984,2.428,0,0
-0.0038376699999999996,0.0013898096,-0.002071507,0.00061605918,0.0011342948,2.429,0,0
-0.004156174,0.0006034432000000003,-0.002443059,0.0005537996,0.0009938628,2.43,0,0
-0.0038745600000000004,0.00015822720000000006,-0.004613275,0.0003204446,0.001351831,2.431,0,0
-0.003472354,7.306119999999998e-05,-0.006027152000000001,0.0001794864,0.0009930004,2.432,0,0
-0.0025841775999999998,5.711039999999999e-05,-0.006104216,-3.529540000000002e-05,0.0001785684,2.433,0,0
-0.0011766088000000003,-7.954959999999993e-05,-0.006205954,-0.0007754214,-0.00010723640000000008,2.434,0,0
0.0003177131999999999,-0.0012228292,-0.004814697999999999,-0.0010973750000000003,-0.0007951664000000001,2.435,0,0
0.0021209252,-0.0027446531999999997,-0.0016556040000000002,-0.0005999130000000001,-0.0017867864,2.436,0,0
0.0042993552,-0.0028681672,0.0011247320000000002,-0.00028657299999999993,-0.0020064304,2.437,0,0
0.0057716748,-0.0021946499999999994,0.0037029360000000004,0.00013759399999999994,-0.0023362604,2.438,0,0
0.005567614,-0.002070758,0.007308324000000001,0.0007472602000000001,-0.002660442,2.439,0,0
0.003798192,-0.002365952,0.008464150000000002,0.0012254268,-0.0022027365599999998,2.44,0,0
0.001198044,-0.002597254,0.006216728000000001,0.0012204908000000001,-0.00137627416,2.441,0,0
-0.0018798820000000003,-0.00358283,0.0043981820000000005,0.0012006088,-0.0008404589599999999,2.442,0,0
-0.004437202,-0.004355546199999999,0.0025832740000000004,0.0012893508000000001,-0.00027043982,2.443,0,0
-0.005794906000000001,-0.0032834422,-0.000859636,0.0011420206,0.00039637018,2.444,0,0
-0.005364514000000001,-0.0011443881999999997,-0.0031967980000000003,0.0009242863999999999,0.00056683874,2.445,0,0
-0.0030236900000000008,0.0013518258,-0.003205976,0.0006268924,0.00046199834000000003,2.446,0,0
-0.00012332200000000058,0.004189783799999999,-0.0029203259999999996,0.0001738032,0.00043536414,2.447,0,0
0.002361716,0.005790315999999999,-0.0029525899999999997,-0.00041433080000000003,0.0004883684,2.448,0,0
0.003964818,0.0057651939999999995,-0.00281715,-0.00041861080000000003,4.6386400000000014e-05,2.449,0,0
0.0043115924,0.005260261599999999,-0.00262596,-0.00030628120000000006,-0.0001549156,2.45,0,0
0.0030846036,0.0031011795999999993,-0.002178316,-0.00027288060000000007,8.402040000000003e-05,2.451,0,0
0.0012289544,-0.0007018424000000002,-0.000952384,1.3243599999999996e-05,-0.0003669846,2.452,0,0
-3.210980000000001e-05,-0.0034108664000000004,0.0007726540000000001,0.00016019960000000002,-0.000774594,2.453,0,0
0.00016889219999999998,-0.0045289004,0.0016010280000000002,0.00010298940000000001,-0.0003612804,2.454,0,0
0.0009034598000000001,-0.005208728,0.0022296880000000005,-2.9615800000000022e-05,-0.0002966446000000001,2.455,0,0
0.0009526480000000001,-0.005050967999999999,0.0036505320000000006,-8.42808e-05,-0.0009419646000000001,2.456,0,0
0.0011239286,-0.0036155060000000005,0.003428256,-0.0003742252,-0.0006362878000000001,2.457,0,0
0.0012249102,-0.002570464,0.0020942428,-0.0006199272000000001,-0.00017952879999999998,2.458,0,0
0.00036793220000000003,-0.0032218740000000004,0.0020222228,-0.0007725930000000001,-0.0007828384,2.459,0,0
-0.0006105838000000001,-0.0031972280000000007,0.001710259,-0.0010719238,-0.0011759842,2.46,0,0
-0.0004986546000000001,-0.0019672440000000004,-0.0001335650000000001,-0.0012393934,-0.0005872510000000001,2.461,0,0
-0.0006613428,-0.001945974,-0.0012814050000000002,-0.0008968490000000001,-8.19318000000001e-05,2.462,0,0
-0.0012449942000000002,-0.0020257,-0.0013525589860000002,-0.0005783918000000001,0.00016997920000000002,2.463,0,0
-0.0011554122,-0.0009993036000000002,-0.0019201789860000002,-0.00022637580000000002,0.0010954792,2.464,0,0
-0.0013113782,-0.0008235256000000001,-0.0019581771860000003,0.0004555682,0.0015467786000000002,2.465,0,0
-0.0020232228,-0.0018881136,-0.0008718143860000001,0.0009407802000000001,0.0010352614,2.466,0,0
-0.0025709360000000002,-0.0020154776,-8.813038600000004e-05,0.0013529252000000001,0.0005068096000000001,2.467,0,0
-0.002743654,-0.0010852356,-5.8950000000000105e-06,0.001444446,0.0001064696,2.468,0,0
-0.0030291759999999997,-7.740199999999985e-05,0.0006112210000000001,0.0014368336,-0.0007788264000000001,2.469,0,0
-0.003152102,0.0015972540000000002,0.0013155710000000002,0.0012753146,-0.00102259,2.47,0,0
-0.0024706067999999996,0.003449924,0.0010221182,0.0007881165999999999,-0.00040770800000000006,2.471,0,0
-0.0011125308000000003,0.0045865440000000006,0.0005168942000000001,0.0003536444,-0.00036804380000000014,2.472,0,0
-0.00028925080000000007,0.004904358,0.00031135319999999996,6.077599999999991e-06,-0.00019241380000000009,2.473,0,0
0.0003204872,0.0046454600000000006,-0.0008184988000000001,-0.000390338,0.0005967422,2.474,0,0
0.0021565432000000004,0.0040385640000000006,-0.0032179468000000004,-0.0006242908000000001,0.0010005724,2.475,0,0
0.00348372,0.003475976,-0.005412342800000001,-0.00048778880000000007,0.0009505404000000001,2.476,0,0
0.003188062,0.003026186,-0.0066542168,-0.00047064480000000004,0.001810486,2.477,0,0
0.0031368506000000003,0.0022842378,-0.006736550000000001,-0.0002305904,0.002553694,2.478,0,0
0.0033048786,0.0012271838,-0.00479318,0.0002604656,0.0022894193999999997,2.479,0,0
0.0021674076000000007,-0.0005220021999999999,-0.0010328620000000007,0.000466159,0.0024531394,2.48,0,0
0.0008793924,-0.0021593921999999996,0.0025397760000000005,0.00041992200000000004,0.0027877574,2.481,0,0
4.1134399999999936e-05,-0.0036614461999999997,0.005208996,0.00018977500000000005,0.0018995829999999998,2.482,0,0
-0.0013845122000000001,-0.004906836,0.006885658,2.926240000000002e-05,0.0007775709999999998,2.483,0,0
-0.0024816622,-0.0043685028,0.006471454,-0.00021523100000000003,0.000618771,2.484,0,0
-0.0027722112,-0.0028765868,0.005118022000000001,-0.0004132606,-0.00024168500000000003,2.485,0,0
-0.003394516,-0.0017170762,0.004419054,-0.00047888,-0.001519387,2.486,0,0
-0.0037429700000000004,-0.00022029419999999985,0.0030754138,-0.0006449048,-0.0013728226,2.487,0,0
-0.001728378,0.0015693738,0.0011551638,-0.0007321548000000001,-0.0007536166000000001,2.488,0,0
0.000972366,0.0020820606000000004,0.00030229300000000003,-0.0007525094000000001,-0.0005724446,2.489,0,0
0.0019228720000000002,0.0022307926000000003,-0.00041434900000000005,-0.0006039914200000001,5.4877600000000066e-05,2.49,0,0
0.0025308628000000003,0.0036675180000000003,-0.002401749,-0.00036803042000000004,0.0008570754,2.491,0,0
0.0030476488,0.004961472000000001,-0.0046785528,-0.00024346582,0.0008422918,2.492,0,0
0.0017072568,0.004542208,-0.0060464308000000005,-0.00041598482,0.0005126766000000001,2.493,0,0
-0.0005070991999999999,0.003946947199999999,-0.0061293044000000005,-0.00084598282,0.0006686812,2.494,0,0
-0.0012317672,0.0032107138000000007,-0.0044744324000000005,-0.0012007508,0.0008713450000000001,2.495,0,0
-0.0012623498000000001,0.0005261697999999996,-0.0011879204000000002,-0.0016304634,0.0006688126000000001,2.496,0,0
-0.0012908798,-0.0020082182,0.0020781496000000003,-0.0019762499999999997,0.00037517219999999997,2.497,0,0
-0.0007336914,-0.0025736942,0.0036714596000000004,-0.0016537351399999998,-0.00018625260000000002,2.498,0,0
0.00015884460000000004,-0.0027857934,0.0039684164,-0.0007586511399999998,-0.0016097686000000001,2.499,0,0
0.0007857686,-0.002072518,0.0031839924,-0.00011919513999999993,-0.0033768046000000004,2.5,0,0
0.0013551424,0.0005186439999999999,0.0012794072000000003,0.0003891678600000001,-0.00421596,2.501,0,0
0.0023768104,0.00200575,0.0003189292000000001,0.00139822986,-0.004648814000000001,2.502,0,0
0.002906814,0.001789086,0.0010651471999999999,0.001961401,-0.00495125,2.503,0,0
0.002563545,0.0009049439999999998,0.0019356268,0.001853029,-0.003978618400000001,2.504,0,0
0.0017815402,-0.0015359400000000004,0.0032245908,0.001858761,-0.0025460674000000005,2.505,0,0
0.0013485662000000001,-0.0041451280000000005,0.004758772,0.0021253540000000003,-0.0015042392000000002,2.506,0,0
0.0011124802,-0.005030398000000001,0.004974184600000001,0.002215538,-9.31212e-05,2.507,0,0
0.0004164122,-0.0046092044000000006,0.0042106406,0.0020626100000000003,0.0014620727999999999,2.508,0,0
-0.00010915079999999992,-0.0031415984000000004,0.0029623246000000003,0.00227509,0.0023669852000000003,2.509,0,0
-0.0005957820000000001,-0.0010429964,0.0006079746,0.0022760280000000003,0.0030517041999999998,2.51,0,0
-0.0020188360000000004,0.00030221300000000007,-0.0022267814,0.0015275800000000002,0.003588228,2.511,0,0
-0.0036550840000000003,0.0010321430000000001,-0.004259496,0.000676548,0.0032187060000000004,2.512,0,0
-0.004215134000000001,0.0012821100000000002,-0.005491978,9.168320000000008e-05,0.0022712460000000006,2.513,0,0
-0.0038104166000000003,0.0009357160000000001,-0.006435448,-0.0008412148,0.0012287720000000002,2.514,0,0
-0.0022007006,0.0011554760000000001,-0.007200866,-0.0015724327999999997,0.00032670440000000017,2.515,0,0
-0.00013183059999999987,0.0015126506,-0.006315000000000001,-0.0017085908,-0.0007799456,2.516,0,0
0.0013027114000000002,0.0015710166,-0.004074650000000001,-0.0022070388,-0.0016429996000000002,2.517,0,0
0.0023106714,0.00225116,-0.001975726,-0.0023823620000000003,-0.0016225958,2.518,0,0
0.0024353202,0.00352576,0.000716368,-0.0019568397800000005,-0.0021588618,2.519,0,0
0.0017485662,0.00431207,0.003647282,-0.00183713178,-0.0027034462,2.52,0,0
0.0015621122000000001,0.004713518000000001,0.005491780000000001,-0.0016600697800000003,-0.0019631142,2.521,0,0
0.0020907342000000004,0.005273328000000001,0.006283642000000001,-0.0008901761800000002,-0.0015047537999999998,2.522,0,0
0.0021817862000000003,0.0044322688,0.006651672000000001,-0.00026223818000000007,-0.0015817556,2.523,0,0
0.0018778120000000002,0.0017933748000000004,0.005331324,8.542959999999992e-05,-1.2283599999999856e-05,2.524,0,0
0.0016815108000000003,-0.0006573672000000001,0.0022978820000000002,0.0007133756,0.0019337224000000003,2.525,0,0
0.0010776100000000001,-0.0019118512,0.00018974599999999997,0.0012450236,0.0027267184000000005,2.526,0,0
0.0002765314,-0.0025713112,-0.0011358892,0.0012585194,0.004213388,2.527,0,0
-2.551159999999996e-05,-0.001943382,-0.0033748272,0.0008858508,0.005618444,2.528,0,0
-8.44419999999999e-06,-0.0006595832,-0.004868745200000001,0.0004849052,0.005242152,2.529,0,0
-0.000624251,-0.0007581092,-0.0049803472000000005,0.00015985319999999996,0.004572688,2.53,0,0
-0.0019268822,-0.0021857012,-0.0063472371999999996,-0.0001680936,0.00392315,2.531,0,0
-0.0022100336,-0.0045254872,-0.008065056000000001,-0.000534859,0.001906876,2.532,0,0
-0.0015022785999999999,-0.0069518492,-0.007028104,-0.0006495804,-0.0001553319999999999,2.533,0,0
-0.0012830711999999996,-0.008251354,-0.004037656,-0.0004767632,-0.0012033459999999999,2.534,0,0
-0.0009835952000000002,-0.007933018,-0.001322326,-0.0005328798,-0.0023505139999999997,2.535,0,0
-0.00032071920000000003,-0.006946108,0.002420152,-0.000528624,-0.0036575839999999997,2.536,0,0
-0.0006605192000000001,-0.005423118,0.006608644,-0.00013851600000000004,-0.003742042,2.537,0,0
-0.0017639432,-0.003195122,0.008135060000000001,0.000419094,-0.0029308463999999997,2.538,0,0
-0.0023839020000000002,-0.00079324,0.007638580000000001,0.0007571624,-0.0026709804,2.539,0,0
-0.002728252,0.001688972,0.007040924000000001,0.0011583470000000001,-0.0024528624000000002,2.54,0,0
-0.002663472,0.0041499020000000005,0.005099284000000001,0.001705,-0.0015117044000000001,2.541,0,0
-0.002890938,0.006053058,0.0022705980000000004,0.0017634024,-0.0005013824,2.542,0,0
-0.0034181199999999998,0.006470136,0.0007276819999999999,0.0012554536,0.00023340600000000002,2.543,0,0
-0.002383944,0.006308385999999999,-0.0014536220000000001,0.00038734359999999994,0.001330898,2.544,0,0
-0.0004870459999999999,0.0061212260000000004,-0.003958676,-0.00043095240000000004,0.00211992,2.545,0,0
0.0007701920000000003,0.005113012,-0.004884146000000001,-0.0015043524000000002,0.0021256860000000003,2.546,0,0
0.0018478140000000001,0.003690492,-0.004917932,-0.0023674588,0.0019710167999999998,2.547,0,0
0.003058954,0.00227412,-0.005096308,-0.0024211400000000004,0.001497867,2.548,0,0
0.002939054,0.0006093999999999996,-0.004129703,-0.0022151938,0.0006189548,2.549,0,0
0.0017562996000000002,-0.001004012,-0.0013531989999999996,-0.0020257957999999998,-7.217320000000004e-05,2.55,0,0
0.0012343536,-0.0020887500000000003,0.0005894589999999999,-0.0016941958000000002,-0.00036498920000000004,2.551,0,0
0.0013224956000000001,-0.002753546,0.0013219441999999999,-0.0011008160000000001,-0.00100079,2.552,0,0
0.0013509136,-0.002974196,0.0017524659999999998,-0.0006700359999999999,-0.0017331402000000003,2.553,0,0
0.0016921556,-0.002823154,0.0012128389999999998,-0.00014677419999999997,-0.0019521340000000001,2.554,0,0
0.0022767580000000003,-0.002894128,-0.00025824500000000005,0.0005445638000000001,-0.0020179580000000003,2.555,0,0
0.0021614122,-0.0029512440000000004,-0.000545897,0.0013516578,-0.0018802924000000001,2.556,0,0
0.0021547762,-0.0026807619999999997,0.0005914017999999999,0.00209202,-0.0010853324000000002,2.557,0,0
0.0025251822,-0.002219616,0.001516718,0.00220519,2.7355999999998997e-06,2.558,0,0
0.0018799745,-0.0017353664,0.0025061280000000003,0.002121832,0.00044619719999999997,2.559,0,0
0.0006003605,-0.0014502636,0.003454574,0.0021225440000000005,0.0007913852000000001,2.56,0,0
1.842229999999992e-05,-0.0010349737999999999,0.0029029960000000006,0.0018517800000000001,0.0012080736,2.561,0,0
-0.0006260157000000001,-0.00022332179999999996,0.0011201559999999998,0.0015565040000000002,0.0006893706,2.562,0,0
-0.0017721877000000002,0.0010295802,-0.00012896999999999995,0.0014022570000000003,-0.00012771140000000005,2.563,0,0
-0.00224304,0.0020206106,-0.0015616179999999999,0.0008272010000000003,-0.00016635500000000003,2.564,0,0
-0.0020019440000000003,0.0031712498000000004,-0.00340571,0.00023123100000000006,-0.00032189480000000003,2.565,0,0
-0.00188687,0.004932558,-0.004121258,-0.00011677439999999992,-0.0012406448000000002,2.566,0,0
-0.001908244,0.006164554,-0.004469560000000001,-0.0007647284,-0.0016937158,2.567,0,0
-0.0014700562,0.00700363,-0.0037172000000000004,-0.0012578554000000001,-0.0017441398,2.568,0,0
-0.0007293442000000002,0.007143400000000001,-0.0008475659999999999,-0.000977794,-0.0023437778000000003,2.569,0,0
-0.00012766019999999994,0.0059539498,0.0018772420000000005,-0.0005839068000000001,-0.002683874,2.57,0,0
0.00029970400000000003,0.0034504638000000002,0.0032671380000000006,-0.00020029539999999994,-0.0018279060000000002,2.571,0,0
0.0001385719999999999,-0.0002657821999999994,0.004197948400000001,0.0004985526,-0.0007022159999999999,2.572,0,0
-0.0007580658,-0.0038110322,0.0040937944000000006,0.00081190736,0.0005158300000000001,2.573,0,0
-0.0015379898,-0.0051221322,0.0021880946000000004,0.0005923879600000001,0.002688546,2.574,0,0
-0.0020257398,-0.004625071999999999,0.0005526386000000001,8.284076000000004e-05,0.00461257,2.575,0,0
-0.0020119376000000003,-0.0037942439999999996,0.0008768946,-0.0007118892400000002,0.005199714,2.576,0,0
8.021839999999988e-05,-0.0020963480000000005,0.0016877662,-0.00159459724,0.005596354,2.577,0,0
0.0037644904,-0.000832686,0.0016115582,-0.001904852,0.005822708,2.578,0,0
0.0057195703999999995,-0.001223778,0.00223663,-0.0017838705999999999,0.004742116,2.579,0,0
0.005902685999999999,-0.001886976,0.0025044658000000003,-0.0017253246,0.0035699980000000004,2.58,0,0
0.005522269599999999,-0.0017548642000000001,0.0002073597999999999,-0.0013304678,0.0030033200000000003,2.581,0,0
0.0028179315999999994,-0.0013881994,-0.0017971522,-0.0008165523800000001,0.001399026,2.582,0,0
-0.0015268164000000002,-0.0015594394000000003,-0.0026664082,-0.00032338818,-0.0006180399999999998,2.583,0,0
-0.0044715264,-0.0019947694,-0.004781766200000001,-6.996580000000039e-06,-0.0015166280000000001,2.584,0,0
-0.005207816,-0.0029345094,-0.006597808,0.00022565062,-0.0024420120000000003,2.585,0,0
-0.00526686,-0.0038585232,-0.00550186,0.0006677138200000001,-0.003679888,2.586,0,0
-0.003854064,-0.0038581876,-0.002646634,0.0009108024,-0.0035019440000000003,2.587,0,0
-0.0006508920000000001,-0.0028672916000000003,-0.0003349300000000004,0.0008499232,-0.0027300018000000004,2.588,0,0
0.001382054,-0.0004677956000000002,0.0015218159999999998,0.0009349122,-0.0028380058,2.589,0,0
0.0019966205999999995,0.0028085724,0.0032687786,0.0011200218,-0.0025199358,2.59,0,0
0.0024180815999999996,0.0048723464,0.0031588306000000003,0.000672911,-0.0016011978,2.591,0,0
0.0017240595999999996,0.005471014,0.00142269304,0.0004287757999999999,-0.0011582576000000002,2.592,0,0
-0.00036453840000000005,0.005402626000000001,0.00022974504000000011,0.00040441159999999996,-0.0009535744,2.593,0,0
-0.0012712004000000002,0.0036185440000000004,-0.00072746896,-0.00021901040000000003,-0.00034614020000000006,2.594,0,0
-0.0011748294,0.0006717199999999999,-0.00139922756,-0.0005866052,-0.0001513474,2.595,0,0
-0.0013836681999999999,-0.0011768540000000002,-0.000880289502,-0.0004015246,-0.00041469940000000006,2.596,0,0
-0.0009981228,-0.002079198,-0.001147477942,-0.0004913114000000001,-0.00014859520000000002,2.597,0,0
-0.0001176668,-0.0025027278,-0.0016589460219999998,-0.0005953742,-0.000127545,2.598,0,0
0.0008533092000000001,-0.0023065778,3.416197800000021e-05,5.35078e-05,-0.0010018152000000002,2.599,0,0
0.0014674976,-0.0021154178,0.0021532739780000002,0.0005783898000000001,-0.001749632,2.6,0,0
0.0021773334,-0.0020142418000000002,0.0031908039200000005,0.0009503120000000001,-0.0016647600000000002,2.601,0,0
0.0030829180000000005,-0.0020400598,0.00414912192,0.001707184,-0.0022246244,2.602,0,0
0.0030994020000000002,-0.002303378,0.00488988,0.00199655,-0.002843796,2.603,0,0
0.00226055,-0.002279564,0.0043462760000000005,0.0017860708000000001,-0.0019779274,2.604,0,0
0.0011827580000000003,-0.0018976680000000004,0.0030639956,0.0018149988000000002,-0.001074902,2.605,0,0
-0.0005531140000000001,-0.0016708100000000002,0.0014269496,0.0016533968,-0.0008938656000000001,2.606,0,0
-0.0027688520000000005,-0.001025372,-0.00048580239999999994,0.0012610728,-0.00038305840000000006,2.607,0,0
-0.0041310240000000005,0.00018820999999999996,-0.0019860184,0.0012652268,0.00013076260000000002,2.608,0,0
-0.004845376,0.001443214,-0.0029812944000000004,0.0013250550000000001,4.1936000000000006e-05,2.609,0,0
-0.005361580000000001,0.00281299,-0.0037292460000000003,0.0008867264000000001,0.0005893386,2.61,0,0
-0.0042185372,0.004434884,-0.0045364360000000005,9.630240000000018e-05,0.0015925642,2.611,0,0
-0.0018584052000000003,0.005556874,-0.004644006,-0.0007587796,0.002025349,2.612,0,0
-0.0002682772000000002,0.005915474,-0.004242162000000001,-0.0015350035999999998,0.002317334,2.613,0,0
0.0011580948,0.00608395,-0.004060842,-0.0019782826000000002,0.00278399,2.614,0,0
0.0025479708,0.005938386,-0.0030924320000000004,-0.002313442,0.0023044468,2.615,0,0
0.0026354918,0.004957674,-0.001122508,-0.00238484,0.0006580608000000001,2.616,0,0
0.0014962865999999999,0.0026807880000000004,0.000455412,-0.002223076,-0.0002717372000000001,2.617,0,0
0.0005260286,0.0005497579999999996,0.001208412,-0.002295602,-0.0005608532,2.618,0,0
1.6655399999999942e-05,-0.001072764,0.0022999,-0.002354844,-0.0015312212000000002,2.619,0,0
-0.0002644928,-0.00258207,0.0032042280000000004,-0.00216905,-0.0019216780000000004,2.62,0,0
-0.00012375959999999997,-0.0031053536,0.003025812,-0.0017344904000000001,-0.001238432,2.621,0,0
0.0004361076,-0.0024261944000000006,0.002660181,-0.0011614534000000001,-0.000859767044,2.622,0,0
0.0015454576,-0.0018911224,0.0023811786000000005,-0.0005275508,-0.00045654504400000003,2.623,0,0
0.0023689408,-0.0023716964,0.0014966398000000004,-5.354539999999998e-05,0.000467598956,2.624,0,0
0.002682915,-0.0027965684000000003,0.0007777118000000001,0.000330426,0.0009231463560000001,2.625,0,0
0.00252134398,-0.0031448028,0.0010615198000000002,0.0008341964000000001,0.000850348756,2.626,0,0
0.0017662899800000003,-0.0031409882000000004,0.0007678788000000001,0.0013257394000000002,0.0011138838,2.627,0,0
0.0007246119800000003,-0.0024478962000000003,-0.00032986479999999997,0.0016748268000000002,0.0013305078000000001,2.628,0,0
-0.0003342000199999999,-0.0011657081999999997,-0.0007047500000000001,0.0017347676000000001,0.0011873598,2.629,0,0
-0.00096992802,-9.445394000000004e-05,-0.00037038200000000005,0.0016425504000000001,0.0013330024,2.63,0,0
-0.0012341,-0.0004087839399999999,-8.563199999999987e-05,0.001222807,0.00170715,2.631,0,0
-0.00155265,-0.00123222174,0.00013092779999999992,0.0006713362000000001,0.0013703974000000001,2.632,0,0
-0.0019671280000000003,-0.00149843594,0.0007855877999999998,0.00028104400000000004,0.00080923244,2.633,0,0
-0.0016915832000000003,-0.0013484739400000004,0.0013461388,-4.13312e-05,0.0007544864399999999,2.634,0,0
-0.0009576891999999999,-0.0009856062,0.0009083048,8.588760000000001e-05,0.00045428038,2.635,0,0
-0.00025942719999999986,7.323380000000002e-05,0.0007315508000000001,0.0004283850000000001,-5.7685620000000044e-05,2.636,0,0
0.0006590308000000002,0.0014985478,0.001338037,0.00046134820000000006,-8.991022000000005e-05,2.637,0,0
0.0016338848000000002,0.002379658,0.0014187370000000002,0.00038288400000000006,5.380053999999996e-05,2.638,0,0
0.0019268380000000004,0.0027193340000000003,0.0014863754000000002,0.00022867500000000002,-0.00022768346000000001,2.639,0,0
0.0012634060000000001,0.002663986,0.0017201674,-0.00034321199999999997,-0.0002883642,2.64,0,0
0.0005812320000000001,0.002698248,0.0006515793999999999,-0.0007267746000000001,0.00046281180000000004,2.641,0,0
0.00016547240000000009,0.0035785800000000005,-0.0011435546000000002,-0.000667897,0.0012704910000000001,2.642,0,0
-0.00011004539999999998,0.004224234,-0.0022846766,-0.0006669618,0.0015076732,2.643,0,0
-0.0001070434,0.004102008000000001,-0.0036420340000000006,-0.0006319158000000001,0.0021079552,2.644,0,0
2.930340000000003e-05,0.004318664,-0.005280000000000001,-0.00034670740000000005,0.00269711,2.645,0,0
-0.0003391726,0.0030050300000000005,-0.0050594104,-0.00021598382000000003,0.001990547,2.646,0,0
-0.001099159,-0.0010867360000000003,-0.0030165764,-0.00054116202,0.001106047,2.647,0,0
-0.0018442372,-0.005061874000000001,-0.0009959384000000002,-0.0006697238200000001,0.0005408806,2.648,0,0
-0.0029569712,-0.007299184,0.0008342356000000001,-0.00067319982,-0.0007126554,2.649,0,0
-0.00341865,-0.008364244,0.0022641096,-0.00066886542,-0.0020482334,2.65,0,0
-0.002431684,-0.0074727206,0.00234769004,-0.0003799204,-0.0023689723999999997,2.651,0,0
-0.0011899900000000001,-0.0046230886,0.0015727480400000002,-0.00023303839999999995,-0.0028916124,2.652,0,0
-9.91199999999999e-05,-0.0026210266,0.00135216804,-8.960999999999944e-06,-0.0034554820000000006,2.653,0,0
0.001165222,-0.0019869106,0.00174678204,0.0005037590000000001,-0.0026561702000000003,2.654,0,0
0.0017577564000000002,-0.0015630188,0.00182669004,0.0008261002000000001,-0.0015644761999999998,2.655,0,0
0.0012292384000000003,-0.0010213342,0.0017035854000000002,0.0008002182000000002,-0.0010739741999999997,2.656,0,0
0.0007937684,-7.210419999999999e-05,0.0007805674000000002,0.0007471762,-0.0003701648200000001,2.657,0,0
0.0007521404,0.0018713558,-0.0013515585999999999,0.0005570702,0.00052637238,2.658,0,0
0.0006914944,0.0040066398000000005,-0.0034035466000000006,2.211619999999999e-05,0.00030861398,2.659,0,0
0.000957236,0.004574676000000001,-0.004669398600000001,-0.0005916338000000001,-6.805221999999997e-05,2.66,0,0
0.0007917099999999999,0.0039776614000000005,-0.004935966000000001,-0.0011478618,0.0003279537800000001,2.661,0,0
0.00017613199999999996,0.0024398934000000004,-0.004223254,-0.0013809716000000001,0.0003503708000000001,2.662,0,0
-0.00012345979999999997,0.0012364834,-0.0018912420000000002,-0.0016037420000000002,0.0004987756000000001,2.663,0,0
-6.063580000000002e-05,0.0013787394,0.0008687140000000002,-0.0016916080000000003,0.0014431842000000002,2.664,0,0
-6.378979999999992e-05,0.0021212914,0.0021459340000000004,-0.0013874386000000002,0.0016041270000000001,2.665,0,0
5.014420000000008e-05,0.0027384139999999998,0.0027067264,-0.0013196806000000001,0.0007681910000000001,2.666,0,0
0.00029421220000000004,0.0030325545999999996,0.0027898724000000002,-0.0011811718000000002,0.00024484859999999997,2.667,0,0
-0.000447722,0.00276919428,0.0014965164000000004,-0.00033602380000000013,-0.0005605874,2.668,0,0
-0.0017327840000000002,0.00123412428,0.0001423584,0.0004842762000000001,-0.0018614394000000002,2.669,0,0
-0.0029612540000000004,-0.00053982372,0.0007198164,0.0007866408000000002,-0.00232723,2.67,0,0
-0.00316247,-0.0015608677200000002,0.001292544,0.0014338188000000002,-0.0017452054,2.671,0,0
-0.002308342,-0.00172718232,0.0017011698,0.001845958,-0.0011563113999999998,2.672,0,0
-0.0010386540000000002,-0.0014435420000000003,0.0027039278,0.001345052,-0.0008709794,2.673,0,0
0.00120625,-0.0003111860000000001,0.0022972996000000002,0.0009691386,-0.0002003202,2.674,0,0
0.0032571740000000007,0.0006672879999999999,0.0009485235999999999,0.0008379182,0.0005145558,2.675,0,0
0.0037907944000000002,0.000531166,0.0003763904000000001,0.0002769264,0.0002488508,2.676,0,0
0.0040976244,0.0007879572,0.00048326459999999995,-1.891659999999988e-06,0.00035621160000000004,2.677,0,0
0.0043117984000000005,0.0002452272000000001,0.00020145339999999993,0.00030568634000000005,0.0012555176,2.678,0,0
0.0026179424000000004,-0.0024023528,6.572499999999998e-05,0.00045585774,0.0012981344000000002,2.679,0,0
0.0003557444,-0.0050004148,0.000583677,0.00040432114,0.0013158004000000001,2.68,0,0
-0.0007559920000000003,-0.005685368800000001,0.00040726521999999996,0.00058692734,0.0017541388000000002,2.681,0,0
-0.0013781340000000003,-0.005394258000000001,-0.0008767167800000001,0.0007504834000000001,0.001058762,2.682,0,0
-0.0011824760000000007,-0.00424826,-0.00205781358,0.0006518224,-0.0002727160000000001,2.683,0,0
0.0003594220000000001,-0.002023206,-0.00251122098,0.0009232524,-0.0006761988000000001,2.684,0,0
0.002132908,0.000736502,-0.00287260538,0.0010655576000000002,-0.0008624716,2.685,0,0
0.0030601044000000003,0.002959862,-0.0030688606000000003,0.0008377988000000001,-0.0011651342399999999,2.686,0,0
0.0030050680000000005,0.0035589920000000004,-0.0025008926000000004,0.0006095744,-0.0004269442400000002,2.687,0,0
0.0019866028600000005,0.00336745,-0.001559988,0.0002502798,0.0007539397599999999,2.688,0,0
3.382860000000049e-06,0.003231746,5.7934000000000045e-05,-0.0002581574,0.00101669016,2.689,0,0
-0.00123940314,0.0033617460000000005,0.0024597024,-0.0005157792,0.00067682956,2.69,0,0
-0.00182071554,0.002540056,0.0044457086,-0.0008063168000000001,0.0005753237999999999,2.691,0,0
-0.00263461714,0.0015247656000000002,0.0048764546,-0.0011301864000000002,0.00026888819999999996,2.692,0,0
-0.0019762340000000003,0.0020711956,0.0034679539999999992,-0.0009734688000000002,-0.00042189880000000003,2.693,0,0
-0.0005174840000000003,0.0021116996,0.0009099599999999994,-0.0010053636,-0.00045631140000000007,2.694,0,0
0.00042611399999999984,0.0007218635999999999,-0.0017661800000000004,-0.000651418,-0.0001466502,2.695,0,0
0.001598488,0.0005017016000000002,-0.0033181880000000006,0.00017642,-0.00014256959999999998,2.696,0,0
0.0025474639999999997,0.000516833,-0.0032475714,0.0005787384,-4.5681e-05,2.697,0,0
0.001648578,-0.001269621,-0.0015755734000000002,0.0005349846,0.000289945,2.698,0,0
-0.000105774,-0.0026813490000000004,0.00035488459999999996,0.000492666,0.0004115086,2.699,0,0
-0.0013782920000000001,-0.003480645,0.000837796,0.000577808,0.0001411904,2.7,0,0
-0.0023490080000000005,-0.004332673,0.00011314199999999989,0.000431786,0.00027025080000000004,2.701,0,0
-0.0027394692000000005,-0.004432662,-0.00035142460000000007,0.0003388548,0.000419544,2.702,0,0
-0.0026198926,-0.0037064066,-0.0005160878000000001,0.0008443826000000001,0.00016843080000000001,2.703,0,0
-0.0019042946000000002,-0.0022258606,-0.0011354358000000002,0.0013210152,0.00034120220000000004,2.704,0,0
-0.0012094386,-0.00047097859999999987,-0.0011164988000000003,0.0010047188,0.0006664616000000001,2.705,0,0
-0.0012063386000000001,0.0003897214,-0.00015959079999999998,0.0009965808,0.0004952446,2.706,0,0
-0.0015376234000000003,0.0002904074,0.0004215682,0.0011903366000000002,0.00043531,2.707,0,0
-0.00191655,-0.00014646600000000004,0.0003184812,0.0009049660000000001,0.0005219020000000001,2.708,0,0
-0.002153798,-0.0005657392,0.0005874859800000001,0.0010023480000000001,-7.840199999999999e-05,2.709,0,0
-0.0021403572000000004,-0.00024584119999999997,0.00091476358,0.0010417858000000002,-0.0003638318,2.71,0,0
-0.0014632091999999997,0.0009339548,0.00034232918000000003,0.0005532238000000001,0.00021656460000000002,2.711,0,0
-0.0008543407999999999,0.0021862188,-0.00077969782,0.00027390220000000004,0.00023274459999999997,2.712,0,0
-0.00043194820000000005,0.0031356188000000004,-0.00104136362,-0.0002162072,0.00012174519999999997,2.713,0,0
0.0006066778,0.00373252,-0.0008221223999999999,-0.0010647272,0.000503641,2.714,0,0
0.0011828449999999999,0.0033356306000000002,-0.0007096543999999999,-0.0014218206,0.0002364318,2.715,0,0
0.0009794634,0.0024182518000000004,0.0007830240000000001,-0.0013004718,-0.0007579702,2.716,0,0
0.001239235,0.0016372042,0.002490824,-0.0011504412,-0.0010760650000000002,2.717,0,0
0.0018243304000000002,0.0009779702000000002,0.0028891620000000002,-0.0009862218,-0.0007841094000000002,2.718,0,0
0.0019622844,0.0004952834,0.0027803038000000003,-0.0007133704000000001,-0.0011648632,2.719,0,0
0.0023375044,0.00016734879999999997,0.0024073290000000006,-0.0005298984,-0.0007988932000000001,2.72,0,0
0.0028128980000000003,-0.00012357440000000005,0.000729021,-0.0005240818,0.0005285808,2.721,0,0
0.0026336342,-0.0005204648,-0.000619147,-0.0005896228,0.00082445,2.722,0,0
0.0020208662000000006,-0.0008361588000000001,-0.0006488032,-0.0006227358,0.000428448,2.723,0,0
0.0013607082000000003,-0.001187852,-0.001457565,-0.0008301792000000001,0.0005379725999999999,2.724,0,0
0.0007857746000000001,-0.00162058,-0.0023650222,-0.0012315852,0.0004465424,2.725,0,0
0.0001569112,-0.0019280080000000002,-0.0017767182000000003,-0.0015064506,-0.0006991496,2.726,0,0
-0.000370811,-0.0017353508000000001,-0.0010203060000000001,-0.0015934020000000003,-0.0013841616,2.727,0,0
-0.0007229770000000001,-0.0014234680000000002,-0.0014582858,-0.0016598144,-0.0014368036000000002,2.728,0,0
-0.001284673,-0.001510292,-0.0011180197999999999,-0.0014650136,-0.0018378022,2.729,0,0
-0.0017067034000000003,-0.0011785380000000002,-0.00034300959999999996,-0.0009977234,-0.002065106,2.73,0,0
-0.0014150688,-0.000409836,-0.0008360896,-0.0008547654,-0.0016448926000000002,2.731,0,0
-0.0010625608000000002,0.00023824680000000006,-0.0012268958,-0.0008009509999999999,-0.0013873266000000001,2.732,0,0
-0.0009093008000000001,0.001232702,-0.0008846122,-0.00018465099999999998,-0.0015968486,2.733,0,0
-0.00040305180000000003,0.0029027460000000003,-0.0008170721999999999,0.0005524802,-0.001120305,2.734,0,0
-5.9696999999999994e-05,0.004457904,-0.0013028404000000001,0.000938744,-0.0006748654,2.735,0,0
-0.0005139622,0.004816848,-0.0016448264,0.0013915848000000002,-0.0008399653999999999,2.736,0,0
-0.0008385402000000001,0.004283472,-0.001491381,0.0018005848,-0.00038124800000000005,2.737,0,0
-0.0007354826,0.002832034,-0.0005466446,0.0019801768,0.00017531619999999997,2.738,0,0
-0.0009526516,0.00034347800000000014,0.0006570533999999999,0.0017033748,4.430599999999971e-06,2.739,0,0
-0.001236843,-0.0014885340000000001,0.0016248114,0.0014569802,-5.696260000000006e-05,2.74,0,0
-0.0007280170000000001,-0.0021419612,0.0023765914,0.0015664873999999998,0.000330298,2.741,0,0
0.00011889900000000006,-0.0020682039999999997,0.002713592,0.0011089592,0.00022891839999999997,2.742,0,0
0.00048264740000000003,-0.0011691179999999998,0.002381724,0.0002777792,0.00010483479999999998,2.743,0,0
0.0007086222000000001,-0.000379618,0.0011814140000000002,-0.00037809879999999995,0.0010335148,2.744,0,0
0.0008431788,-0.0003759019999999999,-0.00014699799999999996,-0.0007815322,0.0014930264,2.745,0,0
0.00046354100000000004,-0.0005179487999999999,-0.000791928,-0.0011284043999999999,0.0012586462,2.746,0,0
-0.00011043160000000003,-0.00104064,-0.001272242,-0.0013609342,0.0016140984000000001,2.747,0,0
-0.0002354512,-0.002372712,-0.0015591782,-0.0012871142000000003,0.0020630298,2.748,0,0
-0.00027518600000000007,-0.003256118,-0.0002975022000000001,-0.0009166482,0.0015628477999999999,2.749,0,0
-7.68802e-05,-0.00297723,0.0021312818000000003,-0.0007012460000000001,0.0008342318,2.75,0,0
0.0006490856000000001,-0.002046796,0.0041743518,-0.0007484698,0.0008667186,2.751,0,0
0.0010185502,-0.000822138,0.0058912618,-0.000225999,0.0004192949999999999,2.752,0,0
0.0006531078000000003,8.598999999999953e-06,0.0077616540000000015,0.000505517,-0.00030748500000000003,2.753,0,0
0.00033230580000000024,0.000588161,0.008104448,0.0007758730000000001,-0.00019831299999999998,2.754,0,0
0.0001619192000000002,0.001042749,0.006890848000000001,0.0008739335400000001,-6.970599999999953e-06,2.755,0,0
-0.0006417987999999999,0.0002456925999999999,0.006213376,0.00082882954,-0.00024866419999999996,2.756,0,0
-0.0016417068,-0.0015591954,0.004367282,0.00042974073999999993,0.00017132740000000004,2.757,0,0
-0.0019465408000000001,-0.0023439004000000005,-9.115800000000047e-05,4.590740000000033e-06,0.0005276058000000001,2.758,0,0
-0.0019243168000000002,-0.0014209964,-0.004422876000000001,-0.00014621205999999998,-0.00013078420000000001,2.759,0,0
-0.0020950178,-0.0004937823999999998,-0.00823423,2.1226400000000004e-05,9.118940000000001e-05,2.76,0,0
-0.0019291998000000002,0.0003396499999999998,-0.012988472000000001,0.00031805580000000003,0.0008245424000000001,2.761,0,0
-0.0014301278,0.0018958959999999998,-0.01584752,0.0001242678,0.0006515738,2.762,0,0
-0.0009134124,0.003453392,-0.014966718000000002,-0.00035761420000000004,0.0006962578,2.763,0,0
-0.0005496604,0.003435344,-0.011688608000000001,-0.00052328972,0.0011620724,2.764,0,0
-0.0003220922,0.0016853719999999997,-0.005965068000000001,-0.00071653292,0.0008354360000000001,2.765,0,0
-0.0004102670000000001,0.00033058999999999996,0.0007633320000000002,-0.00079409632,3.103200000000001e-05,2.766,0,0
-3.6191000000000033e-05,-0.0007916080000000002,0.0056291480000000005,-0.00034975432000000005,-0.00026936800000000003,2.767,0,0
0.0019091956000000002,-0.0023255940000000003,0.007892828000000001,5.275663999999999e-05,-0.00013976840000000002,2.768,0,0
0.0033723956000000005,-0.0036235880000000005,0.008045714,1.0999359999999992e-05,-0.00010195040000000001,2.769,0,0
0.0034023326000000007,-0.004276230000000001,0.0061669279999999995,-0.00028806864000000004,0.0001526714,2.77,0,0
0.0037064246000000005,-0.004331028000000001,0.0033697522000000002,-0.00047241604000000003,0.0007991434,2.771,0,0
0.0036215642000000004,-0.00405533,0.0022524182,-0.00030456144,0.0010939930000000001,2.772,0,0
0.0017593322000000005,-0.003228978,0.0028962262,-0.0002049806,0.000672334,2.773,0,0
0.0005670162,-0.0017834480000000004,0.0028907082,-0.00012305860000000001,0.0006265782000000001,2.774,0,0
0.0012121248,-4.748000000000165e-06,0.0021329062,0.0003685188,0.0005474332,2.775,0,0
0.0015266856,0.0015033900000000003,0.002518642,0.0007059382000000001,-0.0005511048,2.776,0,0
0.001175734,0.00280633,0.0025002460000000002,0.0005699420200000001,-0.0007591758000000001,2.777,0,0
0.0010214848,0.0033771,0.0008331220000000002,0.00042444842,-0.00025261080000000006,2.778,0,0
0.0004887908000000001,0.0038093140000000003,1.169200000000005e-05,0.00052826862,-0.0005918196000000001,2.779,0,0
-0.0005298131999999999,0.005152018,-0.0005826239999999999,0.00041500982000000007,-0.0008881700000000002,2.78,0,0
-0.0008719964,0.006756382,-0.002864038,0.00019588382000000002,-0.00048058000000000004,2.781,0,0
-0.0007475448,0.00864198,-0.005359494,0.00010766220000000004,-0.000670986,2.782,0,0
-0.0008202795999999999,0.010455594,-0.007057819999999999,-0.00011239399999999998,-0.001206082,2.783,0,0
-0.0006228652,0.010181376,-0.008556342,-0.00035795,-0.0010270746000000002,2.784,0,0
-0.0004235138,0.006559575999999999,-0.008317342,-0.0005920362000000001,-0.0010410646,2.785,0,0
-0.0011686866000000001,0.0014998960000000001,-0.005325742,-0.0006746868,-0.0011762626000000002,2.786,0,0
-0.0016935642000000001,-0.0032112679999999998,-0.0018648859999999996,-0.0004467481999999999,-0.0007704598000000001,2.787,0,0
-0.0014609482,-0.006808476000000001,0.0009387520000000002,1.1137999999999621e-06,-0.00014658580000000008,2.788,0,0
-0.0014568186000000001,-0.008026534000000002,0.0035962980000000004,0.000287551,6.689220000000008e-05,2.789,0,0
-0.0011850820000000003,-0.0063987004,0.004976772,0.0005131218,0.0003058882,2.79,0,0
-5.688000000000004e-06,-0.0038812046000000003,0.0041506600000000005,0.000670327,0.0007090662000000001,2.791,0,0
0.0007037082,-0.0027035906000000003,0.0029968720000000003,0.0006596882,0.0006208478000000001,2.792,0,0
0.00019425219999999986,-0.0025917046,0.002959286,0.0006836142000000001,0.0002602152,2.793,0,0
-0.00015570380000000004,-0.0028166906,0.002718346,0.0005782654000000001,0.0002588702,2.794,0,0
-0.0005850518000000001,-0.0030193722,0.001986201,0.0007008984000000001,0.00042689700000000003,2.795,0,0
-0.0015141598,-0.0030831856,0.002117121,0.0009463338000000001,0.000201859,2.796,0,0
-0.002338776,-0.0024178515999999997,0.002332057,0.0009239800000000001,0.0001025504,2.797,0,0
-0.002572,-0.0012390176000000002,0.0017325312000000001,0.001006914,-1.4227200000000012e-05,2.798,0,0
-0.001983105,-0.0005754982,0.0016241712,0.0011797910000000001,-0.0010022656000000002,2.799,0,0
-0.0011723130000000001,-0.0008794322,0.0020926002,0.0012480828000000002,-0.0018528484000000004,2.8,0,0
-0.00048043700000000006,-0.0012597806,0.0013850908,0.0013108908000000002,-0.0016683524,2.801,0,0
0.00020305180000000005,-0.0006272106000000002,0.00045657079999999984,0.001411156,-0.0021512462,2.802,0,0
0.0011886898,0.0003893333999999999,0.0007448706,0.0012904048,-0.0027359940000000003,2.803,0,0
0.0025115028,0.001810818,0.0007828586,0.0007512868000000002,-0.0015355960000000002,2.804,0,0
0.0034886788,0.00279419,0.00035624880000000004,-4.918119999999999e-05,-0.00046741800000000004,2.805,0,0
0.0036244888,0.002474942,0.0007349052,-0.0007713192000000001,-0.000730896,2.806,0,0
0.0038690966,0.001565714,0.0012157352000000002,-0.0011789016,-0.0003603256,2.807,0,0
0.0038111218000000005,0.0003621584,0.0009193739999999999,-0.0015168056000000002,0.0004288244,2.808,0,0
0.0021766240000000003,-0.0013409876000000003,0.0007434900000000001,-0.001310663,-7.143999999999995e-05,2.809,0,0
0.0006435820000000001,-0.0020881016000000004,0.00040451779999999996,-0.000507083,-0.0003110974,2.81,0,0
0.0002996804,-0.0011858914000000003,-0.0004584552,2.876600000000003e-05,0.0007790766000000001,2.811,0,0
-2.2195599999999988e-05,-0.0006434234000000001,-0.0010883811999999999,0.0005126984,0.0015117022,2.812,0,0
-0.0004414548,-0.0002358577999999999,-0.001623382,0.0008973156000000001,0.0018528922,2.813,0,0
-0.0003026164,0.00032351479999999995,-0.003031498,0.0006494410000000001,0.0028325926000000003,2.814,0,0
-0.000367471,0.0004551128000000001,-0.004777770000000001,-2.4964999999999894e-05,0.002974062,2.815,0,0
-0.0007637894000000001,0.0007143366000000002,-0.006161258000000001,-0.0006255,0.001960214,2.816,0,0
-0.0007657744,0.0013160426000000001,-0.007996756,-0.001481446,0.0014212604000000003,2.817,0,0
-0.0005428844,0.0019207166000000003,-0.009579448,-0.002143466,0.0011734744,2.818,0,0
-0.0005573626,0.0028372740000000003,-0.008963884000000002,-0.00205769,0.0002606414,2.819,0,0
-0.0006400048000000001,0.0029493214,-0.005013416,-0.001958642,-0.00028439460000000003,2.82,0,0
-0.0007445048000000001,0.00031870140000000036,-0.00015475599999999938,-0.00177654,0.00020426739999999997,2.821,0,0
-0.0013697564,-0.0029642186,0.0033789080000000003,-0.0016164480000000001,2.3222599999999977e-05,2.822,0,0
-0.0021965884000000003,-0.004734392600000001,0.00662481,-0.001640556,-0.0005432534000000001,2.823,0,0
-0.0026223388000000004,-0.005552123000000001,0.008506524000000001,-0.0014850226000000001,-0.0004687824000000001,2.824,0,0
-0.0027954920000000005,-0.0050403924000000004,0.006923880000000001,-0.0011840966000000001,-0.0004042644,2.825,0,0
-0.002912944,-0.0020053884,0.0039822962,-0.0011007764,-0.0007069964000000001,2.826,0,0
-0.00217064,0.0014308976000000002,0.0025381442,-0.0010409384,-0.00035511400000000007,2.827,0,0
-0.001183386,0.0031642416,0.0013790663999999997,-0.0005403572000000001,0.000304054,2.828,0,0
-0.0007843845999999999,0.004053788000000001,0.00035254439999999996,9.383340000000012e-05,0.0002716574,2.829,0,0
-0.00017690460000000001,0.004424024,0.0004898944,0.00046797940000000007,0.0005527932000000001,2.83,0,0
0.0005721914,0.0038735784,0.0009112302,0.0008242292000000002,0.0008568632000000001,2.831,0,0
0.0007270196,0.0028296924,0.0009014501999999999,0.0015662312,0.0005307962,2.832,0,0
0.0006824504,0.0025532724000000002,-8.20240000000002e-05,0.001940368,-9.18658e-05,2.833,0,0
0.0008309002,0.0026512804,-0.001482976,0.001660582,-0.00028663720000000003,2.834,0,0
0.0009131102,0.0024344984,-0.003228428,0.001708522,-0.00039186,2.835,0,0
0.0012392742,0.002596452,-0.004376912,0.001699262,-0.001006928,2.836,0,0
0.0015598300000000001,0.003105936,-0.003118742,0.001019588,-0.001255837,2.837,0,0
0.0018840272,0.0024175864000000004,-0.0012628340000000002,0.0003907460000000001,-0.0010262452000000001,2.838,0,0
0.002025092,0.0005018644,0.0001917239999999999,9.885800000000001e-05,-0.0010134252,2.839,0,0
0.0017207648000000001,-0.0012470196000000002,0.001973288,-0.000557786,-0.0013918542,2.84,0,0
0.0016010908000000002,-0.0028817736000000004,0.0028380181599999997,-0.0012522900000000003,-0.0012994642,2.841,0,0
0.0017557108,-0.004203563600000001,0.00182397316,-0.0010982602,-0.0011033116,2.842,0,0
0.0016389668000000002,-0.004775070000000001,0.0008378431600000001,-0.0007320360000000001,-0.0012251477999999998,2.843,0,0
0.0011467348000000002,-0.00480169,0.00040849636,-0.0006509228000000001,-0.0005240518,2.844,0,0
0.0008643159999999998,-0.0040787720000000005,-6.445868e-05,-0.0003009894,0.0005999962000000001,2.845,0,0
0.00027513540000000006,-0.0028180402,0.00042999716,0.0003197396,0.0011089022,2.846,0,0
-0.0004924688000000001,-0.0020606676,0.00087223816,0.0006623578000000001,0.0016637096,2.847,0,0
-0.0006841498,-0.0017311995999999999,0.00071431696,0.0011601136000000001,0.002595758,2.848,0,0
-0.0007419258000000001,-0.0014686516000000003,0.00128817976,0.0017777044,0.002662822,2.849,0,0
-0.0010404938,-0.0013535496,0.0022807368000000005,0.0018439836000000002,0.0020346636,2.85,0,0
-0.0015062232000000002,-0.0011837492,0.0024969788000000002,0.001833859,0.0015957276,2.851,0,0
-0.0020499570000000003,-0.0005144398000000003,0.0025028068000000005,0.0017700300000000001,0.0006631696,2.852,0,0
-0.0026129,0.0007281121999999999,0.0025541846000000003,0.0010923516,-0.0006058324000000002,2.853,0,0
-0.0023557436,0.0022053541999999997,0.0013345826,0.00029594640000000003,-0.0009493364000000002,2.854,0,0
-0.0017701442000000003,0.0038323642,-0.00039761539999999974,-1.6302399999999995e-05,-0.0008166920000000002,2.855,0,0
-0.0013765782000000001,0.00451729,-0.001261236,-0.00042399080000000007,-0.0008430680000000001,2.856,0,0
-0.0005599263999999999,0.0041237166000000006,-0.0015691458,-0.0009368458000000002,-0.0002304176,2.857,0,0
0.00016502160000000005,0.0030013436000000003,-0.0013184328,-0.0009447456000000002,0.00022216100000000004,2.858,0,0
0.00036426960000000006,0.0014394016,-0.0008937008000000001,-0.0004670064000000001,-0.000219805,2.859,0,0
0.00031581362000000004,0.00038112560000000005,-0.0011335808,0.00012033979999999996,-0.00014800500000000004,2.86,0,0
0.0008480136200000001,-6.68639999999997e-06,-0.0016314782,0.0006610218,0.000411537,2.861,0,0
0.0013092478200000001,0.00015463500000000003,-0.0019974844,0.0011634808,0.0005632366,2.862,0,0
0.0010754340200000002,0.0006900820000000001,-0.002402504,0.000921215,0.0004960672000000001,2.863,0,0
0.0012954036200000002,0.0015389239999999999,-0.0020983992,3.35890000000001e-05,0.00073470164,2.864,0,0
0.0020149462,0.0015314904,-0.0005556032,-0.00047924599999999996,0.00085613164,2.865,0,0
0.00170112844,0.00015019440000000011,0.0015953748,-0.0008821724,0.00019978964,2.866,0,0
0.0006406884400000001,-0.0025586695999999997,0.0033874528000000003,-0.0016514633999999999,-0.00035350836,2.867,0,0
0.00038295624000000007,-0.0052973576,0.0038544368,-0.0021417894,-0.00012963696,2.868,0,0
-0.00045021376,-0.0070165596000000005,0.0036710696,-0.0018799894000000002,-0.0001782184,2.869,0,0
-0.00193060576,-0.0080131,0.0026968436,-0.0017441678,-0.0007963304000000001,2.87,0,0
-0.0023021020000000003,-0.006760636,-0.00016246240000000007,-0.0020022334,-0.000650794,2.871,0,0
-0.002244136,-0.0037286320000000004,-0.0024580464000000003,-0.0018710554,-0.0004822978,2.872,0,0
-0.00253153,-0.0004143380000000001,-0.0023392764,-0.0017322454000000002,-0.0009154144000000001,2.873,0,0
-0.002411794,0.002328362,-0.0024249220000000004,-0.0017953754000000002,-0.0008182980000000001,2.874,0,0
-0.0019601339999999997,0.00400791,-0.0030533160000000004,-0.00160417,-0.0005712016000000001,2.875,0,0
-0.001354146,0.00491284,-0.002264242,-0.0011008668,-0.0006897160000000002,2.876,0,0
0.0006814799999999999,0.005293832,-0.0018130720000000002,-0.0005567282,-0.000633658,2.877,0,0
0.002961422,0.005261332,-0.00231837,0.00011608299999999993,-0.00018160540000000002,2.878,0,0
0.00376207,0.004780588,-0.0015198780000000001,0.00047951159999999994,-0.00020463540000000008,2.879,0,0
0.0040388308000000005,0.004074878200000001,0.0001841639999999999,6.021539999999999e-05,-0.00020709520000000006,2.88,0,0
0.0041253128,0.0029523744,0.0015100819999999998,9.89539999999998e-06,0.000270159,2.881,0,0
0.0030403808000000004,0.001961842,0.003377766,0.0005772328,-6.701320000000006e-05,2.882,0,0
0.0018004668,0.0014809640000000002,0.005381674,0.0012533816,-0.0008558478,2.883,0,0
0.0018557848,0.0009300440000000001,0.006303796,0.002078215,-0.0010994992,2.884,0,0
0.0017033108,0.0006428862000000001,0.006478942000000001,0.0030016091999999998,-0.0013465278,2.885,0,0
0.001457264,0.0003631020000000001,0.00571374,0.003399814,-0.0018804560000000002,2.886,0,0
0.0010908693999999999,-0.0013965296000000003,0.0030085719999999993,0.003065756,-0.0014552388,2.887,0,0
-0.00035950459999999995,-0.0036359516000000003,-0.002209682000000001,0.0022871488,-0.0005838124000000001,2.888,0,0
-0.0008371482600000001,-0.0038050852000000007,-0.007686476000000001,0.0014469038000000003,-0.0006066884000000001,2.889,0,0
-0.0005297566600000001,-0.0039669836000000005,-0.009594882,0.0010660498000000002,-0.00040496840000000004,2.89,0,0
-0.00163881986,-0.005001161600000001,-0.00891408,0.0007672188,0.00030839560000000003,2.891,0,0
-0.00257337726,-0.0032493038000000005,-0.008214764,0.0007845988000000001,0.00034038580000000007,2.892,0,0
-0.00214992726,-0.0006577178000000001,-0.005322928000000001,0.001421284,6.910200000000006e-05,2.893,0,0
-0.0029781495999999996,-0.0003482402000000001,-0.0009019219999999999,0.0016454930000000003,0.000558448,2.894,0,0
-0.004277758,0.0002486358,0.0007441160000000001,0.0012525450000000003,0.000934194,2.895,0,0
-0.0037796240000000005,0.0015248344800000001,0.0005397360000000001,0.0009638360000000001,0.0005289784,2.896,0,0
-0.0030883536,0.00061761268,0.0012403140000000002,0.00028933799999999993,0.0006539018,2.897,0,0
-0.0027229026000000003,-0.00112885132,0.00195082,-0.00079991,0.0012773192,2.898,0,0
-0.0013505566,-0.00166833112,0.001841034,-0.0015011500000000001,0.001137387,2.899,0,0
0.00020735339999999988,-0.00182144852,0.00153347,-0.0020964900000000003,0.0006922186000000001,2.9,0,0
0.0004620774000000001,-0.0011490932000000002,0.0011368002000000002,-0.002447378,0.0008715233999999999,2.901,0,0
0.0006183872,0.0006554748,0.0006814038,-0.00229242,0.0008012914,2.902,0,0
0.0007160064000000001,0.0023674828,2.661180000000001e-05,-0.0023308480000000004,0.0005294274,2.903,0,0
-0.0005525056,0.0031351826,-0.0010135722,-0.002310386,0.0010532496000000002,2.904,0,0
-0.0016510176,0.003383934,-0.0020200082,-0.0018638828000000001,0.001556268,2.905,0,0
-0.0018792756000000003,0.0031701940000000003,-0.0018798624,-0.0014960314000000002,0.0014418626000000001,2.906,0,0
-0.0014915878,0.002573824,-0.0010061439999999996,-0.0011270313999999998,0.0012980068,2.907,0,0
0.0003984400000000001,0.0019994934,-0.00035317199999999985,-0.0005211848000000001,0.0013269748,2.908,0,0
0.003447342,0.0018996694000000002,0.0006975200000000001,9.746239999999998e-05,0.0009592528000000001,2.909,0,0
0.0059514780000000005,0.0019893554,0.0018618540000000002,0.0005033892000000001,0.0006654868,2.91,0,0
0.007047922000000001,0.0010086474000000002,0.001963938,0.0006724300000000001,0.000944967,2.911,0,0
0.006762194,-0.0005345825999999999,0.001612464,0.0006159512000000001,0.0009453114,2.912,0,0
0.0048063564000000005,-0.00218503,0.0014817282000000001,0.0004838188000000001,0.0004434693999999999,2.913,0,0
0.0018811884,-0.004172842,0.0009368562000000001,1.858560000000004e-05,-1.1407599999999996e-05,2.914,0,0
-0.0005091776000000001,-0.005809408,0.0007931302,-0.0005591144,-0.0003874276,2.915,0,0
-0.0017358436000000001,-0.005938108,0.0011789742,-0.0007178356,-0.0007428902,2.916,0,0
-0.0023216756000000002,-0.0046729412,0.0012281522,-0.0007074512000000001,-0.0005608423999999999,2.917,0,0
-0.0022599240000000004,-0.0027229192,0.0012589728,-0.0005546748000000002,-0.0002652948,2.918,0,0
-0.0015994102000000004,-0.0007247871999999999,0.0014143076,-2.094880000000002e-05,-0.0005338478000000001,2.919,0,0
-0.0011411572000000001,0.0005345892000000001,0.0013900156,0.0006106652,-0.0007732658,2.92,0,0
-0.0008770712000000001,0.0010379930000000003,0.0009546676,0.0008850214000000001,-0.0006841350000000001,2.921,0,0
-0.0008520332,0.0009830242000000002,0.0009433476,0.0011283298,-0.0009848402000000001,2.922,0,0
-0.0013474272,0.0009003122000000001,0.0015832988000000002,0.001198087,-0.0017166118,2.923,0,0
-0.0019425090000000002,0.0012227382,0.001569873,0.0010798122,-0.0019670498,2.924,0,0
-0.0021187220000000004,0.0021894918000000003,0.0004236350000000001,0.0009517251999999999,-0.0020758778,2.925,0,0
-0.0022787700000000003,0.0037149740000000002,-0.0011554030000000002,0.0007743519999999999,-0.00277058,2.926,0,0
-0.002330734,0.005525852,-0.0028338090000000005,0.0004732472,-0.0028134864,2.927,0,0
-0.0019515110000000002,0.006685904,-0.004766937000000001,-0.0002620406,-0.0021297736,2.928,0,0
-0.0018406430000000003,0.006584978,-0.005186746000000001,-0.0010291718,-0.0019266736,2.929,0,0
-0.0012553450000000002,0.005349272600000001,-0.002730802000000001,-0.0013877806000000001,-0.0014334492000000001,2.93,0,0
0.0004495129999999997,0.0023342746000000005,0.00028991999999999993,-0.0013337893999999999,-0.0006580750000000002,2.931,0,0
0.0016317649999999999,-0.0013751094,0.002202302,-0.0011300006,-0.0009331606000000001,2.932,0,0
0.0018227821999999999,-0.0037299793999999997,0.004580994,-0.0005510206000000001,-0.0012121354000000002,2.933,0,0
0.00223366164,-0.004833725400000001,0.006516748,9.930331999999996e-05,-0.00035019739999999993,2.934,0,0
0.0027063356400000003,-0.004954066,0.00531298,0.0006163331200000001,0.00038396420000000016,2.935,0,0
0.0022777796400000002,-0.0032370092000000004,0.003645104,0.0011151419200000003,0.0008048580000000001,2.936,0,0
0.0018022576400000003,-0.0010898212,0.0030835632,0.00148605792,0.001753584,2.937,0,0
0.0018605468400000001,-0.0009416952000000001,0.0014015352,0.0017637699200000001,0.0023348180000000002,2.938,0,0
0.0014955814,-0.0018329472000000002,-0.0007277988,0.001467388,0.0018800409999999998,2.939,0,0
0.00036971539999999987,-0.0020665452,-0.0019959608,0.0010244776000000002,0.0014826729999999999,2.94,0,0
-0.0012717426000000002,-0.0027275100000000003,-0.0030583128,0.00045944000000000003,0.001495013,2.941,0,0
-0.0023156506,-0.0035453040000000004,-0.004148932,-0.000555916,0.001212879,2.942,0,0
-0.002618094,-0.0026806718,-0.003855466,-0.0009740736000000001,0.0008481795999999999,2.943,0,0
-0.002710986,-0.0014901902,-0.002542996,-0.0005332659999999999,0.0012663786,2.944,0,0
-0.0013308160000000003,-0.0012106762000000002,-0.0013458920000000004,-0.0003459321999999999,0.0015496286000000001,2.945,0,0
0.0010448480000000001,-0.0007113118,7.392e-05,-0.00032669460000000003,0.0011200770000000001,2.946,0,0
0.002145222,2.7062199999999966e-05,0.0009697290000000001,5.39894e-05,0.0012903430000000002,2.947,0,0
0.0022844254000000002,0.00047578399999999993,0.0004206809999999999,0.00030600360000000005,0.0014559254000000002,2.948,0,0
0.0021446954,0.0014909404,-0.0006801490000000001,0.0003177766,0.0006673174000000001,2.949,0,0
0.0005145713999999998,0.0031227824,-0.0011384490000000001,0.00032533020000000005,-0.0003688446,2.95,0,0
-0.0011493296000000001,0.004469972,-0.0009224110000000002,0.00023392380000000003,-0.0009692830000000001,2.951,0,0
-0.0012559656000000002,0.005174092,0.0004819080000000001,0.00015942060000000006,-0.0014076638,2.952,0,0
-0.0007245790000000002,0.005320976000000001,0.002349686,-0.000163664,-0.0015492848000000002,2.953,0,0
-3.737600000000064e-06,0.004586906,0.003435914,-0.0007258726,-0.0006183848000000001,2.954,0,0
-0.00021524959999999992,0.002296938,0.002693054,-0.0009214792000000001,0.00023450720000000002,2.955,0,0
-0.0013061585999999997,-0.00013440399999999986,-0.0008020300000000005,-0.0009897058,0.0004083572,2.956,0,0
-0.0021348426000000003,-0.0011123898000000001,-0.004627164000000001,-0.0010362732000000002,0.0008029220000000001,2.957,0,0
-0.0031264446,-0.0018764608,-0.006664086000000001,-0.0008782436,0.0010735200000000001,2.958,0,0
-0.004112010000000001,-0.0031362307999999997,-0.006097682000000001,-0.0007862676000000001,0.0006629052,2.959,0,0
-0.004097052,-0.0033332708,-0.0022347240000000004,-0.0008715200000000001,0.0004877194,2.96,0,0
-0.003167576,-0.0030137788,0.0027302760000000002,-0.0004968550000000001,0.0009430264,2.961,0,0
-0.0012759060000000003,-0.003342799,0.0053159680800000005,-0.00035784004000000006,0.00043984600000000003,2.962,0,0
0.000601936,-0.0038861760000000007,0.0057512720800000005,-0.0006582216400000001,-0.000640338,2.963,0,0
0.0020553180000000004,-0.0045438300000000004,0.004062622080000001,-0.00074996364,-0.0013220392000000002,2.964,0,0
0.004467222,-0.004179652000000001,-0.0005054599200000002,-0.00108599364,-0.0024434573999999997,2.965,0,0
0.005760282,-0.0025153360000000004,-0.0038543439200000003,-0.0013108056400000002,-0.0039362864,2.966,0,0
0.0043616938,-0.0008760860000000001,-0.004135362000000001,-0.0012433314000000002,-0.004362656,2.967,0,0
0.0028011337999999998,0.0010903839999999998,-0.003920272,-0.0008512270000000001,-0.0037076224,2.968,0,0
0.0025547858,0.00436917,-0.003129968,-0.00011315699999999996,-0.0036241604,2.969,0,0
0.0032165658000000005,0.0070871580000000005,-0.0012518800000000001,0.0004691878,-0.0029578164000000004,2.97,0,0
0.0039712858,0.007075368,-0.00046033199999999993,0.0007155558,-0.0010401704000000001,2.971,0,0
0.003946418,0.005295074,-0.00027799519999999997,0.0011758812000000002,-7.248400000000146e-06,2.972,0,0
0.0033685160000000002,0.003752447200000001,0.0007488148,0.0014754988000000003,0.00014442399999999998,2.973,0,0
0.0019394279999999998,0.0023050016000000003,0.0009274868000000002,0.00114126064,0.0006463299999999999,2.974,0,0
-0.0008332300000000001,0.0003207676000000001,0.0010113988000000002,0.0007557858400000003,0.0004876999999999999,2.975,0,0
-0.0026828652,0.00025010160000000007,0.0026957628000000003,0.00010076184000000005,-0.0006940400000000002,2.976,0,0
-0.0026257394,0.0021329256,0.003811454,-0.0004479221600000001,-0.00080382,2.977,0,0
-0.0021365634,0.0034960704,0.0033897080000000004,-7.592816000000007e-05,0.0001869319999999999,2.978,0,0
-0.0018770354000000001,0.0042313820000000005,0.003158422,0.001204098,0.001115414,2.979,0,0
-0.0023079994000000004,0.003919576000000001,0.0029949864000000004,0.003095576,0.00305433,2.98,0,0
-0.0033132642000000007,0.0014235740000000004,0.0015369344000000001,0.0049806600000000005,0.006043274,2.981,0,0
-0.0044038620000000014,-0.002561336,0.00024111639999999996,0.006566274,0.008168166000000001,2.982,0,0
-0.0045699320000000005,-0.006222918,0.0001752444,0.007673438,0.009575674,2.983,0,0
-0.0037122112000000005,-0.009002674,-0.0003023096,0.007935122,0.011225248000000002,2.984,0,0
-0.0031023692000000003,-0.010171212,-0.0009296240000000001,0.007479656,0.011550686000000001,2.985,0,0
-0.00214054,-0.008617231,-0.0008347506,0.006365794,0.009960150000000003,2.986,0,0
-6.720200000000004e-05,-0.005492869,-0.0010383406,0.0043250599999999995,0.008182822000000001,2.987,0,0
0.001145068,-0.0032838822,-0.0020338046000000004,0.0014009280000000003,0.00580807852,2.988,0,0
0.0005265872,-0.0019590022,-0.0018623514,-0.0018829680000000003,0.0024937185200000003,2.989,0,0
0.00040280920000000013,-0.0009307302,-0.0008699954000000001,-0.0048995,1.900052000000001e-05,2.99,0,0
0.0006843795999999998,-0.0007080414000000001,-0.0009762648000000002,-0.007780866000000001,-0.00216524948,2.991,0,0
-0.00018529140000000005,-0.0006201694,-0.0008192627999999999,-0.010076786,-0.005319441480000001,2.992,0,0
-0.0006435094000000001,-1.98962e-05,0.0002251892,-0.010452184,-0.008224958000000001,2.993,0,0
0.0007553186,0.0010480958,0.000579914,-0.009623026000000002,-0.010107398000000002,2.994,0,0
0.0036766366,0.0019933718,5.8860399999999874e-05,-0.00818773,-0.011585406000000003,2.995,0,0
0.007289047,0.002236886,0.00035224279999999995,-0.0052986019999999995,-0.011756036000000003,2.996,0,0
0.010205160000000001,0.002376454,0.0007309476,-0.00203514,-0.009957738,2.997,0,0
0.011382482000000001,0.003164632,0.0006418796,-6.743200000000003e-05,-0.008019822000000001,2.998,0,0
0.0104707838,0.003044366,0.0015852276,0.0011668700000000004,-0.00666039,2.999,0,0
0.006911807800000001,0.0025848538000000005,0.0032868172,0.0017245046,-0.005153378,3.0,0,0
0.0013352538000000005,0.0038108558000000004,0.0045916508,0.0010795606,-0.00321731,3.001,0,0
-0.0048094062,0.004839789800000001,0.005160404,0.00013438860000000003,-0.00208775,3.002,0,0
-0.0094390662,0.0051205158,0.00411673,-0.0007466534,-0.00134214,3.003,0,0
-0.010809682,0.0052765338,0.0010353060000000002,-0.0012272376,0.00043200200000000007,3.004,0,0
-0.011059678,0.0037016720000000005,-0.003429414,-0.0005519402000000001,0.001569066,3.005,0,0
-0.010680636,0.0005521480000000004,-0.009113389999999999,0.0006722238000000001,0.001895378,3.006,0,0
-0.0073136772,-0.0015932739999999998,-0.012884444,0.0014229657999999998,0.003186,3.007,0,0
-0.003637571200000001,-0.0030278832,-0.013361679999999999,0.0020913378,0.005426534,3.008,0,0
-0.0024828972,-0.0044074492,-0.010957644,0.0022901162,0.006202434,3.009,0,0
-0.0005391832,-0.004406571200000001,-0.004923144000000001,0.0009875042000000002,0.0061195239999999995,3.01,0,0
0.0025297368,-0.0040757832,0.001804436,-0.0007940398,0.00609024,3.011,0,0
0.002894896,-0.0040062592,0.006121668000000001,-0.0011636396000000002,0.0038525800000000004,3.012,0,0
0.00178187,-0.0037269620000000008,0.008538548,-0.0005391775999999999,0.000566202,3.013,0,0
0.0005674680000000002,-0.0027747456,0.00864792,-0.0001356558,-0.0018972980000000004,3.014,0,0
-0.002554934,-0.00042645559999999994,0.00595884,0.0007541822,-0.00389228,3.015,0,0
-0.006989802,0.0018389424000000002,0.004913326,0.0017579402,-0.005760744,3.016,0,0
-0.010598340000000001,0.0023026792000000003,0.005836274,0.001336256,-0.006713962,3.017,0,0
-0.01218258,0.0018283648000000003,0.005352818,-0.000726684,-0.007099927999999999,3.018,0,0
-0.011311186,0.0023226524000000003,0.0028257199999999994,-0.003297838,-0.0073129,3.019,0,0
-0.007989554000000001,0.0030067044000000004,-0.0009516200000000002,-0.0054033480000000005,-0.007075584000000001,3.02,0,0
-0.002647593999999999,0.0027638564000000004,-0.005182286000000001,-0.0067116,-0.006751884000000001,3.021,0,0
0.0037280860000000007,0.0020556916,-0.009180464000000001,-0.005740873999999999,-0.0051087182,3.022,0,0
0.010800166,0.0017516240000000005,-0.010561748000000001,-0.001012536,-0.0020079122,3.023,0,0
0.017598112,0.0009805731999999998,-0.00944675,0.005765504000000001,0.0025365458000000006,3.024,0,0
0.020588460000000003,-0.0013439488,-0.005818252,0.011320464,0.0084908458,3.025,0,0
0.019471422000000002,-0.0026229008000000003,-0.0005405119999999995,0.014775994,0.014478809799999999,3.026,0,0
0.015896164,-0.0023587868,0.0031021300000000003,0.014758006,0.019513862,3.027,0,0
0.009856792000000001,-0.0026302988,0.0057255380000000005,0.009566670000000001,0.02174966,3.028,0,0
0.0038914163999999997,-0.0030007740000000003,0.008739734,0.0016008299999999993,0.017319638000000002,3.029,0,0
0.0003564004,-0.002221531,0.009352214000000001,-0.0066132100000000004,0.006072598000000002,3.03,0,0
-0.00101194272,-0.001361723,0.006769034000000001,-0.012898550000000002,-0.0048360619999999995,3.031,0,0
-0.00116938272,-0.0011115124000000002,0.00435083,-0.014950478000000001,-0.010915958,3.032,0,0
0.00332332928,-6.668240000000006e-05,0.0012414320000000002,-0.012550418,-0.011251217999999999,3.033,0,0
0.01685904488,0.0017715276000000002,-0.002333888,-0.006434058,-0.004634275999999999,3.034,0,0
0.03365994088,0.0030792046000000005,-0.0036394300000000004,0.002521702,0.006979524000000001,3.035,0,0
0.046057922,0.0038057026000000004,-0.00364167,0.012080402,0.017478024,3.036,0,0
0.05311942000000001,0.0039286162,-0.0034807760000000005,0.019600984,0.023018800000000002,3.037,0,0
0.048627444000000006,0.0026973142,-0.002932148,0.0257861,0.02544816,3.038,0,0
0.024539704000000002,-0.0011295398,-0.0017535924000000004,0.030854059999999996,0.027227520000000005,3.039,0,0
-0.011979636000000002,-0.0061659878,-0.0009437044000000002,0.03222838,0.027757300000000006,3.04,0,0
-0.04950217600000001,-0.0087483538,-0.0012538604000000004,0.027902975999999996,0.022977354400000004,3.041,0,0
-0.083485556,-0.009641604,-0.0010689904,0.018693855999999995,0.011232954400000002,3.042,0,0
-0.10958098,-0.009931202,0.0007678256,0.006796455999999998,-0.005307845599999999,3.043,0,0
-0.12160520000000001,-0.007861084,0.0020038620000000004,-0.007573584,-0.0241994056,3.044,0,0
-0.11596178000000001,-0.0039515156,0.00210616,-0.023186284,-0.0439106456,3.045,0,0
-0.09735588,-0.0017478016,0.003850754,-0.035477720000000004,-0.058566560000000004,3.046,0,0
-0.070940002,-0.0005575656000000001,0.005183480000000001,-0.042406040000000006,-0.06257868,3.047,0,0
-0.03758758200000001,0.0018314284,0.003402292,-0.04684,-0.06015282,3.048,0,0
-0.0024270620000000024,0.004765950400000001,0.0013393679999999999,-0.0483849,-0.05412648000000001,3.049,0,0
0.028032518,0.008614302,-0.00044442600000000015,-0.045072720000000004,-0.042043180000000006,3.05,0,0
0.053419578,0.012684916000000001,-0.003794524,-0.03898228,-0.026747600000000007,3.051,0,0
0.07446169999999999,0.016231042,-0.006827674000000001,-0.03136216000000001,-0.013862526000000002,3.052,0,0
0.08793046,0.01807094,-0.007069296,-0.023686493999999995,-0.003948160000000001,3.053,0,0
0.09318884000000001,0.017074576,-0.0064036200000000005,-0.01725985,0.0027449400000000004,3.054,0,0
0.09417720000000002,0.012807274,-0.005723558,-0.010718734599999998,0.006296640000000001,3.055,0,0
0.09289966000000002,0.007136366,-0.002934338,-0.004140606600000001,0.008402340000000001,3.056,0,0
0.08543008000000002,0.0028739380000000004,0.0005729940000000003,0.0014037933999999999,0.010687686,3.057,0,0
0.07049152,-0.00021725560000000017,0.0021921640000000004,0.008251367400000001,0.015624420000000002,3.058,0,0
0.05096337200000001,-0.0016880516000000003,0.003201718,0.018071963400000002,0.022946420000000002,3.059,0,0
0.03204993200000001,-0.0017646796,0.00466083,0.028503867999999998,0.030749620000000005,3.06,0,0
0.023960952,-0.0025425756000000002,0.004962972,0.0384361,0.03779094,3.061,0,0
0.023459252,-0.0060674676,0.00501416,0.0482536,0.04329452,3.062,0,0
0.023463432000000003,-0.010575374000000002,0.005544456,0.05652298,0.04665184000000001,3.063,0,0
0.027395460000000003,-0.013728154,0.005117524,0.06089622,0.04812512000000001,3.064,0,0
0.027251232,-0.016033984,0.0042662662,0.06205316,0.0483663,3.065,0,0
0.007255571999999995,-0.01693654,0.0037573702000000004,0.05899158,0.0458136,3.066,0,0
-0.027590348,-0.01554426,0.0024234332,0.04896624,0.03944616,3.067,0,0
-0.063648348,-0.013245840000000002,0.0010106230000000002,0.03448475,0.029747740200000004,3.068,0,0
-0.102105528,-0.011853216000000001,0.0008290634,0.01824957,0.014725860200000003,3.069,0,0
-0.13464202000000003,-0.009834452,0.0003351872,-0.00015576999999999952,-0.005452359799999999,3.07,0,0
-0.1474538,-0.006472698,-0.0010557068,-0.018054670000000002,-0.025110479800000002,3.071,0,0
-0.14250469999999998,-0.001481178,-0.0024978878,-0.03238171,-0.042422539800000006,3.072,0,0
-0.12658532,0.003889442,-0.0032158516000000002,-0.0443384,-0.05663096,3.073,0,0
-0.09997476000000002,0.009116458000000001,-0.004128054000000001,-0.05328824,-0.062042719999999996,3.074,0,0
-0.065765402,0.014365974,-0.005407024,-0.057060780000000005,-0.058894800000000004,3.075,0,0
-0.034261622000000005,0.01546171,-0.005389514000000001,-0.054245180000000004,-0.05105764,3.076,0,0
-0.002910802000000004,0.013318702000000002,-0.0042589886,-0.045351800000000005,-0.038062953999999996,3.077,0,0
0.031650158000000005,0.011231072000000002,-0.0031498006000000005,-0.033352656,-0.023070290000000004,3.078,0,0
0.061709398,0.008635706,-0.0014320586000000006,-0.021093057999999998,-0.01086,3.079,0,0
0.08111398,0.005814420000000001,0.0011538553999999998,-0.010750485400000002,-0.0010352400000000006,3.08,0,0
0.08856378000000001,0.005124236,0.0028152374,-0.0047511714,0.00573612,3.081,0,0
0.08706848000000002,0.0055151340000000005,0.0036142039999999998,-0.0025458414,0.008478616000000001,3.082,0,0
0.07913484000000001,0.005878418000000001,0.004056242,-0.0006663113999999998,0.010030892,3.083,0,0
0.0639402,0.0065692400000000005,0.0035679200000000005,0.0013029006000000003,0.012069282,3.084,0,0
0.043187168000000005,0.005132422,0.0023245580000000004,0.0030316440000000004,0.013951542,3.085,0,0
0.023900928000000002,0.0026268380000000003,0.0012678859999999998,0.005554076,0.016273002,3.086,0,0
0.011613079,0.0007341600000000002,-4.779200000000006e-05,0.008730606,0.01988758,3.087,0,0
0.005092739,-0.001481226,-0.0023983880000000004,0.011874632,0.0243712,3.088,0,0
0.003994739,-0.004026756,-0.004433436000000001,0.015755362000000002,0.02939882,3.089,0,0
0.007436371000000001,-0.00542631,-0.005953966000000001,0.020977946,0.034708140000000005,3.09,0,0
0.009297404999999998,-0.0056064,-0.007581242000000001,0.0274277,0.040446960000000004,3.091,0,0
0.008381798000000001,-0.006174344,-0.00781252,0.032569020000000004,0.04322728000000001,3.092,0,0
0.005860098000000001,-0.006690024,-0.00493479,0.03451432,0.03982974,3.093,0,0
-9.559999999996568e-07,-0.006943347999999999,-0.000581046,0.03541498,0.03329246,3.094,0,0
-0.007060716,-0.007510594,0.003054054,0.03511662,0.0258787,3.095,0,0
-0.00978119,-0.008033986,0.007081978000000001,0.031016919999999996,0.01797756,3.096,0,0
-0.013307354,-0.008802694,0.01081464,0.024730098000000002,0.01223002,3.097,0,0
-0.022032914,-0.00901371,0.0106466,0.01790061,0.008413974,3.098,0,0
-0.02585196,-0.007562096000000001,0.008076382600000001,0.007024330000000001,0.0005802939999999994,3.099,0,0
-0.022364332,-0.005260522,0.0059732606,-0.00793737,-0.013992286,3.1,0,0
-0.019061298,-0.0016990159999999998,0.0022748246000000006,-0.02453249,-0.034732426000000004,3.101,0,0
-0.016621498000000002,0.001786908,-0.0024074734,-0.041256968000000005,-0.057878066000000006,3.102,0,0
-0.013329578,0.003681340000000001,-0.0050900494,-0.05373216,-0.0735808,3.103,0,0
-0.013261778,0.0045714760000000005,-0.0067435460000000004,-0.05847676,-0.0765789,3.104,0,0
-0.017273026,0.004346178000000001,-0.008059292,-0.05640476,-0.07026800000000001,3.105,0,0
-0.017714244000000004,0.00386065,-0.00811131,-0.0487038,-0.0567435,3.106,0,0
-0.010007904000000001,0.0047546,-0.007670466,-0.0376455,-0.03896414,3.107,0,0
0.005146796000000001,0.006666916,-0.006961238,-0.02846398,-0.025762180000000003,3.108,0,0
0.025735876000000005,0.008050764,-0.0051697259999999995,-0.022864660000000002,-0.019765380000000003,3.109,0,0
0.046169736,0.010100872,-0.002215392,-0.01905832,-0.01596892,3.11,0,0
0.05876106000000001,0.011272833999999999,0.0008712000000000001,-0.014658144,-0.011336810000000001,3.111,0,0
0.05836296000000001,0.010324402,0.003947920000000001,-0.007198003999999999,-0.005897909999999999,3.112,0,0
0.04925712000000001,0.008703632000000001,0.007774188000000001,0.0043480160000000006,0.0008194499999999998,3.113,0,0
0.037351880000000004,0.006009836000000001,0.010213570000000002,0.019798816,0.01086293,3.114,0,0
0.026520940000000003,0.002883332,0.010368234,0.037776156,0.024274990000000003,3.115,0,0
0.02051686,-0.00017270999999999986,0.010212468,0.054339540000000006,0.036786740000000005,3.116,0,0
0.016480856000000002,-0.00296275,0.009084244000000002,0.06622204000000001,0.046630740000000004,3.117,0,0
0.008353936000000001,-0.005632160000000001,0.005438188,0.0732278,0.05624888000000001,3.118,0,0
-0.008014643999999998,-0.007915884,0.001708438,0.0748552,0.0648147,3.119,0,0
-0.027548643999999997,-0.010568440000000002,-0.00077339,0.07061404,0.07016332,3.12,0,0
-0.045552324,-0.013137337999999998,-0.004934722000000001,0.061388120000000004,0.07307272000000001,3.121,0,0
-0.0618716,-0.013851919999999998,-0.009959484000000001,0.04863954,0.07364278,3.122,0,0
-0.07370568,-0.013603429999999998,-0.012365568000000002,0.033331452000000004,0.0685785,3.123,0,0
-0.0797766,-0.012436349999999999,-0.013303040000000002,0.015593132000000003,0.0553602,3.124,0,0
-0.08346752,-0.010280144,-0.014042406000000002,-0.004896748,0.035563239999999996,3.125,0,0
-0.08599368,-0.007219266,-0.012023042000000001,-0.025890088,0.01192328,3.126,0,0
-0.08280546,-0.0032171020000000003,-0.007409577400000001,-0.044050028000000005,-0.01345358,3.127,0,0
-0.07402568000000001,0.001029008,-0.0029964774,-0.058808479999999996,-0.037529099999999996,3.128,0,0
-0.05935038,0.004472668000000001,0.0006262646000000001,-0.0690689,-0.05807783999999999,3.129,0,0
-0.03902413,0.006731148000000001,0.0044528086,-0.0729303,-0.07365522000000001,3.13,0,0
-0.01341145,0.008222694000000001,0.0085545846,-0.07034006000000001,-0.08212716,3.131,0,0
0.014858290000000005,0.007734924000000001,0.011936140000000001,-0.06347356000000001,-0.08229174,3.132,0,0
0.03966149000000001,0.0053697956,0.013996100000000001,-0.05456466000000001,-0.07517276,3.133,0,0
0.061852670000000005,0.0040797316,0.014259526000000002,-0.04506752,-0.0626707,3.134,0,0
0.08066426,0.004947485600000001,0.012632908,-0.035395300000000005,-0.04888612,3.135,0,0
0.09084066000000002,0.0063536616,0.009369042599999999,-0.025746186,-0.03802242,3.136,0,0
0.09147866,0.007905887600000001,0.0045774606,-0.0170763232,-0.02954758,3.137,0,0
0.0872526,0.009651846,-0.0015853194000000005,-0.0093520132,-0.023498059999999998,3.138,0,0
0.07920330000000002,0.010185694000000002,-0.006257385400000001,-0.0021987931999999997,-0.019639044,3.139,0,0
0.0670142,0.008731098,-0.0086641394,0.0050230868,-0.013929232000000001,3.14,0,0
0.05302706000000001,0.0064075916,-0.012036194,0.0117801728,-0.005720072,3.141,0,0
0.03961104,0.0044695416,-0.013867332,0.01787391,0.0011988480000000002,3.142,0,0
0.027896657999999998,0.0023228156000000004,-0.010519596,0.02401852,0.007547288000000001,3.143,0,0
0.01715694,-0.0005718644000000003,-0.005224616,0.02931708,0.015124812000000001,3.144,0,0
0.00683076,-0.0036841884000000003,0.0001358959999999995,0.03394172,0.021870060000000004,3.145,0,0
-0.00382674,-0.006488822,0.007800176000000001,0.03904822,0.028580520000000005,3.146,0,0
-0.01295186,-0.008796424,0.014954316000000002,0.043750620000000004,0.03652184000000001,3.147,0,0
-0.018606718,-0.009928536,0.0171267,0.04575976,0.04273782,3.148,0,0
-0.02437722,-0.009521724,0.015891260000000004,0.0450483,0.04541474,3.149,0,0
-0.0328532,-0.0075249800000000006,0.0124449832,0.0424598,0.046869280000000006,3.15,0,0
-0.04150426000000001,-0.004530442000000001,0.005917983200000001,0.03721476,0.047247380000000005,3.151,0,0
-0.049258260000000005,-0.0019892079999999997,-0.0016064967999999996,0.0286256,0.04342378000000001,3.152,0,0
-0.054213239999999996,4.546800000000022e-05,-0.0078901368,0.017998850000000004,0.036412440000000004,3.153,0,0
-0.05248068000000001,0.001352581,-0.013645596800000001,0.007833470000000002,0.029689682000000002,3.154,0,0
-0.04374902,0.001315483,-0.019119220000000003,-0.0027901099999999993,0.020375102,3.155,0,0
-0.030238358000000003,0.00039209499999999986,-0.0222041,-0.014618430000000002,0.006738101999999998,3.156,0,0
-0.01505999,-0.0008606050000000002,-0.023274140000000002,-0.024178770000000002,-0.005212078000000001,3.157,0,0
-0.0028632500000000008,-0.0025200870000000003,-0.021686820000000002,-0.030119800000000002,-0.014322458000000001,3.158,0,0
0.00458097,-0.0043188540000000004,-0.014357720000000001,-0.035275100000000004,-0.024461040000000003,3.159,0,0
0.00875085,-0.005126956,-0.003779720000000001,-0.04002108000000001,-0.033539580000000006,3.16,0,0
0.00973627,-0.0050066320000000004,0.00609546,-0.04207086,-0.038729120000000006,3.161,0,0
0.007569480000000001,-0.0045043346,0.014942879999999999,-0.0415184,-0.04150782000000001,3.162,0,0
0.0038577940000000003,-0.0028163586,0.02148144,-0.03809342,-0.04012232,3.163,0,0
0.00060258,0.00019460540000000017,0.02256726,-0.030037682000000003,-0.032354492000000006,3.164,0,0
-0.0021837379999999997,0.004024661400000001,0.0203153,-0.017227202000000004,-0.020855370000000005,3.165,0,0
-0.0037828694,0.0078638074,0.01809098,-0.0023587419999999996,-0.008129989999999998,3.166,0,0
-0.0031872831999999996,0.011022108000000001,0.014289776,0.012943498000000001,0.005919529999999999,3.167,0,0
0.004735782800000001,0.012869446000000001,0.008166377999999998,0.028944858000000004,0.01978579,3.168,0,0
0.0223414168,0.012211462000000001,0.0014141180000000002,0.04363574,0.031229282000000004,3.169,0,0
0.039527394800000004,0.008605682000000002,-0.005457242000000001,0.055126360000000006,0.042286840000000006,3.17,0,0
0.0479403042,0.0030758020000000003,-0.012959602000000002,0.06353196,0.053888780000000004,3.171,0,0
0.047074370000000004,-0.0020807540000000006,-0.018525938000000002,0.06754918,0.06194580000000001,3.172,0,0
0.032308090000000005,-0.007182154000000001,-0.020076720000000003,0.06533102,0.06499016,3.173,0,0
0.002168569999999998,-0.012120516000000001,-0.019062658,0.05871928,0.06573966,3.174,0,0
-0.02799115,-0.014208356000000004,-0.015576416,0.04845782,0.06172942000000001,3.175,0,0
-0.048004090000000006,-0.014099936000000002,-0.008392055999999998,0.032894375999999996,0.04812375600000001,3.176,0,0
-0.056770860000000006,-0.013386342,-1.7560000000003267e-06,0.013164216,0.028196056000000004,3.177,0,0
-0.054059220000000005,-0.011059554,0.006799283999999999,-0.007987484000000001,0.006784376,3.178,0,0
-0.0431273,-0.007419316000000001,0.013520222,-0.029757604000000003,-0.018414644,3.179,0,0
-0.028681278000000004,-0.0041409360000000004,0.02006202,-0.050970444000000004,-0.045640764,3.18,0,0
-0.014088838000000001,-0.000983596,0.023189460000000002,-0.06620196,-0.06556970000000001,3.181,0,0
-0.0017913580000000016,0.0018725680000000002,0.022178760000000002,-0.07325636,-0.0767772,3.182,0,0
0.008264161999999999,0.00443256,0.018758602,-0.07736432,-0.08580636,3.183,0,0
0.022990162,0.0077742620000000005,0.012251818000000001,-0.07909526,-0.09061406000000001,3.184,0,0
0.0414224,0.010848682,0.002299558,-0.07433864,-0.08553646000000001,3.185,0,0
0.05384468,0.012775162,-0.008243602000000001,-0.06551594,-0.07525648,3.186,0,0
0.05728666,0.014210960000000002,-0.017369382000000003,-0.05398162,-0.06269554,3.187,0,0
0.054848502,0.0146713,-0.025104444,-0.03627598,-0.045381654,3.188,0,0
0.042727560000000005,0.013604298,-0.029235380000000002,-0.01386308,-0.026005804,3.189,0,0
0.020903760000000004,0.011569538,-0.02845936,0.00729768,-0.009561423999999999,3.19,0,0
0.0014441199999999993,0.0084282428,-0.024506062,0.02445736,0.0039817360000000005,3.191,0,0
-0.01078484,0.003292902799999999,-0.014947681999999999,0.0370406,0.015783356000000002,3.192,0,0
-0.021110362,-0.0027245572000000008,-0.0011791019999999996,0.04423056,0.02572481,3.193,0,0
-0.030872660000000003,-0.0082575352,0.010187038,0.04720734,0.0355539,3.194,0,0
-0.03708666000000001,-0.0136478752,0.019687938000000002,0.04731992,0.043443140000000005,3.195,0,0
-0.04066356,-0.0172086,0.028467720000000002,0.04542754,0.048236060000000004,3.196,0,0
-0.04216874,-0.016973144000000003,0.0313465,0.04249734,0.052599820000000005,3.197,0,0
-0.040772020000000006,-0.014344642,0.028243419999999998,0.038986860000000005,0.05632178000000001,3.198,0,0
-0.03747298,-0.011189634,0.024381493999999997,0.03363176,0.05680394000000001,3.199,0,0
-0.03299172,-0.0069758584,0.017894354399999996,0.026141343999999997,0.05498710000000001,3.2,0,0
-0.027194360000000004,-0.0016876244000000003,0.006163434399999999,0.017486278,0.05262928000000001,3.201,0,0
-0.018961412000000004,0.0028710196000000005,-0.0070353856,0.0074841579999999994,0.046125580000000006,3.202,0,0
-0.006652772,0.006029397600000001,-0.0187531056,-0.0038050620000000005,0.03410511200000001,3.203,0,0
0.007957368000000003,0.0084747716,-0.0296808796,-0.015009262,0.018142392,3.204,0,0
0.021528968000000002,0.009005168000000001,-0.03772694,-0.023388686000000002,0.0008437120000000017,3.205,0,0
0.032411608,0.006459094000000001,-0.0376727,-0.02841908,-0.016805668,3.206,0,0
0.0391794,0.0031614280000000004,-0.030608706000000003,-0.03100474,-0.034706208,3.207,0,0
0.040786800000000005,5.0091999999999953e-05,-0.020189846,-0.0303288,-0.04925148,3.208,0,0
0.04092624,-0.002398638,-0.006747545999999999,-0.02644528,-0.057327340000000004,3.209,0,0
0.04357018,-0.001522212,0.0072861340000000005,-0.02088121,-0.05837846000000001,3.21,0,0
0.0472383,0.0017432680000000003,0.018374034,-0.014380002000000001,-0.05399156000000001,3.211,0,0
0.04902216,0.004637694,0.025932220000000002,-0.007684712000000001,-0.045180319999999996,3.212,0,0
0.04579906,0.00739833,0.030343500000000002,-0.0016397559999999998,-0.03430306,3.213,0,0
0.03748729420000001,0.010116838,0.0300463,0.00318754,-0.0215863996,3.214,0,0
0.0244125542,0.01126312,0.025606086,0.005341266,-0.0107490596,3.215,0,0
0.0067315142,0.01132062,0.018670742,0.005670822000000001,-0.0014644996000000004,3.216,0,0
-0.0119224658,0.01174478,0.008193102,0.004935381599999999,0.010430260400000002,3.217,0,0
-0.0279453458,0.011802420000000001,-0.004623478000000001,0.0029342456,0.018164780400000004,3.218,0,0
-0.04160574,0.010957094,-0.016252518,0.0011770884,0.019104072000000003,3.219,0,0
-0.054770540000000006,0.007530964,-0.024891244000000003,-0.0002919375999999998,0.016415218000000002,3.22,0,0
-0.06316302,0.0015412240000000003,-0.02983832,-0.0011982396,0.010203598000000001,3.221,0,0
-0.05952298000000001,-0.003782836,-0.028677660000000004,-0.00023994719999999997,0.0009601639999999995,3.222,0,0
-0.04259848000000001,-0.00757928,-0.021249824,0.0030273128,-0.0036950540000000006,3.223,0,0
-0.016996,-0.009921502,-0.009222964,0.0077624140000000005,-0.001974046,3.224,0,0
0.01241748,-0.009055406600000001,0.007065136000000001,0.013370164,0.004360248000000001,3.225,0,0
0.037365260000000004,-0.0053773638,0.024157656,0.018926142,0.015102328000000002,3.226,0,0
0.04821672,-0.0038569597999999995,0.038307816,0.02340884,0.025277622000000003,3.227,0,0
0.044062848,-0.0044506758,0.04817064,0.026325780000000003,0.03284406,3.228,0,0
0.027474587999999998,-0.0046433118,0.05137496000000001,0.027018160000000003,0.03707982,3.229,0,0
0.003393808,-0.0056643352000000004,0.04473996000000001,0.025897840000000002,0.038681,3.23,0,0
-0.020189272,-0.006673028000000001,0.029116960000000004,0.022255488000000004,0.03704422,3.231,0,0
-0.039412872,-0.005311914000000001,0.007979420000000003,0.016441302,0.0321038,3.232,0,0
-0.05249526000000001,-0.0027023380000000003,-0.0166921,0.009050564,0.024270684,3.233,0,0
-0.058537120000000005,-0.0011416520000000002,-0.040747179999999994,-0.00046409600000000065,0.012452044000000002,3.234,0,0
-0.056563,-8.605419999999997e-05,-0.057289639999999996,-0.011070956,-0.003680036000000001,3.235,0,0
-0.045283452,-0.00017771620000000014,-0.06356954000000001,-0.020581064,-0.021775696,3.236,0,0
-0.028999692,-0.0017269482000000001,-0.06224953999999999,-0.027544178,-0.036945716,3.237,0,0
-0.013197692,-0.0040888862,-0.05119622000000001,-0.03273132,-0.04730166,3.238,0,0
0.0015380279999999994,-0.0064714682,-0.030498500000000005,-0.03554686,-0.05204148,3.239,0,0
0.013862948,-0.006991844,-0.010658660000000004,-0.0352725,-0.05073058,3.24,0,0
0.021720820000000002,-0.005931596399999999,0.005130919999999999,-0.03334032000000001,-0.04576458,3.241,0,0
0.027842000000000002,-0.0042180164,0.02230544,-0.030273960000000003,-0.040053559999999995,3.242,0,0
0.034133880000000005,-0.0011953224,0.03460504,-0.024375306,-0.030974466,3.243,0,0
0.03926686,0.0020102116,0.036700699999999996,-0.015590158,-0.017396406,3.244,0,0
0.04270858,0.0028679636,0.03823382,-0.0048526579999999975,-0.0013792660000000023,3.245,0,0
0.04254596,0.00258359,0.039323000000000004,0.008792342,0.017793954,3.246,0,0
0.03682088,0.0009926560000000002,0.037507780000000004,0.022940122,0.037132574,3.247,0,0
0.026107302000000002,-0.002782896,0.038426680000000005,0.033679728,0.05075496,3.248,0,0
0.011879302000000001,-0.0059533699999999995,0.03538406,0.03917196,0.05572872,3.249,0,0
-0.005038438000000001,-0.007423516,0.019646560000000004,0.0386351,0.05273342,3.25,0,0
-0.022214158000000005,-0.006254746,-0.001397879999999999,0.033633420000000004,0.04420236,3.251,0,0
-0.034444958,-7.60380000000005e-05,-0.02694546,0.02595604,0.03348224,3.252,0,0
-0.0397104,0.010010182,-0.06083766,0.017040038,0.022842185999999997,3.253,0,0
-0.0393733,0.020445482,-0.08909248,0.0096773112,0.012608802,3.254,0,0
-0.03420672,0.028985892,-0.10151044000000001,0.0037292232000000003,0.0012106020000000007,3.255,0,0
-0.024795810000000005,0.027896629000000003,-0.09603138,-0.0034249167999999995,-0.012999298,3.256,0,0
-0.01293897,0.012448988999999997,-0.06459701999999999,-0.012207576800000002,-0.028909338000000003,3.257,0,0
-0.0016679899999999994,-0.005457131000000002,-0.01130242,-0.0214474948,-0.044254004,3.258,0,0
0.01004271,-0.017185791000000002,0.03975318,-0.027467628,-0.05279222,3.259,0,0
0.025833290000000002,-0.025163081000000004,0.07893322,-0.02674956,-0.04998728,3.26,0,0
0.0422179,-0.025836022,0.10347488,-0.02118524,-0.039006782,3.261,0,0
0.05249090000000001,-0.016485614,0.09991044,-0.011762059999999998,-0.021524622,3.262,0,0
0.05567544,-0.007539698000000001,0.07377938,0.001153100000000001,0.0015381979999999993,3.263,0,0
0.0517829,-0.005358760000000001,0.046416210000000006,0.011236040000000001,0.022598238,3.264,0,0
0.038006796,-0.005992760000000001,0.024505390000000002,0.015222600000000001,0.036524738,3.265,0,0
0.017050555999999998,-0.008088108,0.0033497300000000004,0.015002144000000002,0.04474742,3.266,0,0
-0.0034219440000000005,-0.010452596000000001,-0.01402853,0.011361468000000001,0.045033500000000004,3.267,0,0
-0.019296604000000002,-0.010658272000000002,-0.02641775,0.005294516000000001,0.035271212,3.268,0,0
-0.029386624,-0.008418930000000002,-0.03224218,-0.001664384,0.019747611999999998,3.269,0,0
-0.032637280000000005,-0.0028651400000000013,-0.0311861,-0.008501544,0.003108232,3.27,0,0
-0.029749100000000004,0.00836228,-0.023346740000000005,-0.014691308,-0.014781268000000002,3.271,0,0
-0.022214576000000003,0.02225278,-0.007458319999999999,-0.020701152,-0.032888088,3.272,0,0
-0.011325556,0.0366008,0.00577996,-0.02548834,-0.045776880000000006,3.273,0,0
-0.0006769160000000014,0.0509482,0.009310659999999998,-0.02613576,-0.051199220000000004,3.274,0,0
0.007713064,0.058776480000000006,0.0051540200000000005,-0.023139290000000003,-0.05021076000000001,3.275,0,0
0.014186444,0.05797882,-0.0048569000000000025,-0.018275270000000003,-0.04189561000000001,3.276,0,0
0.01805742,0.04780728199999999,-0.019172180000000004,-0.011283038,-0.026767590000000004,3.277,0,0
0.02031156,0.025651082,-0.02666394,-0.004145966,-0.010452930000000001,3.278,0,0
0.02112396,-0.006196097999999999,-0.022851844,0.000263102,0.0028051900000000004,3.279,0,0
0.018390544,-0.034604977999999995,-0.017073948000000002,0.002534548,0.01091485,3.28,0,0
0.0144323994,-0.047626258000000005,-0.016074048,0.0044059220000000005,0.012677666,3.281,0,0
0.010160891400000002,-0.045779200000000006,-0.020924068,0.0058592,0.010468372600000001,3.282,0,0
0.0023820313999999994,-0.035275446,-0.024966708,0.0072873799999999996,0.0070853686,3.283,0,0
-0.0053504486,-0.022013146000000004,-0.028600064,0.009267632000000001,0.0032761066,3.284,0,0
-0.0095749726,-0.009747346,-0.03129684,0.011411856000000001,0.0009150866000000001,3.285,0,0
-0.015196028,-0.008171346,-0.023846825999999998,0.013632301999999999,0.0022055806,3.286,0,0
-0.023636460000000005,-0.018074546,-0.002287806,0.015476012,0.005162334000000001,3.287,0,0
-0.03146534,-0.028467460000000003,0.025189594,0.016940180000000003,0.008437078,3.288,0,0
-0.038816340000000005,-0.0322253,0.046033194,0.01818492,0.013007460000000002,3.289,0,0
-0.04481282,-0.03167016,0.058188194,0.019424160000000003,0.01757916,3.29,0,0
-0.04573464,-0.029688972000000004,0.06308458,0.02008066,0.02078658,3.291,0,0
-0.040849100000000006,-0.021988182400000004,0.056989139999999994,0.02002608,0.0245655,3.292,0,0
-0.032137468,-0.010740554400000001,0.038529334000000005,0.01912246,0.029423460000000002,3.293,0,0
-0.020430104,-0.0007258144000000005,0.020106714,0.01622713,0.03256004,3.294,0,0
-0.006546044,0.007921885600000001,0.009280234000000002,0.011466821600000001,0.032170340000000006,3.295,0,0
0.0073974159999999995,0.016281117600000002,-0.0006239460000000002,0.0043698616,0.027474064,3.296,0,0
0.019988256,0.023697808,-0.011866886,-0.0040574184,0.019178198,3.297,0,0
0.030229964,0.029451960000000003,-0.0208506,-0.011605978400000001,0.009080338,3.298,0,0
0.035797340000000004,0.0328648,-0.02581734,-0.0175517884,-0.0007300220000000003,3.299,0,0
0.03533632,0.032137660000000005,-0.028980080000000002,-0.02236592,-0.008373662,3.3,0,0
0.03055262,0.028270100000000003,-0.02854416,-0.024762720000000002,-0.013888006000000001,3.301,0,0
0.022080112000000002,0.023107080000000002,-0.021789971400000004,-0.02317554,-0.018666960000000003,3.302,0,0
0.009073412,0.016013156,-0.0126082514,-0.017892484000000004,-0.021580340000000003,3.303,0,0
-0.006234248000000001,0.007535336000000002,-0.0030388313999999994,-0.0076318240000000015,-0.021585120000000003,3.304,0,0
-0.017901748000000002,0.0011281359999999992,0.007955288599999999,0.006339536000000001,-0.019198866000000002,3.305,0,0
-0.023027648,-0.0032399840000000004,0.016925108600000002,0.020452376,-0.012608124,3.306,0,0
-0.023935962,-0.0070065480000000005,0.02075262,0.031619896,-0.0038473240000000005,3.307,0,0
-0.02100317,-0.008276218,0.021434059999999998,0.036269560000000006,0.0024844340000000006,3.308,0,0
-0.013351110000000001,-0.008140144,0.018898408,0.033307960000000005,0.007045674000000001,3.309,0,0
-0.006795956,-0.008555064,0.010625348,0.024969526,0.011025120000000001,3.31,0,0
-0.0040012456,-0.007510405999999999,-0.0008705320000000003,0.014796408,0.013041818,3.311,0,0
0.0064834764,-0.005549992000000001,-0.011540812000000001,0.005561698,0.015031798000000002,3.312,0,0
0.026718344400000003,-0.004055564000000001,-0.022095032,-0.0023405820000000003,0.016686740000000002,3.313,0,0
0.04548968440000001,-0.00242419,-0.03175294000000001,-0.011297562,0.012730526,3.314,0,0
0.0602154904,-0.0013292680000000002,-0.03530416,-0.022208648000000004,0.0016203859999999997,3.315,0,0
0.06732890000000001,-0.0011793,-0.03350724,-0.03313705,-0.012844554,3.316,0,0
0.05643616400000001,-0.0014851526000000002,-0.028950260000000002,-0.04254000000000001,-0.025776333999999998,3.317,0,0
0.030351124000000004,-0.0017942506000000003,-0.01868904,-0.04813050000000001,-0.035585114,3.318,0,0
0.0009372040000000057,-0.0014539606,-0.00574892,-0.04780264000000001,-0.03970986,3.319,0,0
-0.025761416000000002,-0.0011797686,0.004428,-0.04124482,-0.03600462,3.32,0,0
-0.043324076,-0.0015543146,0.01363706,-0.030531600000000002,-0.027859460000000003,3.321,0,0
-0.049932260000000006,-0.00162913066,0.022093820000000004,-0.019092416,-0.0192935486,3.322,0,0
-0.04883032,-0.0018416308600000006,0.026432080000000004,-0.009221692,-0.011788476600000002,3.323,0,0
-0.040405960000000005,-0.00199393226,0.028699060000000002,-0.0020256620000000006,-0.006052014600000001,3.324,0,0
-0.028513288,-0.00158820426,0.030135540000000002,0.0033451180000000002,-0.0013002426000000003,3.325,0,0
-0.018480464000000002,-0.00146655426,0.026834166,0.006734138,0.0033225374000000005,3.326,0,0
-0.010073944000000001,-0.0017700996,0.018055826,0.008926494,0.006997346,3.327,0,0
-0.001569264,-0.0012100294,0.006645766000000002,0.01491245,0.012278934,3.328,0,0
0.0039789560000000005,0.0009097139999999998,-0.005562174000000001,0.027067940000000002,0.021081052000000003,3.329,0,0
0.004751952000000001,0.002878972,-0.017605034000000002,0.04192276,0.029610320000000002,3.33,0,0
0.002214808000000001,0.0034080060000000008,-0.02564228,0.05525244000000001,0.03446168,3.331,0,0
-0.003385632,0.002876164,-0.027962180000000003,0.0652257,0.03603996,3.332,0,0
-0.010995332,0.0015802840000000004,-0.026941100000000003,0.06746414,0.03433588,3.333,0,0
-0.019409192000000002,-0.00037274179999999995,-0.022700984,0.05855832,0.0286689,3.334,0,0
-0.023236160000000002,-0.0014714818,-0.014337804000000001,0.043072457999999994,0.022755940000000002,3.335,0,0
-0.019015908,-0.0013407518000000003,-0.003759804000000002,0.025137958000000002,0.019473960000000002,3.336,0,0
-0.010950067999999999,-0.0006846310000000001,0.005271895999999999,0.005027898000000002,0.015838138,3.337,0,0
-0.0026193679999999987,-0.0002461748,0.014186216,-0.013775842,0.01043598,3.338,0,0
0.0056945120000000005,0.000414745,0.02398234,-0.028261022000000004,0.00422068,3.339,0,0
0.011571292,0.004196565,0.02876732,-0.04138968,-0.00602868,3.34,0,0
0.013119420000000001,0.009909811000000001,0.02828974,-0.05427456,-0.02251538,3.341,0,0
0.015368820000000002,0.013670316200000001,0.026528100000000002,-0.0641488,-0.040530138,3.342,0,0
0.019764640000000003,0.012211948,0.019770004,-0.0685885,-0.05355576000000001,3.343,0,0
0.026732420000000003,0.004413454000000001,0.006755984,-0.0664825,-0.0602669,3.344,0,0
0.035341500000000005,-0.005027826000000001,-0.0050747959999999995,-0.05863781999999999,-0.0603898,3.345,0,0
0.04304582,-0.011298012000000001,-0.014830736,-0.043863688,-0.049634592000000005,3.346,0,0
0.048838740000000005,-0.013942564000000001,-0.023828276000000002,-0.023337228000000005,-0.030020611999999995,3.347,0,0
0.0531247,-0.010947640000000002,-0.02852024,-0.0041864680000000005,-0.010908292,3.348,0,0
0.05832008,-0.0020586140000000003,-0.02862974,0.009914732000000002,0.004106448000000001,3.349,0,0
0.05973144,0.005314184,-0.0261942,0.020092112000000002,0.015894648,3.35,0,0
0.05314056,0.00721553,-0.021059456,0.026422360000000002,0.02164694,3.351,0,0
0.03818608,0.005489726,-0.012075556,0.029188,0.022441219999999998,3.352,0,0
0.01399642,0.001303528,-0.0005997559999999999,0.02901636,0.021756559999999998,3.353,0,0
-0.01802128,-0.0035578980000000003,0.011384824000000002,0.025535920000000004,0.01763031,3.354,0,0
-0.04889754,-0.006903434,0.022739804000000002,0.0208646,0.011669192,3.355,0,0
-0.07098798,-0.008796199999999999,0.03140192,0.016452790000000002,0.00817766,3.356,0,0
-0.08215742,-0.008899898,0.03378652,0.011055958000000003,0.0059494660000000005,3.357,0,0
-0.08031566000000001,-0.006111080400000001,0.029620054000000003,0.0059486420000000005,0.0017933460000000001,3.358,0,0
-0.06862032000000001,-0.0010348404000000001,0.021102156,0.0032074120000000006,-0.0016890840000000004,3.359,0,0
-0.05185383400000001,0.0059453776,0.008649256000000001,0.0022410060000000002,-0.0012153880000000006,3.36,0,0
-0.033366422,0.014599483600000001,-0.005406384000000001,0.002477148,9.090199999999969e-05,3.361,0,0
-0.015104142000000003,0.0232606576,-0.017209704,0.0033667519999999998,0.0008617760000000001,3.362,0,0
0.0014159179999999995,0.02625978,-0.025189498,0.00462026,0.004656536,3.363,0,0
0.014750758000000001,0.021740660000000002,-0.028077940000000003,0.006623226000000001,0.011753796000000002,3.364,0,0
0.023678452000000003,0.013725180000000002,-0.024908716,0.007664774000000001,0.017637938000000002,3.365,0,0
0.026778560000000003,0.0038707859999999993,-0.017606098,0.007098326,0.02177762,3.366,0,0
0.022891922000000002,-0.0077095140000000015,-0.007812978,0.00646769,0.025316920000000003,3.367,0,0
0.012278202000000002,-0.017816954000000003,0.003601222,0.007276658,0.026849140000000004,3.368,0,0
-0.0024655780000000004,-0.023121274,0.014156322,0.009833202,0.026601040000000006,3.369,0,0
