bandpass 1,bandpass 2,bandpass 3,bandpass 4,bandpass 5,time,onset,mark
0.00015280400000000004,0.0027667480000000003,0.0026423419999999998,-0.002381322,-0.001068636,3.519,1,1
-0.00038616399999999993,0.0032198580000000004,0.004175576,-0.0029825340000000002,-0.0005454240000000001,3.52,0,0
-0.000539405,0.004027572,0.0041444552,-0.004050130000000001,-0.0006536364,3.521,0,0
-0.0006079629999999998,0.0035710680000000006,0.0015264151999999998,-0.0048026300000000004,-0.0019428424000000003,3.522,0,0
0.0021585190000000002,0.0033154240000000004,0.0014069092000000003,0.0007293500000000001,0.0009214336000000001,3.523,0,0
0.001975711,0.0018165900000000003,0.0020776812000000006,0.0017242028,0.0014105434000000001,3.524,0,0
-0.00037974099999999985,0.00018717800000000008,0.00046042980000000027,-0.0005685852,-0.0012096085999999998,3.525,0,0
-0.0019190540000000001,0.00020540799999999991,0.0006907730000000003,-0.0008801992,-0.0018003801999999995,3.526,0,0
-0.004707346,-0.00011851600000000026,0.0018478290000000005,-0.0038168812000000003,-0.0020419502,3.527,0,0
-0.007729014,-0.0012366880000000005,0.00038727300000000004,-0.0079956612,-0.0037623142,3.528,0,0
-0.006706812,-0.0004092020000000003,-0.001806735,-0.0061137840000000014,-0.0030215940000000003,3.529,0,0
-0.0035349620000000004,0.0002079139999999997,-0.0015067936,-0.0014116400000000005,-0.00012809800000000032,3.53,0,0
-0.002279746,-0.0025817320000000006,-0.002121258,0.00030167200000000006,0.0009527939999999999,3.531,0,0
0.001736672,-0.003928046000000001,-0.004712886,0.005341132,0.0033480560000000003,3.532,0,0
0.0074272,-0.0018446860000000003,-0.0033752622,0.011889472000000002,0.0046075560000000005,3.533,0,0
0.007192694,-0.0010776100000000003,-0.00042728420000000007,0.011176986,0.0015770720000000001,3.534,0,0
0.00585673,-1.812200000000008e-05,-7.749420000000018e-05,0.00846365,4.167999999999707e-06,3.535,0,0
0.006591254000000001,0.003203,0.0015059938,0.007347252,0.00012085599999999991,3.536,0,0
0.0030430599999999998,0.004005698,0.005262815800000001,0.0022321520000000003,-0.001805418,3.537,0,0
-0.003443886,0.0005369040000000006,0.00583825,-0.005648408000000001,-0.0032567620000000003,3.538,0,0
-0.004565588000000001,-0.0025946959999999996,0.0039314208,-0.006924648,-0.0009745788,3.539,0,0
-0.0029480179999999997,-0.0039989399999999994,0.0038826768,-0.0036934960000000014,0.0009069052,3.54,0,0
-0.004356146,-0.005848792,0.0027642267999999997,-0.0028158882000000013,0.0007265812000000001,3.541,0,0
-0.004996708,-0.0061764796000000005,-0.0008611752000000001,-0.0031384482000000003,0.0007284592,3.542,0,0
-0.0031618938000000005,-0.0027180296000000005,-0.0034880852,-0.0045602682,0.0002245731999999999,3.543,0,0
-0.0019756418000000005,0.0014148744000000001,-0.005109678,-0.0087510082,-0.0013585660000000003,3.544,0,0
-0.0022011638,0.0018441624000000002,-0.0074081680000000006,-0.0128030202,-0.0018165160000000002,3.545,0,0
-0.0010863572600000003,0.0005536324,-0.007946860000000002,-0.011778424000000001,-0.0005897420000000003,3.546,0,0
0.0016268547400000001,-0.00031142400000000036,-0.005288068,-0.008227076000000002,-0.0007763220000000002,3.547,0,0
0.00378422654,-0.002050048,-0.003893806,-0.0038273339999999995,-0.0008481540000000002,3.548,0,0
0.00704799454,-0.002780896,-0.0027053019999999997,0.005320025999999999,0.002277536,3.549,0,0
0.00929700054,-0.0007144379999999997,0.001638198,0.011760178,0.003570918,3.55,0,0
0.00737317,0.0014103940000000001,0.004787974,0.00963024,0.0005914679999999999,3.551,0,0
0.004767693999999999,0.0024191482,0.0056910960000000005,0.008444922,0.0006005019999999996,3.552,0,0
0.002688608,0.0038723822000000002,0.007730314000000001,0.009038837999999999,0.00338528,3.553,0,0
-0.0026833020000000003,0.0036320882000000004,0.008912212000000001,0.0036743740000000007,0.001952154,3.554,0,0
-0.007850322,0.0015056262,0.006206783600000001,-0.001820702,-0.0006195840000000001,3.555,0,0
-0.006251662,0.0011325048000000002,0.0030426776,0.0007938320000000002,0.0015128440000000002,3.556,0,0
-0.004331514,0.0004010626000000001,0.0023277096,0.0025919980000000003,0.0021948546000000006,3.557,0,0
-0.004799982,-0.0020410994000000003,0.0013679996000000002,-0.00077126,-0.0017732074,3.558,0,0
-0.0022054799999999997,-0.0028692674,-0.00017641240000000006,-0.0016342780000000003,-0.0035925974000000005,3.559,0,0
0.0009223300000000001,-0.0020900414,-3.606400000000002e-05,-0.0012354500000000003,-0.0034843294,3.56,0,0
0.0011504952,-0.0007584740000000001,-6.217199999999988e-05,-0.003604936,-0.0044189174,3.561,0,0
0.0015928912,0.001859488,-0.0021830160000000003,-0.004641098,-0.00384913,3.562,0,0
0.0029119852,0.00420422,-0.0033814660000000005,-0.000984858,-0.0006933099999999997,3.563,0,0
0.00047820119999999956,0.002682482,-0.0025528345999999997,0.0006874839999999999,0.0009674678,3.564,0,0
-0.0022359088000000003,-0.0005566260000000002,-0.0042399026,0.001540534,0.0019540138,3.565,0,0
-0.00023021200000000004,-0.0014145620000000005,-0.0052950286000000004,0.007279016000000001,0.0041955578,3.566,0,0
8.200000000000004e-05,-0.0022835760000000007,-0.0023640106,0.009784022,0.0034032084,3.567,0,0
-0.00337464,-0.004567956000000001,-0.0015649277999999999,0.007629646000000001,0.0016982924,3.568,0,0
-0.002964888,-0.0034056380000000008,-0.0017598554,0.007149838,0.0027835486,3.569,0,0
0.00031174799999999993,0.0009525459999999999,0.0011711565999999998,0.004556296,0.0019957986000000002,3.57,0,0
-9.56440000000002e-05,0.001911508,0.0028718092,-0.002955824,-0.0016565974000000005,3.571,0,0
7.441200000000005e-05,0.001691306,0.0006046892,-0.00667271,-0.0020125360000000005,3.572,0,0
0.00459655,0.004437732,-0.0003646316,-0.003958468,2.2673999999999655e-05,3.573,0,0
0.006184022000000001,0.0052247068,0.00016982660000000003,-0.0030303440000000004,-0.0009628268000000003,3.574,0,0
0.003103166,0.0021705968,-0.0009931561999999999,-0.0034961840000000003,-0.0024594448,3.575,0,0
0.00019622800000000011,-0.0006214932000000004,-0.0012295217999999998,-0.0021287240000000002,-0.0018324288000000002,3.576,0,0
-0.0020760360000000007,-0.0025826432,0.0001049542,-0.002947252,-0.0019917568,3.577,0,0
-0.0033327820000000003,-0.0042995098,0.0003142201999999999,-0.0066087080000000005,-0.0033758905999999997,3.578,0,0
-0.0013643540000000003,-0.0030967245999999997,-0.0011163458000000002,-0.006859486,-0.0030197918000000002,3.579,0,0
0.003091886,0.0004980633999999997,-0.001239178,-0.0029163799999999997,-0.0009346558000000001,3.58,0,0
0.00530158,0.0026196734000000005,-0.001717563,-0.0013494500000000003,-0.00014486780000000005,3.581,0,0
0.006067898000000001,0.0038305483999999997,-0.0046313990000000005,0.002082474,0.0022648102,3.582,0,0
0.006452824000000001,0.004748551,-0.0039883738,0.008682664,0.00637463,3.583,0,0
0.0024889720000000008,0.003257189,-0.0007957578000000005,0.008567694,0.006894320000000001,3.584,0,0
-0.002612068,0.001570839,-0.00023569080000000059,0.004907188,0.005698492,3.585,0,0
-0.002746548,0.002415605,0.0019880331999999994,0.005499594,0.004351074,3.586,0,0
-0.0019039959999999998,0.0025944419999999998,0.0069184332,0.004347983999999999,0.001173984,3.587,0,0
-0.00430642,0.0014510160000000003,0.007878088,-0.001708612,-0.0026352234000000005,3.588,0,0
-0.0027488458000000005,0.0022263260000000003,0.0056985936,-0.0019613656,-0.0029650934,3.589,0,0
0.0016242242000000001,0.002707512,0.005741947600000001,0.0015957124000000004,-0.0009512753999999998,3.59,0,0
0.0010299908,0.001017778,0.0045971796,-0.0016175235999999998,-0.0013789253999999997,3.591,0,0
-0.0005360532000000002,-0.000740266,0.0009288916000000003,-0.0055155636000000004,-0.0027302354000000003,3.592,0,0
-0.00010690520000000009,-0.002422204,-0.0007772603999999999,-0.0056023236,-0.0031519620000000003,3.593,0,0
-0.0017384354000000001,-0.005112046,-0.001622432,-0.008078918000000001,-0.004619186000000001,3.594,0,0
-0.0048639874,-0.007913664,-0.004014086,-0.010468120000000001,-0.005624086600000001,3.595,0,0
-0.0050879131999999995,-0.009013728,-0.00586261,-0.006563082,-0.0025620046000000003,3.596,0,0
-0.0038705152,-0.0077943352,-0.005120526,-0.0019442039999999997,0.0005783114000000002,3.597,0,0
-0.004114405200000001,-0.00593662,-0.0058713540000000005,-0.0006617904,0.0007035256000000002,3.598,0,0
-0.0024954442,-0.004148724,-0.007749028000000001,0.005090589600000001,0.0028264836,3.599,0,0
0.0003860857999999998,-0.0018679398,-0.0055725440000000005,0.0110440936,0.0047944422,3.6,0,0
0.00011955499999999987,-0.0005950558,-0.0032823899999999996,0.0085228896,0.0028426742,3.601,0,0
0.00023057299999999987,0.00030239139999999997,-0.0029773482000000004,0.0058412915999999995,0.0013530582000000004,3.602,0,0
0.002562765,0.0015429502,-0.0001344861999999997,0.005320696000000001,0.0010309119999999997,3.603,0,0
0.00215867,0.0021258182000000003,0.0039553518000000005,7.291599999999969e-05,-0.0010535920000000001,3.604,0,0
0.00036920400000000004,0.0032985820000000004,0.004538099800000001,-0.005613634,-0.003542312,3.605,0,0
0.00207106,0.006621368,0.0041456738,-0.0033989280000000007,-0.0020081100000000005,3.606,0,0
0.003012552,0.008959406,0.005899148,-0.0003757999999999995,0.0002644400000000001,3.607,0,0
0.0005811200000000001,0.008138764,0.006473384,-0.0016811559999999998,-0.000647498,3.608,0,0
-0.0007465800000000002,0.006126652,0.005707994,-0.0010818299999999998,-0.001010092,3.609,0,0
-0.0009664160000000002,0.0026774039999999995,0.00565218,0.00014669400000000016,-0.00044384039999999995,3.61,0,0
-0.0017800540000000005,-0.0016538759999999999,0.004546136,-0.0010506902,-0.001116719,3.611,0,0
-0.0012899260000000005,-0.0046986300000000005,0.001204306,-0.0016045262,-0.001349223,3.612,0,0
0.0012464119999999997,-0.004995159600000001,-0.0011488100000000001,0.0010897118,0.0007431610000000002,3.613,0,0
0.0020882340000000004,-0.0037623636,-0.001471074,0.0017108998,0.001416275,3.614,0,0
0.0017145480000000002,-0.0021651015999999998,-0.0041429660000000005,0.0014548732000000005,0.0009190454,3.615,0,0
0.003210248,-1.988959999999992e-05,-0.005398644000000001,0.0062094174,0.0027945780000000003,3.616,0,0
0.002609274,0.0005118924000000001,-0.002754532,0.0082893254,0.0034089240000000002,3.617,0,0
3.388000000000002e-06,-0.00045704200000000006,-0.002695984,0.0056521394,0.001964642,3.618,0,0
0.0003187639999999999,-0.00036838999999999996,-0.003555014,0.0047011294,0.001590152,3.619,0,0
5.497999999999983e-05,0.00018542859999999987,-0.0010337399999999998,0.0023007619999999987,0.0008426280000000004,3.62,0,0
-0.0037156740000000004,-0.0012227514000000004,0.0009303020000000001,-0.005511638000000001,-0.0026005279999999995,3.621,0,0
-0.005003964800000001,-0.0023090614000000004,-0.0004993039999999999,-0.009694522,-0.004520264,3.622,0,0
-0.0010950288000000003,-0.0016232334,-0.00018735999999999986,-0.005178900000000001,-0.0015780019999999998,3.623,0,0
0.0011215291999999999,-0.0030161094,0.001827344,-0.0020701039999999997,0.0010044840000000004,3.624,0,0
0.0001799931999999999,-0.005403310000000001,0.002072388,-0.002314564,0.0017927320000000004,3.625,0,0
0.0014232412,-0.0049655584,0.002398066,-0.001395174,0.002242206,3.626,0,0
0.0023684920000000007,-0.0035640784,0.003282354,-0.002400008,0.0006829400000000006,3.627,0,0
-0.00032819639999999987,-0.0026479924,0.0028309340000000002,-0.006695497999999999,-0.0025088439999999997,3.628,0,0
-0.00190300854,0.00032994960000000005,0.00059322,-0.008503096,-0.005219062,3.629,0,0
0.00041050546000000003,0.0037509296000000003,-0.0006350959999999999,-0.004968528,-0.004391386,3.63,0,0
0.00028794946,0.004158824,-0.0012071908,-0.0023051079999999997,-0.0017579079999999999,3.631,0,0
-0.00068782254,0.00440321,-0.0035712628000000002,0.00121405,0.00017337500000000003,3.632,0,0
0.00182700586,0.006618548,-0.0041500588,0.008165740000000001,0.0033262790000000006,3.633,0,0
0.003048574,0.008064182,-0.0023676748000000004,0.010484096000000002,0.005177233000000001,3.634,0,0
0.002502082,0.007967718,-0.0023273088000000004,0.008800614000000002,0.0036036970000000003,3.635,0,0
0.00235402,0.008091584,-0.001871164,0.007954020000000001,0.002701193,3.636,0,0
0.0010142419999999998,0.006907157200000001,0.001067078,0.0033995799999999997,0.0016828860000000002,3.637,0,0
-0.0028238560000000005,0.0031200272,0.0022511796,-0.00521992,-0.001426834,3.638,0,0
-0.0041548046,0.0002509372,0.0008417455999999999,-0.0074795420000000005,-0.001007056,3.639,0,0
-0.0020969366,-0.0016690367999999999,0.0015339135999999998,-0.005044578000000001,0.0009856040000000002,3.64,0,0
-0.0017781086,-0.0054947008,0.0026598656,-0.005999622,-0.001097854,3.641,0,0
-0.0016823326,-0.008478118,0.0021217916000000002,-0.0058782420000000005,-0.00216946,3.642,0,0
-8.68659999999987e-06,-0.008954274000000002,0.0029265180000000003,-0.003973314,-0.001894306,3.643,0,0
-0.0007274339999999999,-0.009443670000000001,0.00424671,-0.005353206,-0.0037688920000000002,3.644,0,0
-0.0030977820000000003,-0.00829298,0.003166198,-0.008137056,-0.005090188000000001,3.645,0,0
-0.0018239520000000002,-0.0037809340000000006,0.00035153199999999945,-0.006374674,-0.0035613246000000005,3.646,0,0
0.00039241800000000006,0.0008475519999999997,-0.0014613400000000006,-0.0021226679999999994,-0.0010035366,3.647,0,0
0.0005715340000000001,0.003873714,-0.004515112000000001,-0.0007044939999999995,-0.00031510720000000014,3.648,0,0
0.003352076,0.006256024,-0.008477038000000001,0.003934682,0.0014434688,3.649,0,0
0.006584894,0.00628802,-0.008495412,0.009971362000000001,0.004092278800000001,3.65,0,0
0.004501244,0.0023702740000000008,-0.006597864000000001,0.0093346004,0.0041491048,3.651,0,0
0.0012626120000000002,-0.0020242120000000005,-0.005962988,0.0076733184,0.003182830800000001,3.652,0,0
-0.0003021040000000001,-0.004561716,-0.0025805740000000004,0.0074627515999999994,0.0029453554000000008,3.653,0,0
-0.004041102,-0.0068133460000000005,0.002759106,0.0017851116,-0.0005830445999999998,3.654,0,0
-0.007489142000000001,-0.006577856000000001,0.004362414,-0.0047379264,-0.0047617006,3.655,0,0
-0.004516284000000001,-0.002302184,0.004785824,-0.0031905147999999996,-0.0020609540000000003,3.656,0,0
0.0006051759999999998,0.002044216,0.00403611,0.00040576120000000064,0.0013555120000000006,3.657,0,0
0.0046920880000000005,0.005663164,0.0005456759999999997,0.0067439660000000005,0.0036933639999999998,3.658,0,0
0.00895535,0.00896863,-0.0007803000000000003,0.016217126,0.008541004,3.659,0,0
0.008962043999999999,0.009655838000000002,-0.00012473400000000004,0.018277198,0.010432862999999999,3.66,0,0
0.003928853999999999,0.0081032612,-0.0005138219999999998,0.013095294000000002,0.006007531,3.661,0,0
-0.0011954260000000003,0.0058840352,0.0010815200000000003,0.007262013999999999,0.0015696449999999997,3.662,0,0
-0.005116248,0.0017429432,0.004635766,0.0001118499999999995,-0.0009205290000000004,3.663,0,0
-0.008238800000000001,-0.0028702248,0.005040640000000001,-0.007205764,-0.0036127068,3.664,0,0
-0.0073168847999999995,-0.0053714488,0.005295378,-0.0076127438,-0.0036224990000000004,3.665,0,0
-0.0058148188,-0.00742256,0.008905392,-0.0093674838,-0.004272327,3.666,0,0
-0.0066357588000000006,-0.007823594,0.010302286,-0.018590943800000002,-0.008058701000000001,3.667,0,0
-0.004445512800000001,-0.005289732,0.007469468,-0.0238674798,-0.009802367000000001,3.668,0,0
-0.0004316607999999998,-0.003495806,0.0048629680000000005,-0.022909787800000005,-0.008903445200000002,3.669,0,0
0.00170601,-0.0037561400000000003,0.0018390440000000008,-0.021747880000000004,-0.0086801476,3.67,0,0
0.004142988,-0.0032381140000000003,-0.0039019059999999997,-0.016274591,-0.0068894796,3.671,0,0
0.007507864,-0.0019856152,-0.0078009640000000005,-0.003131199000000001,-0.0018706736,3.672,0,0
0.00680996,-0.0014933452000000004,-0.008847152,0.0072807010000000005,0.0013556204,3.673,0,0
0.003789038,0.0008111968000000002,-0.01055857,0.012843703,0.0037154164,3.674,0,0
0.0034952760000000003,0.0053821888,-0.011250376,0.020812601,0.008727508,3.675,0,0
0.0036453600000000003,0.0095400988,-0.008706956,0.027467572,0.0123652,3.676,0,0
0.0014850240000000002,0.010157338000000002,-0.00505162,0.0260223992,0.01218248,3.677,0,0
-0.001060836,0.007284756,-0.002003212,0.0195377992,0.009269383999999999,3.678,0,0
-0.0008210159999999999,0.0041996839999999995,0.0018910740000000004,0.013692579600000001,0.005499844,3.679,0,0
-0.001103402,0.000719358,0.004924884,0.0050265616,0.0011998900000000001,3.68,0,0
-0.001083462,-0.00278353,0.004310332,-0.0020892963999999997,-0.00194717,3.681,0,0
0.0018983420000000001,-0.004120528,0.005010756,-0.0025852695999999996,-0.002676266,3.682,0,0
0.0014290820000000004,-0.004551412,0.007902248,-0.0074837096,-0.004871164,3.683,0,0
-0.0030209760000000003,-0.0054776,0.006521221999999999,-0.01698803,-0.008720304000000002,3.684,0,0
-0.004188736,-0.004426964,0.0028035779999999993,-0.020753992000000002,-0.010613492,3.685,0,0
-0.0029396500000000007,-0.0026065380000000003,0.0011056699999999996,-0.0202521462,-0.010321444,3.686,0,0
-0.0037209492000000004,-0.0028339960000000005,-0.0019511620000000006,-0.019223956200000003,-0.0091037832,3.687,0,0
-0.0015518472000000008,-0.0012154366000000003,-0.0072849,-0.011971918200000002,-0.0045822112,3.688,0,0
0.0042757968,0.0033747234,-0.008650452,-0.0001708781999999998,0.0013600388000000003,3.689,0,0
0.0055107188,0.0048143154,-0.007366182000000001,0.0069235418,0.0038820368,3.69,0,0
0.0036145694000000003,0.0034959754000000003,-0.007741273999999999,0.011733494,0.006345348800000001,3.691,0,0
0.004667222600000001,0.004663581400000001,-0.006381376000000001,0.017710178,0.010544758000000001,3.692,0,0
0.0045990286,0.005426218,-0.002615752,0.019638494000000003,0.011396208,3.693,0,0
-0.00047379539999999965,0.002417456,0.000426926,0.014650354000000003,0.00815864,3.694,0,0
-0.0054046694,-0.00041158600000000013,0.002767564,0.0076652740000000006,0.005058306,3.695,0,0
-0.007430882,-0.0007937320000000002,0.006116020000000001,0.0018873580000000013,0.0021495684,3.696,0,0
-0.0103715,-0.0019317940000000006,0.007084676,-0.005130824,-0.0018234536,3.697,0,0
-0.0098190942,-0.0039037720000000007,0.005642512000000001,-0.006086422,-0.0019027276000000003,3.698,0,0
-0.0046044142,-0.004975836000000001,0.006851065999999999,-0.0024275060000000003,-0.00013733780000000024,3.699,0,0
-0.0031377062,-0.0053242720000000006,0.008073918000000001,-0.007050246000000001,-0.0032195797999999996,3.7,0,0
-0.0027587342,-0.0058083860000000005,0.005250606,-0.014429850000000001,-0.0067890222,3.701,0,0
0.0008490758000000004,-0.005986638000000001,0.002298772,-0.016032128000000003,-0.0076518841999999995,3.702,0,0
0.003027282,-0.004161716,0.0012635079999999996,-0.016958728600000004,-0.0090874184,3.703,0,0
0.002374614,-0.002227424,-0.0022456200000000003,-0.017286362600000004,-0.008655984200000001,3.704,0,0
0.004429456,-0.0013998720000000001,-0.006449204,-0.007142062599999999,-0.0019607042,3.705,0,0
0.007227694,-5.861600000000016e-05,-0.006565704,0.005921017400000001,0.0045313158000000004,3.706,0,0
0.0063869519999999996,0.001463608,-0.005897972,0.011258517400000001,0.0061017397999999995,3.707,0,0
0.005321533999999999,0.002180918,-0.006815756,0.014931102000000002,0.007073638,3.708,0,0
0.0055317579999999995,0.003354258,-0.005302617999999999,0.018670540000000003,0.007904308,3.709,0,0
0.004527644,0.004722166,-0.001696892,0.016479938000000003,0.005210359999999999,3.71,0,0
0.002018732,0.0061382780000000005,0.0003113380000000001,0.009534598000000002,0.00056098,3.711,0,0
0.0014564880000000006,0.0085394,0.0016622800000000001,0.005736184000000001,-0.0008958319999999998,3.712,0,0
0.000582712,0.008923068000000001,0.004499134,0.0026387159999999993,-0.000982396,3.713,0,0
-0.0022377300000000003,0.0071803128,0.005018502,-0.0014276480000000005,-0.0017266080000000006,3.714,0,0
-0.0016906756,0.0060166574,0.0037281760000000006,0.0002207719999999993,4.765399999999962e-05,3.715,0,0
-0.0016989016000000003,0.0024844154000000004,0.005350764000000001,0.000489862,0.0009589640000000001,3.716,0,0
-0.006242385600000001,-0.0039656646,0.005580004,-0.007288484000000001,-0.0026052440000000005,3.717,0,0
-0.0081790416,-0.007159004600000001,0.0026711460000000005,-0.012774516000000003,-0.005329520000000001,3.718,0,0
-0.006269841600000001,-0.0069517898,0.0009095220000000003,-0.012700912000000002,-0.004587984,3.719,0,0
-0.006396626000000001,-0.0072576224,-4.142799999999982e-05,-0.013668696000000004,-0.004733972000000001,3.72,0,0
-0.006367358000000001,-0.0054018664,-0.0031629880000000003,-0.011928447400000004,-0.00434219,3.721,0,0
-0.0021466526,-0.0020265552000000003,-0.005193728,-0.0025153154000000007,0.00033290200000000015,3.722,0,0
0.0011885674,-0.0011704612,-0.004049806,0.004560784599999999,0.0035320480000000003,3.723,0,0
0.0032082934000000002,0.0003748352000000001,-0.003843712,0.0060146946,0.0028481480000000004,3.724,0,0
0.0079739474,0.0030273592000000004,-0.003933372,0.009085400600000001,0.003933122000000001,3.725,0,0
0.011947575399999999,0.0025839312000000003,-0.0017029279999999998,0.011382742000000001,0.00607011,3.726,0,0
0.011376266,0.0012632580000000002,0.001240758,0.00836123,0.004385158,3.727,0,0
0.008669538,0.0008038339999999996,0.0028116340000000004,0.004192704,0.0020914860000000005,3.728,0,0
0.005167491999999999,-0.0019082480000000004,0.00457972,0.002754268,0.0018825780000000004,3.729,0,0
-0.0003828080000000003,-0.005088308000000001,0.005759726000000001,-0.0010733334000000002,-0.00028620859999999986,3.73,0,0
-0.0044087860000000005,-0.005804758000000001,0.0027513740000000004,-0.0030101194,-0.0014998986000000001,3.731,0,0
-0.005126254000000001,-0.004682690000000001,0.0007979699999999997,0.0016111806000000002,0.0005691254000000001,3.732,0,0
-0.007005136,-0.0033844274000000003,0.002011002,0.0006349466000000002,-0.0013222806,3.733,0,0
-0.00945333,-0.0030878234000000005,0.000526098,-0.0063949874,-0.0055490126,3.734,0,0
-0.008030706,-0.0017282754000000004,-0.0019706359999999996,-0.008328202,-0.00574029,3.735,0,0
-0.0049201539999999995,0.0011456165999999997,-0.0024107879999999996,-0.008315293999999999,-0.006158167200000001,3.736,0,0
-0.0031704780000000004,0.0031007625999999997,-0.004946832,-0.011285538,-0.007555013200000001,3.737,0,0
0.0002684100000000002,0.004869314,-0.010617132,-0.008846455999999999,-0.004250187200000001,3.738,0,0
0.00486643,0.007199802,-0.012669202000000001,-0.0005144920000000001,0.0011758527999999999,3.739,0,0
0.0046556772,0.007793928,-0.011004358000000002,0.0035179440000000003,0.0030536148,3.74,0,0
0.0025676612000000002,0.007138822,-0.009220903999999999,0.005262462000000001,0.004415232,3.741,0,0
0.0029683832,0.006312564000000001,-0.005095744000000001,0.009200966,0.006986274000000001,3.742,0,0
0.0017028332000000002,0.0038639060000000007,0.0017181760000000003,0.010050406000000001,0.007068074,3.743,0,0
-0.0019415268000000001,0.0009326900000000001,0.006760636,0.006225122000000001,0.004863442,3.744,0,0
-0.00253007,0.0001570044,0.008766382,0.00367603,0.0032260258000000003,3.745,0,0
0.00035727200000000006,0.0009727984000000001,0.011392348,0.0027653799999999996,0.0015479077999999997,3.746,0,0
0.0013316259999999998,0.0010969984000000002,0.012057160000000003,-0.0006693609999999998,-0.0028889122000000005,3.747,0,0
0.0035446460000000003,0.0015121174000000002,0.008637059800000001,0.000177925,-0.0040396882000000005,3.748,0,0
0.007962186,0.0024741734000000002,0.0074956858,0.004372525,-0.0004943562000000001,3.749,0,0
0.006447474000000001,0.0001385049999999997,0.007724875799999999,0.0004607570000000009,-0.001004606,3.75,0,0
0.0010231939999999998,-0.004161737,0.0043906458,-0.005555813000000001,-0.003028358,3.751,0,0
-0.002087462,-0.006978083000000001,0.0018123418000000006,-0.0059876700000000005,-0.001026052,3.752,0,0
-0.00477608,-0.008613,0.0018163542000000003,-0.007208367400000001,-0.00030962907999999996,3.753,0,0
-0.007558819999999999,-0.008427020399999999,-0.00028170379999999963,-0.009556617400000002,-0.00281748708,3.754,0,0
-0.006156202,-0.0061057204,-0.0035475818,-0.004544261400000001,-0.0011595630800000003,3.755,0,0
-0.0018601040000000002,-0.0030647264,-0.0035610218,0.0029376586000000003,0.00289357292,3.756,0,0
0.0008881099999999999,-0.0009995409999999996,-0.0036806738,0.0045991566,0.00291594472,3.757,0,0
0.0024912600000000003,-2.0148999999999905e-05,-0.005559782,0.005733322000000001,0.0024383058,3.758,0,0
0.0037870660000000004,7.447780000000015e-05,-0.0049800700000000005,0.008135932,0.0028842217999999996,3.759,0,0
0.0031693879999999995,-0.0006518081999999999,-0.00313255,0.007089202000000001,0.0009477918000000001,3.76,0,0
-0.00046691000000000007,-0.0018186602000000002,-0.003108854,0.0033509940000000004,-0.0022824722,3.761,0,0
-0.0029868380000000003,-0.0013390655999999997,-0.00310589,0.0019178201999999996,-0.0016210939999999998,3.762,0,0
-0.0028203660000000004,0.0011356824000000004,-0.0008864460000000002,0.0013741202,0.000686496,3.763,0,0
-0.003295648,0.0022283860000000006,-0.0008990078000000002,-0.0010786997999999999,-0.00018454439999999976,3.764,0,0
-0.0007575240000000003,0.003997016000000001,-0.0016775618000000004,0.0006004462000000002,0.0009410896,3.765,0,0
0.00312912,0.005819630000000001,0.0017073521999999997,0.0030412982,0.0023359215999999997,3.766,0,0
0.003017614,0.004377392000000001,0.0040128122,-0.000699968,-0.0010605744000000002,3.767,0,0
0.0024972846,0.002598084000000001,0.0030359942,-0.004413964000000001,-0.0037491464,3.768,0,0
0.0032994486,0.0018339520000000007,0.003327476,-0.0051908280000000015,-0.0032753640000000002,3.769,0,0
0.0010859246,-0.0002623339999999997,0.0038716019999999996,-0.008059532000000001,-0.004049566,3.77,0,0
-0.0029272394,-0.00263512,0.0008799079999999999,-0.010426640000000003,-0.0041810300000000005,3.771,0,0
-0.0030997694,-0.002496112,-0.001842658,-0.005336310000000002,-0.000528618,3.772,0,0
-0.003660674,-0.003609384,-0.0017460739999999998,0.0007926500000000006,0.0014323880000000002,3.773,0,0
-0.006742642,-0.006059714,-0.002527758,0.0031092800000000007,0.0011143346000000002,3.774,0,0
-0.0067529320000000006,-0.005437428,-0.003907704,0.0060330420000000015,0.0018760086000000004,3.775,0,0
-0.0029034020000000002,-0.0024222020000000005,-0.003162064,0.00837216,0.0021019066,3.776,0,0
0.00022013399999999943,4.206800000000079e-05,-0.001869483,0.006148378,0.00044007660000000017,3.777,0,0
0.002252716,0.0020064840000000007,-0.002311995,0.0028460119999999998,0.0003430566,3.778,0,0
0.00541609,0.005049636000000001,-0.002054421,0.003261748,0.0021715560000000003,3.779,0,0
0.006192450800000001,0.006413002000000001,-0.0001285310000000001,0.0011655719999999997,0.001169354,3.78,0,0
0.0052111248,0.004757944,-0.0008834890000000001,-0.001687054,5.7701999999999753e-05,3.781,0,0
0.0058695348,0.0031134126,-0.001059946,0.002192638,0.00237196,3.782,0,0
0.00426519834,0.0023001968000000003,0.002371352,0.003055194,0.002181366,3.783,0,0
0.0005126043399999998,0.0001435767999999997,0.0033475020000000005,-0.002026428,-0.0008376220000000002,3.784,0,0
8.810353999999976e-05,-0.0017872972000000003,0.0023475456000000006,-0.0026915199999999998,-0.0002875200000000001,3.785,0,0
-0.0005516958600000003,-0.0013091851999999999,0.0037784756000000005,-0.0029334540000000003,0.00042247,3.786,0,0
-0.0040333858600000005,0.0005091582000000003,0.0043441616,-0.009003293999999998,-0.002269468,3.787,0,0
-0.0048254474,0.0029032580000000006,0.0011251476000000004,-0.011130893999999999,-0.0034373460000000004,3.788,0,0
-0.0019730974,0.005237544,-0.0005024903999999999,-0.005775816000000001,-0.0014986220000000002,3.789,0,0
-0.0005759454000000003,0.005601094,-0.00036140360000000004,-0.0022677780000000002,-0.000715642,3.79,0,0
-0.0009882400000000003,0.0033386500000000003,-0.0019831376,-5.3026000000000776e-05,-0.000571078,3.791,0,0
7.490599999999999e-05,0.0008689879999999998,-0.0031167056,0.00461167,0.0008785634000000001,3.792,0,0
0.0015050180000000003,-0.0006648240000000001,-0.0026462616,0.0070376959999999995,0.0013955022000000001,3.793,0,0
0.001648684,-0.0016792667999999996,-0.0031971836000000003,0.004510058,0.0007798022000000001,3.794,0,0
0.00146335,-0.0024159648,-0.00523907,0.0012705300000000002,0.0008120102,3.795,0,0
0.0018364602000000001,-0.0028579768,-0.00486333,0.00048571600000000013,0.0015020042000000002,3.796,0,0
0.00019466220000000003,-0.0039494968000000005,-0.003466434,-0.0018826440000000002,0.0007615888000000001,3.797,0,0
-0.0016709938,-0.0053142368,-0.0038645240000000003,-0.002160904,0.001052888,3.798,0,0
-0.0019191645999999999,-0.006121576,-0.0009860539999999994,0.0016859560000000002,0.002559594,3.799,0,0
-0.0040912226,-0.006643844,0.0047635260000000006,0.00113899,0.000657138,3.8,0,0
-0.004727184800000001,-0.0052318220000000006,0.0066331260000000005,-0.0016157419999999997,-0.00157143,3.801,0,0
-0.0013421607999999999,-0.00240645,0.006978486000000001,0.00012001800000000082,-0.00077012,3.802,0,0
0.0008280272000000001,-0.0011685659999999998,0.008915948,0.0014806460000000006,-0.0005535559999999999,3.803,0,0
0.000338618,-0.0010365080000000002,0.007444785400000001,-0.0013344539999999997,-0.0017678379999999999,3.804,0,0
0.0014799379999999997,0.00015081800000000026,0.0025913234,-0.0006953879999999995,-0.0003175859999999999,3.805,0,0
0.003159802,0.0012199500000000002,0.00047992140000000015,0.002697404,0.00191237,3.806,0,0
0.002225612,0.0009443660000000002,-0.0004983705999999999,0.0018958920000000002,0.0005461020000000001,3.807,0,0
0.0024523820000000003,0.0017619760000000002,-0.0024764846000000004,0.00019327999999999994,-0.0013725079999999997,3.808,0,0
0.004062902,0.0042091179999999995,-0.002236209,0.00040831600000000004,-0.0018913322999999998,3.809,0,0
0.002861484,0.0048854244,-0.0003958229999999999,-0.000416654,-0.0029436183,3.81,0,0
-0.00011185800000000027,0.0038180744000000004,0.00013382939999999994,-0.0024337960000000002,-0.0041545843,3.811,0,0
-0.001432362,0.0033284904,-9.37186e-05,-0.001768122,-0.0017873663000000002,3.812,0,0
-0.002210652,0.0024240284,0.0010352654000000002,-0.00043525599999999997,0.0021172757,3.813,0,0
-0.003153776,0.0010334824,0.00016322039999999997,-0.0015385259999999997,0.0019081319999999999,3.814,0,0
0.000450476,0.002057802,-0.0023348436,0.0015853800000000004,0.0027283107999999997,3.815,0,0
0.0039054320000000003,0.0027844454,-0.0016438800000000001,0.00578181,0.0049746108,3.816,0,0
0.0010134839999999994,0.0004940933999999998,-0.0011668440000000002,0.0020472520000000003,0.0022039247999999997,3.817,0,0
-0.001771492,-0.0010459586,-0.0028198060000000002,-0.001950686,-0.0013940052000000003,3.818,0,0
-0.002360156,-0.0019878146000000003,-0.00187414,-0.0016124336000000001,-0.0008653932000000002,3.819,0,0
-0.005025562,-0.004656070599999999,0.000386972,-0.0042700816,-0.0010631920000000001,3.82,0,0
-0.006756744000000001,-0.0060557300000000005,-0.0006253539999999998,-0.007497965600000001,-0.0026201959999999995,3.821,0,0
-0.0026022579999999997,-0.004392984400000001,-0.001601926,-0.0034806616000000005,-0.0006786420000000001,3.822,0,0
0.0013622460000000001,-0.0028852044000000003,9.498600000000003e-05,0.0010195984000000002,0.000907708,3.823,0,0
0.0012966980000000002,-0.0018728944000000005,0.00073233,0.0013646459999999997,0.000229266,3.824,0,0
0.0017857616,0.00035353359999999983,0.0002887432,0.0024796192,8.222000000000004e-05,3.825,0,0
0.0027977076,0.0024971116,0.0014790212000000001,0.0031357634,0.0002741880000000001,3.826,0,0
0.0013401336,0.0031445740000000002,0.0026201512000000003,0.00032908739999999975,-0.000898264,3.827,0,0
-0.0008995024000000001,0.0030150840000000003,0.0015533512000000002,-0.0027920906000000003,-0.002026586,3.828,0,0
-0.00022618639999999994,0.0022515000000000005,0.0005342168,-0.0019974106000000004,-0.00044194800000000017,3.829,0,0
-4.792999999999998e-05,0.0006900820000000002,0.0011759995999999998,-0.0011007178000000005,0.0009376179999999999,3.83,0,0
-0.0016087839999999998,-0.001024004,-0.0004951224000000001,-0.0002563560000000002,0.0012412819999999998,3.831,0,0
0.00015280200000000028,-0.000854278,-0.0021114764000000003,0.005065016,0.00276716,3.832,0,0
0.0020332780000000003,0.000698094,7.164560000000016e-05,0.007516226000000001,0.002726274,3.833,0,0
0.0003579960000000002,0.0022427799999999998,0.0005766440000000003,0.00312214,-0.00044653200000000014,3.834,0,0
0.000839068,0.0050073140000000006,-0.0008087979999999995,0.0014721860000000003,-0.001956348,3.835,0,0
0.0036117400000000004,0.0062101840000000005,0.0010170680000000003,0.0018083780000000002,-0.0017333000000000001,3.836,0,0
0.002416346,0.004451524,0.0027241100000000005,-0.0035636340000000004,-0.002845078,3.837,0,0
0.0012236340000000001,0.0028409140000000004,-0.00030713599999999995,-0.007100906000000001,-0.003214758,3.838,0,0
0.0035334160000000006,0.0012516740000000004,-0.003115028,-0.0024003340000000005,-0.00064142,3.839,0,0
0.0019613320000000005,-0.0021432120000000002,-0.003948026,0.0005599740000000002,0.00119967,3.84,0,0
-0.0020046860000000003,-0.003327936,-0.006267102,-0.0008832920000000005,0.000614158,3.841,0,0
-0.0021902762,-0.002110652,-0.007804696000000002,0.0006756260000000001,0.0008593434,3.842,0,0
-0.0025959522000000004,-0.0038132260000000003,-0.005797326000000001,0.0017933620000000006,0.0011411994,3.843,0,0
-0.0049160942,-0.0068757720000000005,-0.003118794,-0.0014829079999999996,-0.0003821206000000001,3.844,0,0
-0.0040992468,-0.0075935659999999995,-0.0015685374599999997,-0.0037051603999999996,-0.0016465104000000003,3.845,0,0
-0.00021229080000000023,-0.006661676199999999,0.00112262454,-0.0021141643999999997,-0.0005751984000000002,3.846,0,0
0.0009683893999999995,-0.006205706199999999,0.00410333854,-0.0022915683999999996,-0.0002590232000000002,3.847,0,0
0.0016132193999999996,-0.0041168262,0.0044748125399999995,-0.0014973990000000002,-0.00015328520000000014,3.848,0,0
0.005120245400000001,0.0005571777999999997,0.00568459254,0.004234099000000001,0.0011949547999999999,3.849,0,0
0.005204259200000001,0.0037435858,0.008227068,0.0048763454,0.0006836705999999999,3.85,0,0
0.0012043632,0.004094888,0.0070627604000000005,0.0012447414000000007,-0.0007025534,3.851,0,0
-0.0010473987999999998,0.003150534,0.0046013724,0.002157529400000001,-0.000522036,3.852,0,0
-0.0024110868,0.0013163559999999994,0.003959344400000001,0.002225549000000001,-5.31294e-05,3.853,0,0
-0.0048138688,-0.00101336,0.0022168364,-0.002642623,-0.0005427035999999999,3.854,0,0
-0.0039039520000000005,-0.0018170680000000002,-0.0013195336000000001,-0.002466419,2.8042599999999988e-05,3.855,0,0
0.00016241800000000033,-0.0006071660000000001,-0.002049244,0.0034139810000000004,0.0016556086000000002,3.856,0,0
0.001051328,-0.0003937817999999999,-0.0011686500000000002,0.004444839000000001,0.0020601106,3.857,0,0
0.00039229399999999963,-0.0003766338000000001,-0.001753598,0.0034386480000000007,0.000936388,3.858,0,0
0.00097386,0.0015040881999999998,-0.0014429438000000002,0.004662080400000001,0.0010122080000000001,3.859,0,0
-1.144220000000014e-05,0.0026449242,-0.0004257472000000001,0.0028153844000000008,0.0015068678000000001,3.86,0,0
-0.0015837302000000003,0.0029829502,-0.0010202332000000002,-0.0021951636,-0.0002420142000000002,3.861,0,0
-0.00011367020000000003,0.005283322,-0.0025046712,-0.0038545460000000004,-0.0007709482,3.862,0,0
0.0018634298000000003,0.00740009,-0.0023203948,-0.0028593340000000003,0.0008999618000000001,3.863,0,0
0.0005879798000000002,0.006255258,-0.0030121650000000002,-0.0043792124000000005,0.00018379600000000007,3.864,0,0
0.0008707220000000002,0.0048542898,-0.0048148916,-0.0023642964000000002,-0.00017231799999999994,3.865,0,0
0.0020195620000000004,0.0034627378,-0.0027886536,0.0021537116,0.001415294,3.866,0,0
-0.0001818159999999998,-0.00016283819999999985,0.0001046583999999998,0.0017264160000000001,0.00033004400000000026,3.867,0,0
-0.0011617579999999997,-0.0031218142,3.107900000000018e-05,0.0017971334000000004,-0.0006677179999999999,3.868,0,0
0.00022265800000000036,-0.0036838862,0.001107551,0.0038399934000000004,0.0009177340000000003,3.869,0,0
-0.0004886779999999998,-0.004404846,0.0035911550000000004,0.0008812754000000001,0.0008138040000000002,3.87,0,0
-0.003025572,-0.0055970180000000005,0.0026183162,-0.004614544600000001,-0.001507834,3.871,0,0
-0.001381808,-0.0040349758,0.0003242661999999999,-0.0038533372000000006,-0.0007321492,3.872,0,0
0.00192909,-0.0011188058,0.0010551312,-0.0016255806000000012,0.0008611888000000001,3.873,0,0
0.0013923990000000001,9.756219999999978e-05,0.0016025712,-0.0024290834000000004,0.00021563879999999993,3.874,0,0
0.0007358150000000003,0.0005790722,0.0008245778,-0.0006707734000000005,0.0004548028,3.875,0,0
0.001243719,5.550219999999988e-05,0.0014729606,0.0027449366,0.0005094108000000001,3.876,0,0
-0.0010328769999999998,-0.001823504,0.0021746456,0.0019192031999999996,-0.0013516199999999998,3.877,0,0
-0.004558457,-0.0031596280000000003,0.0008844756000000001,-0.0013751348,-0.0027951539999999998,3.878,0,0
-0.003379572000000001,-0.0026519200000000003,-0.0006987924,-0.0011535496,-0.0026758359999999996,3.879,0,0
-0.0008842939999999994,-0.0020656740000000004,-0.0005204929999999999,-0.0008204595999999999,-0.003117109,3.88,0,0
-0.0006070279999999999,-0.0017163220000000002,-0.0023211150000000003,-0.001765248,-0.0019338202919999999,3.881,0,0
0.002379134,0.0006401239999999998,-0.004107812,0.002676728,0.0027596657080000003,3.882,0,0
0.004585238,0.002060756,-0.0019422920000000002,0.0065105860000000005,0.005028203708000001,3.883,0,0
0.001886726,0.000990336,-0.0012511376000000002,0.0035133816000000005,0.0029898477080000005,3.884,0,0
0.000644328,0.001099732,-0.0024036356,0.0018304115999999999,0.001601528708,3.885,0,0
0.002162654,0.002909002,-0.0005962076,0.0014171979999999995,0.00108733,3.886,0,0
0.0018346540000000002,0.00357985,0.0016077544,-0.0034801020000000005,-0.0015820406,3.887,0,0
0.0015803100000000001,0.0032335040000000003,0.00017997640000000001,-0.006506012,-0.0036327752,3.888,0,0
0.0035982220000000003,0.003442562,-9.753200000000003e-05,-0.002335088,-0.0020305092,3.889,0,0
0.0031109180000000003,0.002260988,0.001758798,0.0004991940000000001,-0.000617237,3.89,0,0
-3.171399999999996e-05,-0.0003242799999999999,0.0014982180000000002,-0.00022784400000000005,-0.000764595,3.891,0,0
-0.0024530280000000003,-0.002528948,0.0010151142000000002,-8.142000000000045e-06,-0.0008705946599999999,3.892,0,0
-0.0054438080000000005,-0.00455005,0.0018261002,-0.0010914080000000003,-0.00097849006,3.893,0,0
-0.008971992,-0.006230968,0.0014943482,-0.004303156000000001,-0.00144780206,3.894,0,0
-0.009459608000000001,-0.0054271156,-0.0006250498000000003,-0.005825378,-0.0009825522599999999,3.895,0,0
-0.005867346000000001,-0.0018155356000000003,-0.0012284998000000004,-0.003636176,0.00074574774,3.896,0,0
-0.0034633399999999996,0.0006047363999999995,-0.0005752800000000003,-0.0029203624000000003,0.0008535824000000001,3.897,0,0
-0.0008352080000000004,0.0023281423999999998,-0.0021119360000000005,-0.0008998104000000003,0.0016237964,3.898,0,0
0.005568752,0.0056136803999999995,-0.0023010040000000006,0.005858893600000001,0.0039929084,3.899,0,0
0.008069546,0.006410358,-0.00011245800000000007,0.007372109600000001,0.0032895624000000004,3.9,0,0
0.006144118,0.003652692,-0.0002681980000000001,0.003880217600000001,0.0003054064000000004,3.901,0,0
0.0062133779999999994,0.001486972,-0.0013673239999999998,0.004338170000000001,0.0005827300000000004,3.902,0,0
0.005700734799999999,0.00012949999999999984,-8.557200000000012e-05,0.003997218,0.001719202,3.903,0,0
0.0017976508,-0.001970878,0.00065249428,-0.0017418440000000002,-1.5506199999999943e-05,3.904,0,0
-0.0003179652,-0.0030274060000000003,-0.00112542972,-0.0030324662000000007,-8.738220000000012e-05,3.905,0,0
0.0008528107999999998,-0.0016006540000000004,-0.00082057952,0.0017249738,0.0019119547999999996,3.906,0,0
0.00017756679999999993,0.000499562,0.0005705204800000002,0.0024753837999999997,0.0005562427999999999,3.907,0,0
-0.0015037200000000003,0.0017021419999999998,-2.9287519999999785e-05,0.00011493979999999994,-0.0029235672000000002,3.908,0,0
-0.002221068,0.0017749299999999997,0.00022917620000000022,-0.0005376262000000003,-0.003808105,3.909,0,0
-0.0033571060000000003,0.0008456679999999997,0.0022513862000000003,-0.0021014340000000005,-0.003946407000000001,3.91,0,0
-0.0051948540000000005,-0.0006682260000000003,0.002567852,-0.005521046000000001,-0.004281056000000001,3.911,0,0
-0.006151504,-0.002202281,0.001297468,-0.006511103800000001,-0.0027465320000000003,3.912,0,0
-0.005741784000000001,-0.003226865,0.002058446,-0.004491232800000001,-0.0005387759999999999,3.913,0,0
-0.005563666,-0.003987331,0.0017920927999999997,-0.004139806800000001,-4.6439999999999915e-05,3.914,0,0
-0.0014046460000000003,-0.002358177,-0.0007507772,-0.0006684968000000003,0.001609928,3.915,0,0
0.004478360000000001,-0.00011333099999999994,-0.0006786031999999999,0.005427255200000001,0.00414045,3.916,0,0
0.005322994,-0.00012382060000000009,0.0006406128,0.005142309000000001,0.0034630373999999997,3.917,0,0
0.00556131,0.0016860294,-0.00029571120000000006,0.003342144000000001,0.0027686534,3.918,0,0
0.00765253,0.0049728254,0.00012109200000000011,0.004856522000000001,0.0028261913999999997,3.919,0,0
0.0053594024,0.004703201,0.0024075740000000004,0.002684344000000001,0.0003755493999999997,3.92,0,0
-0.00036699759999999997,0.0028808550000000003,0.0017847160000000002,-0.0032944240000000007,-0.0025728546000000005,3.921,0,0
-0.00038545960000000004,0.0028165192,-0.00036848200000000005,-0.002481444,-0.0021659920000000003,3.922,0,0
0.0015459164,0.0007205751999999998,0.0003149959999999999,0.0017456899999999998,-0.0007454499999999999,3.923,0,0
0.00019420640000000002,-0.0022382588,0.0010408400000000001,0.0009991099999999999,-0.0009637460000000002,3.924,0,0
3.9948399999999924e-05,-0.0025131362,-0.00016444400000000014,-0.000309454,-0.0006314280000000002,3.925,0,0
0.00040787040000000004,-0.0027725922,0.000570238,6.468799999999949e-05,0.00025607799999999997,3.926,0,0
-0.0018817936,-0.0032992997999999997,0.0017125164000000002,-0.002247148,-0.0003572520000000002,3.927,0,0
-0.0044845516,-0.0033171238000000002,0.00010481840000000015,-0.005643858000000001,-0.0017431100000000002,3.928,0,0
-0.0040391536,-0.0037212117999999997,-0.0017449336,-0.003896468000000001,-0.0007804380000000003,3.929,0,0
-0.002803772,-0.0034045839999999996,-0.0013101050000000002,-0.0008435400000000005,0.0005451,3.93,0,0
-0.0015967960000000004,-0.0022612739999999997,-0.002555043,-0.00027456859999999965,-0.0002262080000000001,3.931,0,0
0.002607044,-0.0008329319999999998,-0.0043961514,0.004513313400000001,0.001230268,3.932,0,0
0.0065463480000000004,0.0019348640000000003,-0.0021810214,0.009226583400000002,0.0029493060000000005,3.933,0,0
0.005699736,0.004096146,-0.0007589133999999999,0.0070484694,0.0015580040000000004,3.934,0,0
0.003570794000000001,0.0040300786000000005,-0.0013320419999999999,0.0049918354,0.00027095000000000005,3.935,0,0
0.002268714000000001,0.0035710084000000002,0.0006931440000000004,0.004369454,0.001052562,3.936,0,0
-0.0013481639999999998,0.0021826744,0.00340917,-0.0006639379999999998,0.00021577800000000007,3.937,0,0
-0.004884744,-0.0006782096000000001,0.0025228258,-0.006162992,-0.002394556,3.938,0,0
-0.0038606976,-0.0019763636,0.0005755297999999998,-0.0037299539999999997,6.0019999999999605e-06,3.939,0,0
-0.0016775696000000005,-0.0017108001999999998,-0.0007142262,0.0006116480000000002,0.003318872,3.94,0,0
-0.0015909955999999998,-0.002111044,-0.0037480902000000004,0.0007185780000000002,0.0018074320000000003,3.941,0,0
-0.0010905656000000001,-0.0016011213999999998,-0.0069302242000000005,0.0003672700000000007,0.0004393419999999999,3.942,0,0
-0.0006010396000000001,0.00010166859999999995,-0.007809494000000001,-0.00047235599999999973,0.0007327379999999999,3.943,0,0
-0.002174168,0.0006118797999999999,-0.006963834,-0.004699646,-0.002335634,3.944,0,0
-0.0031176820000000005,0.0009837078000000002,-0.005439882000000001,-0.008991512,-0.005509000000000001,3.945,0,0
-0.0012652280000000004,0.0023210118,-0.002263134,-0.00757842,-0.004241266,3.946,0,0
-0.00021929940000000027,0.0030501291999999996,0.0022676659999999998,-0.0054244867999999995,-0.0034448440000000003,3.947,0,0
2.4286599999999816e-05,0.0029062391999999998,0.004129316,-0.0032464188,-0.0026332244,3.948,0,0
0.0022320626,0.002491824,0.0060932040000000005,0.0034072412000000006,0.0010103596,3.949,0,0
0.0012447726,0.0005011880000000003,0.009512944,0.007398247200000001,0.0035223235999999997,3.95,0,0
-0.0028111133999999998,-0.002723788,0.008487634,0.006039987200000001,0.0035784515999999996,3.951,0,0
-0.003240386,-0.004284352,0.005395676,0.007281146000000001,0.0043910676,3.952,0,0
-0.0012781519999999998,-0.003505002,0.004581112000000001,0.008920730000000002,0.004325722,3.953,0,0
-0.0006466439999999996,-0.0010123839999999994,0.0026476220000000005,0.003324080000000001,0.0008782039999999998,3.954,0,0
0.0014045720000000004,0.0024294220000000005,-0.0012804980000000001,-0.001188512,-0.001793726,3.955,0,0
0.005813970000000001,0.005684990000000001,-0.001304348,0.0008013300000000001,-0.0018567772,3.956,0,0
0.0057871020000000006,0.005655838000000001,0.00124302,-0.0003527188000000001,-0.0027428732,3.957,0,0
0.0021289160000000002,0.0018591460000000003,0.0020293000000000004,-0.0040610708,-0.0041609912,3.958,0,0
0.0001903780000000005,-0.002410634,0.0025842779999999997,-0.0030165768000000007,-0.0041792132,3.959,0,0
-0.0013811719999999997,-0.006170510000000001,0.0035668379999999997,-0.0022341528000000004,-0.0048330172,3.96,0,0
-0.002852968,-0.008024668,0.0025581880000000003,-0.0050073768,-0.004333082000000001,3.961,0,0
-0.0018020759999999997,-0.0065327860000000005,-0.0007128719999999999,-0.0037551960000000006,-0.00018920600000000036,3.962,0,0
0.00035989058000000004,-0.0031970640000000003,-0.002344624,0.00041145199999999987,0.00315722,3.963,0,0
-0.0003531754200000002,-0.0009120800000000001,-0.003358818,-0.000637126,0.00400041,3.964,0,0
-0.0003931134200000001,0.001170444,-0.006191618000000001,0.00035626400000000023,0.006606840000000001,3.965,0,0
0.00161422458,0.0037915980000000006,-0.006475252000000001,0.00592824,0.008426368,3.966,0,0
0.0011547545799999999,0.004556248000000001,-0.004256074,0.0036149140000000003,0.0038720620000000003,3.967,0,0
-7.56540000000003e-05,0.004530112,-0.00437248,-0.0012417139999999997,0.0003737860000000003,3.968,0,0
0.0003561300000000001,0.005502738,-0.0035368510000000006,0.0012009200000000003,0.001585032,3.969,0,0
-2.9041999999999957e-05,0.0058159480000000005,0.0004008090000000001,0.0012164840000000003,0.00037418200000000014,3.97,0,0
-0.0025195942,0.0041702760000000005,0.002229557,-0.0043028300000000005,-0.0030328380000000004,3.971,0,0
-0.0026406502,0.00250419,0.0014445958,-0.003384334,-0.0023529062,3.972,0,0
0.00019730980000000017,0.0006952139999999998,0.0024741218,0.002003486,0.00025556579999999986,3.973,0,0
0.0013119418000000001,-0.002759816,0.0032425548,0.0011308668,-0.0010112682000000003,3.974,0,0
0.0007891218000000001,-0.005221564,0.0017534258000000004,-0.0019001592000000003,-0.0020514622000000005,3.975,0,0
0.0010736304000000005,-0.0052779948,0.0014491298000000002,-0.0019275172000000004,-0.0009193502000000003,3.976,0,0
0.0009915430400000004,-0.0052048068000000005,0.0017520450000000005,-0.003531869200000001,-0.0013097080000000001,3.977,0,0
1.1777039999999982e-05,-0.0041998752,0.000723919,-0.0070148272000000005,-0.002814678,3.978,0,0
0.0012442070400000003,-0.00024112919999999972,-0.0004809770000000001,-0.0059132,-0.0017967439999999999,3.979,0,0
0.0023904869800000002,0.0030059508,-0.00021358200000000003,-0.0022104280000000004,0.00011091200000000012,3.98,0,0
-0.00014052941999999997,0.0023941176,-0.00169358,-0.0008814559999999998,7.742000000000005e-05,3.981,0,0
-0.0009698460600000001,0.0010447616,-0.004161462,0.0043797820000000005,0.002267626,3.982,0,0
-0.0006606900600000002,-0.0002249880000000004,-0.003323336,0.010539880000000001,0.004864236,3.983,0,0
-0.0038433560600000002,-0.0034885660000000007,-0.002725274,0.00893592,0.002717614,3.984,0,0
-0.004972256,-0.005823674,-0.003894502,0.006726340000000002,0.0005541859999999999,3.985,0,0
-0.0018908100000000001,-0.0044881140000000005,-0.00254114,0.0067631384,0.001052188,3.986,0,0
-0.001397826,-0.0028739834000000002,0.000687202,0.0017132364000000003,-0.001812818,3.987,0,0
-0.002775074,-0.0011233954000000003,0.0005558834,-0.0046133316,-0.005310064,3.988,0,0
0.000882526,0.0031762966000000005,-0.00021405460000000008,-0.002957619600000001,-0.002428962,3.989,0,0
0.004608992,0.004781000600000001,0.0021949354,0.0001425284000000004,0.0008301620000000002,3.99,0,0
0.0039659932,0.0027614506000000006,0.0035709113999999997,-0.001213758,0.0001107440000000001,3.991,0,0
0.004135550599999999,0.0027507957999999997,0.0029101174000000004,-0.001666716,0.0002989980000000002,3.992,0,0
0.0043802825999999994,0.0022532308000000004,0.00375227,-0.001649986,0.0011781700000000003,3.993,0,0
0.0013772126000000003,-0.0006541203999999999,0.0046667720000000005,-0.005101166,-0.0004228120000000001,3.994,0,0
-0.0014957034,-0.0012064164000000002,0.0024015259999999997,-0.008327886,-0.0022111446,3.995,0,0
-0.0012470786,0.0005434956000000001,0.00023236800000000016,-0.006232818000000001,-0.0015513725999999999,3.996,0,0
-0.0011795142,0.0019606818,9.20739999999999e-05,-0.0041248376,-0.0008148566000000001,3.997,0,0
-0.0012939282,0.0027932728,-0.0027671700000000002,-0.0024133136000000005,-0.0007887226,3.998,0,0
0.0014845598,0.003561182,-0.005293885999999999,0.0045400664,0.0011072634000000002,3.999,0,0
0.0024653238,0.003285442,-0.003511142,0.0091507464,0.0022910940000000005,4.0,0,0
0.00010091179999999981,0.0014148239999999999,-0.0031512161999999997,0.0073104304,0.001022012,4.001,0,0
-0.0006033540000000004,-0.00047388200000000023,-0.0040835742000000005,0.007304481800000001,0.001478724,4.002,0,0
-0.00110504,-0.00229516,-0.0014780842000000002,0.007289403799999999,0.0026778040000000006,4.003,0,0
-0.003511648,-0.0038722400000000008,0.0011252238,0.0009317758000000002,0.0005914080000000001,4.004,0,0
-0.0033606400000000002,-0.0036671940000000004,0.00011533059999999987,-0.0038497022,-0.001014056,4.005,0,0
0.0005597739999999999,-0.001660278,0.00035556879999999996,-0.0013330362000000002,0.000495962,4.006,0,0
0.00265638,-0.0006685860000000003,0.0023914408,-0.0006201180000000002,0.00012813080000000004,4.007,0,0
0.0026394160000000003,-0.000249742,0.0024425608,-0.0031994660000000006,-0.0021575572,4.008,0,0
0.0024314519999999997,0.0003343220000000002,0.0021008274,-0.0029604680000000004,-0.0024540932,4.009,0,0
0.0006464380000000002,-0.00012543719999999996,0.0031345025999999997,-0.0034050880000000006,-0.0023768412,4.01,0,0
-0.002079038,-0.0008063834000000001,0.0033109406,-0.006892518,-0.0034117712,4.011,0,0
-0.0034129918000000005,-0.0005125554000000001,0.0017910206000000001,-0.007387832,-0.0026711700000000005,4.012,0,0
-0.0026146198,0.0014542926,0.0016511166,-0.003395322,0.0003955240000000002,4.013,0,0
-0.0031869698,0.0022009166,0.0020561040000000004,-0.0020490216,0.0017251140000000002,4.014,0,0
-0.0026244158,0.0019239638000000004,-0.000591886,0.0002231164,0.0022026546000000003,4.015,0,0
0.0015126462000000002,0.0030354760000000005,-0.001965484,0.0068891564,0.0040315966,4.016,0,0
0.002501842,0.003257168,-0.0007061979999999999,0.007897242399999999,0.0032708484,4.017,0,0
0.001548094,0.00153847,-0.002016188,0.004909984399999999,0.0007536483999999999,4.018,0,0
0.004488776,0.0008918160000000001,-0.0026974139999999995,0.005616836,0.0003982486000000001,4.019,0,0
0.0064113780000000006,0.0010173819999999998,0.0003982180000000002,0.004628842,-0.00010337199999999996,4.02,0,0
0.0031390001200000003,-0.0014461880000000002,0.0020372220000000004,-0.00022743800000000005,-0.0017156613999999998,4.021,0,0
0.00192856212,-0.0028699880000000004,0.0005808480000000001,-0.000565674,-0.0009952731999999997,4.022,0,0
0.00318226412,-0.001471524,0.0018125900000000002,0.002010098,0.0013126068,4.023,0,0
-0.0008237338800000001,-0.0012482791999999998,0.0032098580000000003,7.162800000000023e-05,0.0018818966,4.024,0,0
-0.00544315188,-0.0013007632,0.0008536580000000002,-0.002505778,0.0010499306,4.025,0,0
-0.005555272400000001,-0.00020371339999999998,-0.0005522740000000001,-0.003149418,0.00011309600000000025,4.026,0,0
-0.006012846400000001,-0.00020809540000000007,-0.0008704620000000001,-0.005788366,-0.0014076499999999999,4.027,0,0
-0.007242472400000001,-0.0015709734000000002,-0.00285718,-0.008681268000000002,-0.0038771580000000003,4.028,0,0
-0.005219438400000001,-0.0024362222,-0.004758798,-0.00700591,-0.004559459,4.029,0,0
-0.0029766724000000002,-0.0026043342,-0.0036036086,-0.003878578,-0.002580327,4.03,0,0
-0.0044972960000000005,-0.002977464,-0.0032505006,-0.004170112,-0.001503987,4.031,0,0
-0.003506344,-0.002790766,-0.004205000600000001,0.00015141000000000026,0.001371307,4.032,0,0
-0.0001442119999999999,-0.002089668,-0.0015772366,0.007475688000000001,0.005529709000000001,4.033,0,0
0.000627204,-0.001611352,0.0011151894000000003,0.007335304400000001,0.004411356000000001,4.034,0,0
0.003230662,-0.00012444599999999984,0.0011228244000000005,0.0064787664000000005,0.0020847840000000005,4.035,0,0
0.007753704,0.002394048,0.0028143744000000007,0.0078482616,0.0018007820000000001,4.036,0,0
0.007920572,0.003757526,0.0061571804,0.003017541600000001,-0.0018529220000000001,4.037,0,0
0.004685196000000001,0.003234594,0.005431576400000001,-0.0044106684,-0.005551116000000001,4.038,0,0
0.003603424000000001,0.002638074,0.0026748844,-0.0035493467999999995,-0.004173808,4.039,0,0
0.0029186060000000007,0.002081404,0.0030842800000000004,-0.00013210079999999942,-0.003672806,4.04,0,0
0.001075084,0.0009683580000000001,0.003092004,0.0009898180000000004,-0.001680452,4.041,0,0
0.00031266,-0.000794738,0.001812618,0.004879586,0.003759404,4.042,0,0
0.0005102199999999999,-0.00215287,0.0026094280000000004,0.007722924000000001,0.005530048000000001,4.043,0,0
0.00048482799999999976,-0.001580306,0.0032196028000000005,0.004442016,0.005172225400000001,4.044,0,0
-0.00023286000000000031,-0.0016162440000000002,0.0005036328000000002,-0.0018186839999999997,0.0042304214,4.045,0,0
0.0003014379999999998,-0.0025296080000000005,-0.0032616152,-0.005201984,-7.691060000000012e-05,4.046,0,0
0.0016035599999999998,-0.0009235499999999998,-0.0057665672,-0.008291825999999999,-0.0050795126,4.047,0,0
0.0020319865999999997,0.0033940680000000005,-0.0103292852,-0.010767473999999999,-0.0068674566,4.048,0,0
0.004549460599999999,0.0076828,-0.01352456,-0.005201394000000001,-0.004895708,4.049,0,0
0.005315198600000001,0.007744292000000001,-0.010597186,0.002012186,-0.00038912799999999987,4.05,0,0
0.0006924426000000003,0.004489404000000001,-0.007022239999999999,0.0036026120000000007,0.0029209560000000006,4.051,0,0
-0.0026439734,0.001595324,-0.004172538000000001,0.004655780000000001,0.004579312,4.052,0,0
-0.004059888,-0.002712394,0.0020408219999999994,0.005750590000000001,0.005046484,4.053,0,0
-0.00712668,-0.007891322000000001,0.008005882,0.0022002520000000006,0.0029261620000000004,4.054,0,0
-0.008436450600000001,-0.0083198932,0.00851043,-0.001466808,0.0007984760000000002,4.055,0,0
-0.0052600916,-0.0043320392,0.008579136,0.00022770000000000017,-0.000271894,4.056,0,0
-0.0030492844,-0.0022504912,0.00967344,0.0011919040000000001,-0.002175784,4.057,0,0
-0.0032541684,-0.0018033052000000001,0.007338138,-0.001608926,-0.0031279800000000003,4.058,0,0
-0.0029601624,-0.0005882827999999999,0.004251108,-0.004238988,-0.0029241428,4.059,0,0
-0.0035591018,-0.0007657978,0.0031008652,-0.005932216000000001,-0.0036443708000000003,4.06,0,0
-0.004847672799999999,-0.0022314138,0.0011955391999999999,-0.008650616,-0.0032205586000000003,4.061,0,0
-0.00245928,-5.3901800000000135e-05,-0.0020083988,-0.009069004200000001,-0.0006910546,4.062,0,0
0.0043383879999999994,0.0047296102000000005,-0.0029588628000000003,-0.004238528199999999,0.0015362994000000002,4.063,0,0
0.008242414,0.004933903,-0.0020259728000000003,-0.0015267486000000005,0.0012559062,4.064,0,0
0.009800194,0.0038231472,-0.0032134220000000005,0.00046481539999999985,0.0014181602000000002,4.065,0,0
0.012642158,0.0046972328,-0.0031826280000000003,0.0071805214,0.003884714,4.066,0,0
0.00974636,0.0019856368,-0.0006791580000000002,0.0098167516,0.004061282,4.067,0,0
0.00234636,-0.0021071612000000003,-0.001003516,0.0071549736,0.002340664,4.068,0,0
-0.0013889360000000001,-0.0016620544000000004,-0.0024814,0.007780493999999999,0.0029263600000000002,4.069,0,0
-0.002936868,-8.194439999999995e-05,-0.0016143974000000002,0.0071286019999999995,0.0028620320000000005,4.07,0,0
-0.0046852142,-3.672679999999995e-05,-0.0014552474000000001,0.0007156319999999999,-0.0004594399999999998,4.071,0,0
-0.0033165842,0.0008916732,-0.0036065854,-0.0014645900000000004,-0.0011759639999999998,4.072,0,0
5.832180000000012e-05,0.0009251252,-0.0028139166,0.002797152,0.001220316,4.073,0,0
0.00023938979999999996,-0.0019679888,-7.927459999999983e-05,0.004137956,0.0007483499999999998,4.074,0,0
-0.0007556322000000003,-0.0038318707999999996,0.0007106928,0.00365677,-0.0009283080000000001,4.075,0,0
-0.00032599800000000025,-0.0028423919999999996,0.0019911368000000004,0.0050710780000000006,-0.0010142200000000001,4.076,0,0
-0.0003865880000000002,-0.001953998,0.0041058268,0.0045569978,-0.002247868,4.077,0,0
-0.00098171,-0.0010593060000000003,0.0040594744200000005,0.0022065138,-0.0036850014,4.078,0,0
0.0005754419999999998,0.002009714,0.0019399524199999998,0.0026575498,-0.0020446673999999997,4.079,0,0
0.003348442,0.005358566,0.0015798404200000002,0.005161205800000001,0.00046392660000000023,4.08,0,0
0.0027654859999999997,0.005396814000000001,0.00044814442000000004,0.004879748000000001,0.0011510758000000004,4.081,0,0
0.0022781068,0.0040174336,-0.0032032655800000006,0.006947330200000001,0.0030768878,4.082,0,0
0.0032278268,0.0036070442000000003,-0.0038751660000000006,0.009902794200000002,0.0047057552,4.083,0,0
0.0002952228000000002,0.0020328882000000006,-0.002878002,0.0052157742,0.0017419991999999994,4.084,0,0
-0.003907109200000001,-0.0011802838000000001,-0.004137778000000001,-0.00016733979999999926,-0.0011144688000000007,4.085,0,0
-0.0054836012,-0.0028152398,-0.0038773588000000003,-0.002573259999999999,-0.0014190540000000008,4.086,0,0
-0.007220478000000001,-0.0024405934,-0.0009435728000000002,-0.00992308,-0.0035290960000000002,4.087,0,0
-0.009597328000000002,-0.0024386126000000004,-0.0003701802,-0.01924234,-0.006742124,4.088,0,0
-0.008359846,-0.0011899666,-0.0010195354000000004,-0.019722620000000003,-0.0057085980000000005,4.089,0,0
-0.0050767976,0.0011772314,0.0012202646,-0.017095678000000003,-0.002982702,4.09,0,0
-0.0040895456,0.0012449414,0.0031539274,-0.018359318000000003,-0.003550834,4.091,0,0
-0.0039979856,-0.00017075659999999998,0.0030838494,-0.017723018,-0.004222488,4.092,0,0
-0.0032393036000000004,-0.0010877600000000003,0.0036946768000000003,-0.014984338000000003,-0.003365344,4.093,0,0
-0.0027111276000000004,-0.002390026,0.003954525,-0.014364198000000002,-0.0032591760000000008,4.094,0,0
-0.0021010440000000007,-0.003662396,0.002074429,-0.0133661496,-0.0030756820000000006,4.095,0,0
0.0003108299999999998,-0.0025128060000000002,0.0001587061999999999,-0.0074184096,-0.0009974520000000007,4.096,0,0
0.002433118,-0.000435946,0.00039686619999999996,-0.0012406855999999994,0.001327744,4.097,0,0
0.0024763460000000004,-0.00017552600000000007,-0.0014038398000000003,0.0015770045999999997,0.0022929200000000004,4.098,0,0
0.004155558,-0.00021991799999999994,-0.0040621328,0.007256284599999999,0.004504946,4.099,0,0
0.004565874,0.0001631880000000001,-0.0025082588,0.0105203342,0.005684262000000001,4.1,0,0
0.0006443560000000004,-0.000999242,-0.001728076,0.0064052382,0.003531204,4.101,0,0
-0.0017839319999999998,-0.002466126,-0.0027838960000000005,0.0040276882,0.002522532,4.102,0,0
-0.0018442879999999995,-0.00115618,-0.00018019200000000003,0.0026343679999999998,0.0020423139999999995,4.103,0,0
-0.0036665479999999995,0.000860382,0.002958912,-0.004343932000000001,-0.0010966820000000005,4.104,0,0
-0.005019436000000001,0.001083504,0.00148177,-0.010171832,-0.0037935300000000003,4.105,0,0
-0.001745516,0.0015147220000000002,0.0007208972,-0.007908542000000001,-0.0023301120000000005,4.106,0,0
0.001194628,0.0018842972000000001,0.0026200972,-0.005909434,-0.0014412860000000002,4.107,0,0
0.0009010300000000001,0.0005402112,0.0022442492000000003,-0.006169694,-0.0025375040000000003,4.108,0,0
0.0011071754000000003,-0.0012928588000000003,0.0014463952000000001,-0.0030894000000000004,-0.0011593766600000001,4.109,0,0
0.0019674714000000003,-0.0025217948000000002,0.0023415692000000004,0.000450076,0.00045585734000000016,4.11,0,0
0.0024330794000000005,-0.0034197488000000005,0.00217285,0.00152857,0.0008297173400000002,4.111,0,0
0.0047120894,-0.0033445260000000004,0.0002482440000000001,0.003602788,0.00216610734,4.112,0,0
0.009283459400000001,-0.002342756,-0.00032824999999999993,0.009858638000000001,0.00446669334,4.113,0,0
0.010955800000000002,-0.002269284,0.0007592340000000001,0.013751584,0.0050535680000000005,4.114,0,0
0.010750784000000001,-0.002021266,-0.000662976,0.015849568,0.0054449960000000006,4.115,0,0
0.011722856,0.0005284100000000002,-0.001592942,0.02131744,0.006876818,4.116,0,0
0.008954966,0.0030849300000000005,0.00019939799999999994,0.022372219999999998,0.0057051,4.117,0,0
0.0032677739999999993,0.003944956,-0.0004654000000000001,0.018213798,0.004331262,4.118,0,0
0.0004250320000000003,0.005314496,-0.0018140660000000002,0.016158734,0.0035066839999999995,4.119,0,0
-0.0021734879999999995,0.0061550752,0.0006057579999999999,0.01201539,0.0009835699999999996,4.12,0,0
-0.006819868,0.0034980591999999996,0.002571004,0.002732629999999999,-0.0015613819999999998,4.121,0,0
-0.007802552,3.788920000000022e-05,0.000873876,-0.0019064960000000001,-0.0022285374,4.122,0,0
-0.0033647200000000003,-2.585879999999997e-05,0.0010139566,3.3225999999999915e-05,-0.0012684174000000006,4.123,0,0
0.0007097259999999995,0.0009333312000000002,0.0026773006,0.000568226,-0.0009649706,4.124,0,0
0.0027076846000000003,0.00032040800000000016,0.0022615606000000003,0.000757864,-0.0005263906,4.125,0,0
0.0048477162,0.0008904640000000001,0.0020418506,0.002635794,-0.0003885486000000001,4.126,0,0
0.005417382200000001,0.002696198,0.003205184600000001,0.00153316,-0.0016273512,4.127,0,0
0.0030952682000000005,0.002034494,0.0030850700000000005,-0.001615962,-0.0017352212,4.128,0,0
0.0010250762,-0.0014340600000000002,0.0011432760000000001,-0.0014447979999999997,-0.00030878799999999973,4.129,0,0
0.0010779052,-0.0036168040000000004,0.00051741,0.00036268599999999965,0.0003263440000000002,4.13,0,0
-0.0007251283999999999,-0.0044316500000000005,-0.0010601179999999999,0.00010460200000000008,0.0005144642000000001,4.131,0,0
-0.0023561024,-0.0056212860000000005,-0.005389886,0.004830542,0.0030312242000000004,4.132,0,0
-0.0013237824000000003,-0.005424982,-0.006706394000000001,0.012516564,0.0040607102,4.133,0,0
-0.0025899364000000003,-0.0033909602000000002,-0.0059326654,0.012269844,0.0008987842,4.134,0,0
-0.004262082,-0.0008936916000000003,-0.007739907400000001,0.010074044,-0.0013643137999999999,4.135,0,0
-0.002807836,0.0011040724000000001,-0.007835057400000001,0.009708072,-0.0017132939999999998,4.136,0,0
-0.0022112720000000002,0.0018751184,-0.0051991014,0.0030577320000000014,-0.0028940237999999997,4.137,0,0
-0.004495426,0.0010744082,-0.0050295974,-0.007586628000000001,-0.0042717058,4.138,0,0
-0.0038863324000000003,0.0009215480000000002,-0.006041674,-0.010371894,-0.0024203690000000003,4.139,0,0
-0.00022524640000000026,0.0023955174,-0.0030610560000000004,-0.0077508839999999996,0.000404713,4.14,0,0
0.0010038115999999998,0.0031225194,0.0005449039999999999,-0.0082307,-0.0010756589999999999,4.141,0,0
0.0005887375999999998,0.0036772914,0.001561382,-0.0082331,-0.0038350932,4.142,0,0
0.001409033,0.005761295600000001,0.0030800944,-0.0061215060000000005,-0.0049371612,4.143,0,0
0.0009755433999999999,0.005177222,0.004463338399999999,-0.00682139,-0.00607759,4.144,0,0
-0.0022492086,0.0007099240000000002,0.0035325644000000003,-0.008775214,-0.00595942,4.145,0,0
-0.0028280646,-0.0022228139999999996,0.0022965004,-0.005927306,-0.0027173480000000005,4.146,0,0
-0.0009799386,-0.003770932,0.0038373844000000002,-0.0015026140000000004,0.0006718500000000003,4.147,0,0
-0.000503552,-0.005963166000000001,0.0039352944,0.000745836,0.0024833940000000003,4.148,0,0
0.00347921,-0.0033290459999999996,0.0022947004000000003,0.0062887260000000006,0.0056063860000000005,4.149,0,0
0.008302774,0.002708214,0.0035187844000000006,0.010780722000000001,0.0071788,4.15,0,0
0.006719214000000001,0.0045923000000000005,0.0044426684000000004,0.007946026,0.005397344,4.151,0,0
0.0042645619999999995,0.0049649828,0.0029013624000000003,0.004475534000000001,0.004118182,4.152,0,0
0.0029170660000000007,0.0058357568,0.0027050480000000003,0.0012204900000000003,0.002302048,4.153,0,0
-0.002185433999999999,0.0038209903000000003,0.0035650960000000007,-0.00636051,-0.0014607820000000003,4.154,0,0
-0.007439836000000001,0.0005485563,0.0005261460000000003,-0.01290807,-0.0036057220000000004,4.155,0,0
-0.0071310539999999995,0.00031559229999999995,-0.003021418,-0.011921344000000002,-0.00204287,4.156,0,0
-0.0059674279999999994,0.00036588049999999997,-0.002673554,-0.009752072200000001,-0.0009067800000000004,4.157,0,0
-0.007571286,-0.0022247474999999997,-0.001934162,-0.0101743722,-0.0014047180000000001,4.158,0,0
-0.008591326,-0.004618661,-0.0016927069999999997,-0.009257592200000001,-0.0013049560000000003,4.159,0,0
-0.007893888000000002,-0.006090451,0.00018105499999999984,-0.0080646182,-0.0017314300000000002,4.16,0,0
-0.006609494000000001,-0.007160677000000001,0.0017578714,-0.0089863642,-0.0036237900000000004,4.161,0,0
-0.0037727420000000004,-0.006080626000000001,0.0008060214,-0.008841276,-0.004374436800000001,4.162,0,0
0.0014084780000000003,-0.002303892,-7.586700000000005e-05,-0.0039946719999999995,-0.0019082908000000005,4.163,0,0
0.004772228000000001,0.0008456299999999998,0.0006815460000000001,-0.0007326960000000003,-4.528680000000023e-05,4.164,0,0
0.005823701400000001,0.0021794300000000004,-0.0009379239999999998,0.0008899379999999996,0.0013199271999999999,4.165,0,0
0.007910299400000001,0.0037428800000000005,-0.0029016323999999996,0.007452788,0.0048530212,4.166,0,0
0.0074723194,0.0040194340000000005,-0.0013156184,0.011002808,0.005578192,4.167,0,0
0.0030066614000000005,0.0023059982,-0.0012977065999999998,0.007323596000000001,0.002891932,4.168,0,0
-1.0788600000000495e-05,0.0017022922,-0.0027493686,0.005425345999999999,0.0017708740000000004,4.169,0,0
-0.0023594580000000005,0.0020464424,-0.0006190325999999998,0.003193898000000001,0.0002247480000000002,4.17,0,0
-0.0071844579999999995,0.0005984604,0.0014212114,-0.005407582000000001,-0.0033721380000000002,4.171,0,0
-0.009876953999999999,-0.0014334676,-0.00042177459999999986,-0.011072862,-0.0042397,4.172,0,0
-0.007076909999999999,-0.0014574274,-0.0005051139999999999,-0.008817724,-0.001736834,4.173,0,0
-0.0038530160000000003,-0.0012309814,0.001363304,-0.0075384480000000005,-0.000527914,4.174,0,0
-0.0011212799999999999,-0.0016470836000000003,0.0006593960000000002,-0.008278168,-0.001199516,4.175,0,0
0.003012106,-0.0015154576000000002,0.0005077316000000001,-0.006298302,-0.001316378,4.176,0,0
0.00521225,-0.0009830036,0.0020480696000000002,-0.0051995520000000005,-0.001589002,4.177,0,0
0.004844276000000001,-0.0010252534,0.0015914496000000006,-0.006654354000000001,-0.003044112,4.178,0,0
0.00421174,-0.0014835114,-0.0008210623999999998,-0.005009602000000001,-0.0030346039999999998,4.179,0,0
0.004078086000000001,-0.0010932674,-0.0015261124,0.00021227799999999977,-0.0004029120000000003,4.18,0,0
0.001926032,-0.0007420774000000001,-0.0020826499999999997,0.002246782,0.0002678039999999998,4.181,0,0
0.0009867860000000001,-0.00040052800000000004,-0.005120762000000001,0.005622212,0.00033502999999999983,4.182,0,0
0.003072154,0.0006767133999999999,-0.005629,0.013528604000000003,0.003357754,4.183,0,0
0.0025624624000000003,0.0013516154,-0.0034769499999999995,0.014551230000000002,0.004327186,4.184,0,0
0.0008665624000000005,0.0012070414,-0.0036280740000000002,0.01024355,0.0026499820000000004,4.185,0,0
0.0012341418000000003,0.0011101634,-0.00314366,0.008729586000000001,0.0025067160000000004,4.186,0,0
-6.700819999999976e-05,0.0006103999999999999,0.0006596240000000001,0.0047475040000000005,0.0013882120000000002,4.187,0,0
-0.0038455422000000005,-0.0007969600000000001,0.0030321240000000006,-0.004153586000000001,-0.002543478,4.188,0,0
-0.0035772612000000005,-0.001039658,0.0027670240000000003,-0.007490650000000001,-0.0034756879999999998,4.189,0,0
-0.0011470592000000003,-0.00019661400000000012,0.004495186,-0.0038968260000000004,-0.0010059519999999998,4.19,0,0
-0.0015336205999999998,-0.00032810000000000006,0.006396014,-0.0031386260000000003,5.440799999999982e-05,4.191,0,0
-0.0012997066,-0.0002822539999999999,0.005412956,-0.0040753840000000005,0.0009383820000000002,4.192,0,0
-0.00010776060000000015,-0.0001241554,0.004506478,-0.0033285320000000004,0.0020896680000000003,4.193,0,0
-0.0009068960000000001,-0.0015028474,0.003898299,-0.004163836000000001,0.001301336,4.194,0,0
-0.0018983428000000002,-0.0019833111000000002,0.0013912669999999999,-0.005277244000000001,-0.00047268279999999993,4.195,0,0
-0.0001541308,0.0008986489000000005,-0.0016002170000000003,-0.0012559700000000004,-0.0006565708,4.196,0,0
0.0017281812000000001,0.003955106900000001,-0.0022966210000000004,0.00433243,0.00047657320000000006,4.197,0,0
0.0014168610000000002,0.004759938300000001,-0.003199243000000001,0.0068787399999999995,0.0008765934000000001,4.198,0,0
0.004093869,0.006916804300000001,-0.004790146000000001,0.013835868000000001,0.0035679974,4.199,0,0
0.0074026918,0.008509788,-0.0030244340000000003,0.019051232,0.005367156200000001,4.2,0,0
0.0049753278,0.0060074886,-0.0009584100000000001,0.012970112000000002,0.0023499822000000005,4.201,0,0
0.0022972217999999997,0.0025148746000000005,-0.001104712,0.006658052000000001,-4.954779999999967e-05,4.202,0,0
0.0024363238,-0.0004855333999999997,0.00072028,0.004191282000000001,-0.00019966399999999992,4.203,0,0
-0.0002870442000000003,-0.0041489754,0.003706234,-0.0015175079999999992,-0.0007027779999999998,4.204,0,0
-0.004367126200000001,-0.0076140754,0.0035181780000000003,-0.00766689,-0.0017694200000000003,4.205,0,0
-0.0034113662,-0.009374526,0.0024189288,-0.005858222000000001,0.0007912284000000002,4.206,0,0
-0.0023942282,-0.010609472,0.0029857828000000005,-0.002495581,0.0027205344000000007,4.207,0,0
-0.004429162,-0.009581608,0.0020072088,-0.004602363,0.00035875440000000033,4.208,0,0
-0.005478264,-0.006543082,-1.6225199999999988e-05,-0.007781973000000001,-0.0027487316,4.209,0,0
-0.005075294,-0.004971848000000001,-0.000215891,-0.008887415000000001,-0.005099527600000001,4.21,0,0
-0.00415396,-0.003777164,-0.00014381219999999998,-0.009110791000000002,-0.007101776000000001,4.211,0,0
-0.0018689659999999992,-0.00011678800000000026,-0.0013287021999999998,-0.008432466000000001,-0.007008929600000001,4.212,0,0
0.0022513740000000004,0.003714688,-0.0022089062,-0.0033022579999999998,-0.0031819196000000003,4.213,0,0
0.004831472000000001,0.0038090959999999997,-0.0012161621999999999,0.0013239380000000004,-0.0014307835999999997,4.214,0,0
0.005621068,0.003835544,-0.0023737044,0.0036662020000000003,0.0003196564000000003,4.215,0,0
0.007772716000000001,0.00550992,-0.003994948,0.00952445,0.005160196400000001,4.216,0,0
0.007527008000000001,0.004356894,-0.0016447679999999998,0.013034904,0.007113930000000001,4.217,0,0
0.0032365080000000004,0.001383386,-0.0007636779999999995,0.010469104000000002,0.005127588000000001,4.218,0,0
0.001387528,0.001974242,-0.001909566,0.009695898000000001,0.004877618,4.219,0,0
-0.0002637080000000001,0.003516246,0.00017374000000000046,0.008665988,0.004601334,4.22,0,0
-0.005935488,0.00206893,0.0024181760000000006,0.0007871279999999994,0.00042019,4.221,0,0
-0.008544728000000001,0.0009134660000000001,0.0007150500000000003,-0.005201516000000001,-0.002551276,4.222,0,0
-0.004548,0.0010270580000000002,0.0003227964000000002,-0.0030351300000000005,-0.0022005720000000005,4.223,0,0
-0.0019668660000000003,-0.0004841399999999998,0.0023049244,-0.0019443060000000005,-0.0017947220000000003,4.224,0,0
-0.00218721,-0.0026247799999999997,0.0023012084,-0.003951116,-0.0018912446000000002,4.225,0,0
-0.00143393,-0.0032734820000000003,0.0016991466,-0.0037367360000000005,-0.00044842120000000013,4.226,0,0
-0.0011977780000000003,-0.0027034909999999997,0.0020499982,-0.0037119640000000008,0.0006526799999999999,4.227,0,0
-0.001641918,-0.001434699,0.0014196398000000002,-0.0058753040000000005,-0.00025091,4.228,0,0
-0.0009708,6.739500000000048e-05,-0.0010256942000000002,-0.00608966,-0.0012389100000000002,4.229,0,0
0.0027986160000000003,0.002222623,-0.0025155582000000003,-0.002372992000000001,-0.001243364,4.23,0,0
0.005897436000000001,0.003229657200000001,-0.0027359424,3.358799999999973e-05,-0.0022062554,4.231,0,0
0.007906894000000001,0.0028087862000000007,-0.004702594000000001,0.0031281660000000004,-0.0014579445999999999,4.232,0,0
0.010305346,0.0029429042000000006,-0.004881818,0.009137612,0.0029888334000000003,4.233,0,0
0.0081573918,0.0018831730000000001,-0.0016251460000000005,0.00900177,0.0043573094,4.234,0,0
0.0026699517999999997,-0.00044797300000000006,-0.0003453900000000002,0.004875662,0.0038966260000000007,4.235,0,0
-0.0007611082,-0.0006147552,0.00020957999999999996,0.004619076000000001,0.005146162,4.236,0,0
-0.0031678222000000008,0.0005096107999999999,0.0032719159999999997,0.0013981420000000002,0.0022503560000000007,4.237,0,0
-0.006830825400000001,5.93480000000003e-06,0.0048231360000000004,-0.006381918,-0.0041560040000000005,4.238,0,0
-0.006560901200000001,-7.534080000000008e-05,0.0027178616000000004,-0.006736086,-0.0063253400000000005,4.239,0,0
-0.0024041272,0.0014163792,0.0021461596,-0.0015200060000000004,-0.005022202,4.24,0,0
-0.0005911632000000001,0.0016264606,0.0033078756000000003,-0.0014529939999999998,-0.004974124000000001,4.241,0,0
-0.0006951212,0.00026817059999999996,0.0025888056,-0.0027340260000000005,-0.0039302619999999995,4.242,0,0
-0.0007029410000000001,-0.0006350814000000001,0.0021593400000000005,-0.0017347640000000004,-0.0008238659999999999,4.243,0,0
-0.0015499150000000002,-0.0011282946000000002,0.0026809644000000002,-0.003866798000000001,0.000522324,4.244,0,0
-0.0030543810000000005,-0.0014449230000000003,0.0014054624,-0.007655032000000001,-5.302919999999986e-05,4.245,0,0
-0.0016072530000000003,-0.00028757840000000006,-0.0010225016,-0.006311920000000001,0.0009221668,4.246,0,0
0.0013114049999999999,0.0011209456000000001,-0.0013125256000000001,-0.001962294,0.0027268748,4.247,0,0
0.0014378033999999998,0.0006244356,-0.002039226,-0.0008555880000000004,0.0016305468000000001,4.248,0,0
0.0023928614,-0.0004305244,-0.0049095860000000005,0.003313658,0.0022760768000000004,4.249,0,0
0.0041643794,-0.001625814,-0.0044206,0.010488232,0.005092892,4.25,0,0
0.0022089174000000005,-0.0031705020000000004,-0.0026724179999999998,0.010390662000000002,0.003101284,4.251,0,0
-0.0005514306000000001,-0.0033449520000000004,-0.003653506,0.008098478000000001,0.0010172800000000002,4.252,0,0
-0.00047786400000000015,-0.0016721480000000005,-0.0029266626000000002,0.008485519000000002,0.00265526,4.253,0,0
-0.0007559804000000002,0.000546142,0.0004983574000000001,0.003812779,0.0011905919999999999,4.254,0,0
-0.0019498220000000004,0.00207918,0.0015310374,-0.004479521,-0.0025963320000000007,4.255,0,0
0.000278426,0.0024643726,0.0005296734,-0.0055013072,-0.0018406894,4.256,0,0
0.003192958,0.0021073938,0.0024170794,-0.0032624772,0.00020627860000000016,4.257,0,0
0.002737186,0.0009850058,0.004211202000000001,-0.0046668761999999996,-0.0019403254000000003,4.258,0,0
0.0014985744,-0.0007382542000000001,0.0038186879999999998,-0.0048019162,-0.0046423334,4.259,0,0
0.000767296,-0.0019577722,0.004266758,-0.0037267662000000003,-0.004422573399999999,4.26,0,0
-0.0016793040000000002,-0.0028407088000000002,0.004658512,-0.005702728000000001,-0.0042901680000000005,4.261,0,0
-0.00392112,-0.0034263760000000005,0.002651988,-0.007421388,-0.004815578000000001,4.262,0,0
-0.0028164660000000005,-0.0028004400000000004,8.063799999999985e-05,-0.00454809,-0.002538716,4.263,0,0
-0.0017895466000000006,-0.00129292,-0.00046294760000000016,-0.0016043800000000003,0.00138899,4.264,0,0
-0.0025108826,-0.00032604800000000006,-0.0034775316000000005,-0.0006952160000000002,0.002561262,4.265,0,0
-0.0008425106,0.001771184,-0.007453609600000001,0.004801784,0.004053364,4.266,0,0
-0.0002700500000000001,0.003196094,-0.007745363600000001,0.009276652,0.006207500000000001,4.267,0,0
-0.0043292140000000005,0.0012413940000000005,-0.0087641416,0.006438904,0.005664882200000001,4.268,0,0
-0.005250875400000001,0.0008204761999999998,-0.010955602000000002,0.004849786,0.005181844600000001,4.269,0,0
-0.001999445400000001,0.0027392162000000005,-0.008856590800000001,0.004322795999999999,0.003787500600000001,4.27,0,0
-0.0010721214000000007,0.0019240442000000005,-0.0043870248,-0.0008314859999999999,-0.0003653793999999996,4.271,0,0
-0.0003416220000000001,-3.9521799999999666e-05,-0.0025661048,-0.004403548000000001,-0.0033974654000000007,4.272,0,0
0.004075542,0.0011505862000000002,0.0006334412000000004,-0.001011428,-0.0024633236,4.273,0,0
0.005656368000000001,0.0008697,0.0062816012000000004,0.0007999200000000006,-0.0018039940000000006,4.274,0,0
0.0020767900000000002,-0.0018766440000000002,0.00950267,-0.0006804639999999995,-0.0021537140000000006,4.275,0,0
-0.0005959519999999999,-0.002213862,0.010674368,-0.0003882299999999998,-0.0013734640000000002,4.276,0,0
-0.0015096827999999999,-0.00014672399999999999,0.011657094000000002,-0.0016844579999999994,-0.0008993536000000004,4.277,0,0
-0.0017444948000000001,0.0010796300000000003,0.010649944000000001,-0.0037321358,-0.0006713556000000002,4.278,0,0
-0.0003955028000000001,0.0005815660000000004,0.00654375,-0.0027038758000000004,-0.0009319436000000002,4.279,0,0
0.0026598832,0.0012895886000000004,0.0028914739999999998,-0.0008576397999999999,-0.0010055976000000002,4.28,0,0
0.0034153612000000005,0.0018447446000000004,0.0011610561999999998,-0.0021168718000000005,0.00021663239999999994,4.281,0,0
0.0024303379999999998,0.00021500060000000023,-0.0019576358,-0.0015364158000000004,0.001210058,4.282,0,0
0.003660506,-0.0005026569999999999,-0.0036117458,0.0030922019999999996,-0.00010620420000000004,4.283,0,0
0.00279987,0.0005440610000000001,-0.0017453197999999998,0.0039317219999999995,-0.0020123442,4.284,0,0
-0.0005397180000000002,0.00010271640000000001,-0.0015844618,0.0029841899999999994,-0.0013197702,4.285,0,0
-0.0005640620000000003,-0.00047230739999999996,-0.0020403439999999995,0.005323451999999999,0.00039945180000000016,4.286,0,0
0.00014192600000000006,0.0002982166,0.0004345560000000001,0.004768814,0.0005635458000000002,4.287,0,0
-0.0021558478000000005,0.000111635,0.0014036872000000003,-0.0020464260000000005,0.00045893580000000027,4.288,0,0
-0.0024062578,-0.00041731660000000003,-0.0013170488000000002,-0.005755260000000001,0.0022408878000000003,4.289,0,0
0.0007039702000000001,-0.00023386980000000005,-0.0015369908000000003,-0.00261244,0.0046395738,4.29,0,0
0.0011338142000000002,-0.000830106,-0.00010755080000000015,-0.001550476,0.0030981358,4.291,0,0
-0.0007221797999999997,-0.002048054,-0.0010352898000000005,-0.0033305440000000004,-0.0006888682000000005,4.292,0,0
-0.0009585919999999995,-0.0021262828,-0.0010045912,-0.002201352,-0.003172944000000001,4.293,0,0
-0.0012397019999999996,-0.0024854992,0.0007736268000000002,-0.0011582233999999996,-0.007379366,4.294,0,0
-0.0028244679999999997,-0.003540296,0.0007010548,-0.002817575006,-0.010469092000000001,4.295,0,0
-0.0024188207999999998,-0.0029694348000000002,-0.0012017552000000002,-0.001762871006,-0.007132696000000001,4.296,0,0
-0.00020025700000000002,-0.0023098308,-0.0010067994000000002,0.0032661089939999997,-0.0008258559999999998,4.297,0,0
-0.001086409,-0.0036445788,-0.0007356232000000002,0.005268920994,0.003634120000000001,4.298,0,0
-0.0007176149999999999,-0.0023515468000000006,-0.0029410172000000003,0.006461062394,0.008340984000000001,4.299,0,0
0.002289203,0.0007738252,-0.0031320532,0.01100053,0.012510440000000001,4.3,0,0
0.0007924838000000001,0.0024172459999999996,-0.0018225891999999995,0.008013036,0.00910117,4.301,0,0
-0.0009328759999999998,0.0040302,-0.002719942,-0.0005442440000000002,0.0018920899999999995,4.302,0,0
0.0009377199999999999,0.003894264,-0.0030691895999999997,-0.002679488,-0.0009549820000000004,4.303,0,0
-0.00021696799999999992,0.001655516,-0.00114951754,-0.005087902,-0.0023824320000000003,4.304,0,0
-0.0036333439999999997,-0.00026578800000000015,-0.00129214754,-0.011636422,-0.0056782180000000005,4.305,0,0
-0.001785126,-0.001072346,-0.0028358755400000003,-0.009541904,-0.004714158,4.306,0,0
0.001624206,-0.0012386700000000003,-0.00375902954,0.00028495600000000114,0.000351788,4.307,0,0
0.004252168000000001,0.001407186,-0.00538433194,0.009309576000000002,0.0046496440000000005,4.308,0,0
0.008493316,0.005326104,-0.004523375999999999,0.019135774,0.008618490000000001,4.309,0,0
0.009937880000000001,0.007652132000000001,-0.0015151779999999998,0.023205273999999998,0.009195192,4.31,0,0
0.007145404000000001,0.008009502,0.0008539860000000004,0.018769980000000002,0.006137982,4.311,0,0
0.003712458000000001,0.007183272000000001,0.00365795,0.01245404,0.002194956,4.312,0,0
7.884000000000054e-05,0.006232931600000001,0.00717986,0.00400817,-0.001819718,4.313,0,0
-0.004792622000000001,0.0034903516000000007,0.007672882000000001,-0.005761654,-0.0051657472,4.314,0,0
-0.005818616,0.0012813866,0.006784378000000001,-0.008363044,-0.005841169199999999,4.315,0,0
-0.004915846,-0.00037292940000000006,0.008969144000000002,-0.009380524000000001,-0.0057386092,4.316,0,0
-0.0077547760000000006,-0.0041030774,0.009335592,-0.018905584,-0.008990069199999999,4.317,0,0
-0.009267480000000002,-0.008145151,0.005584002000000001,-0.026815694,-0.0121010152,4.318,0,0
-0.006703396,-0.010333391,0.002318978,-0.027075254,-0.011986518000000002,4.319,0,0
-0.0044101520000000005,-0.011603218,-0.00020277400000000018,-0.025640762,-0.010443150000000002,4.32,0,0
-0.002435464,-0.011515018000000002,-0.004726556000000001,-0.020907034600000002,-0.007542070000000001,4.321,0,0
0.0024876539999999997,-0.00774659,-0.007525136000000001,-0.007556952600000001,-0.00036364600000000024,4.322,0,0
0.005489044,-0.0026991699999999994,-0.006504860000000001,0.005135227399999999,0.005881854000000001,4.323,0,0
0.005407674,0.001376154,-0.006473216,0.011415371399999999,0.007835206,4.324,0,0
0.007365516000000001,0.005304346,-0.007212310000000001,0.0184455294,0.011192023999999998,4.325,0,0
0.008848598000000001,0.007919752,-0.005032652,0.024999702000000002,0.013595804,4.326,0,0
0.0066665180000000015,0.007126668,-0.0012424080000000004,0.02408144,0.011066373999999999,4.327,0,0
0.0023213100000000013,0.004378927999999999,0.0013921360000000002,0.01709898,0.007375421999999999,4.328,0,0
-0.0006705700000000001,0.002304546,0.004056682,0.010755616,0.00461669,4.329,0,0
-0.0029396679999999994,-0.0008060700000000003,0.007114602000000001,0.0026837280000000007,-0.0005109980000000002,4.33,0,0
-0.003948982,-0.004478536,0.00635947,-0.00445781,-0.004194884,4.331,0,0
-0.0018172779999999996,-0.004548112,0.00474466,-0.004853236800000001,-0.0027961220000000003,4.332,0,0
-0.0021652380000000008,-0.0038200820000000003,0.00624344,-0.008368256800000001,-0.004017650000000001,4.333,0,0
-0.005679930000000001,-0.004840954,0.005824052000000001,-0.0172479128,-0.009086098,4.334,0,0
-0.0072419984000000005,-0.004410263,0.003101912000000001,-0.020598804800000002,-0.010388298,4.335,0,0
-0.0075766724,-0.0026691650000000003,0.0019244600000000007,-0.0187473348,-0.0076472120000000005,4.336,0,0
-0.008854456400000002,-0.001676147,0.0003051120000000002,-0.017119248000000004,-0.006193332000000001,4.337,0,0
-0.005262756,0.0010100970000000004,-0.003948218,-0.01051286,-0.0037682320000000007,4.338,0,0
0.0015850160000000003,0.004197615,-0.006388385999999999,0.0015752499999999998,0.003068958,4.339,0,0
0.0027607064,0.004010529,-0.007137256,0.00896587,0.007190326,4.34,0,0
0.0037399884,0.004448991,-0.008934528,0.012692118,0.006758328,4.341,0,0
0.007706330400000001,0.005982297000000001,-0.009052304,0.018640098,0.008602692,4.342,0,0
0.0075323234000000015,0.004720959,-0.006851068000000001,0.021400370000000002,0.010664891999999999,4.343,0,0
0.0024521914000000004,0.0014325230000000004,-0.003869970000000001,0.01637842,0.0073562620000000006,4.344,0,0
-0.0018975126000000003,-0.0008150659999999999,-0.0008498120000000005,0.00932812,0.002413162000000001,4.345,0,0
-0.0033338506,-0.0007444819999999999,0.002494244,0.0041191532000000005,0.0001276760000000006,4.346,0,0
-0.0033794906000000004,-0.0003387539999999997,0.003747484,-0.0035143548000000006,-0.0031446599999999996,4.347,0,0
0.00024623599999999907,0.0009396819999999996,0.001920696,-0.0076023848000000005,-0.0051255138,4.348,0,0
0.005870476,0.00418522,0.0022779360000000004,-0.005854040800000001,-0.0035999018,4.349,0,0
0.005824935999999999,0.005036804000000001,0.0039513180000000005,-0.0099003408,-0.005147741800000001,4.35,0,0
0.0014077200000000003,0.0014063460000000006,0.0021374980000000003,-0.017225214000000003,-0.0095182378,4.351,0,0
-0.0009890259999999996,-0.0016739340000000002,-3.3995999999999896e-05,-0.017809048,-0.010163195800000002,4.352,0,0
-0.0026024719999999998,-0.002932964,0.0006958644000000002,-0.014784418000000004,-0.007813582000000001,4.353,0,0
-0.0040423,-0.004319130000000001,0.00046631439999999993,-0.011838338000000002,-0.005219234000000001,4.354,0,0
-0.0003260959999999998,-0.0029515194000000002,-0.0011986136,-0.003339336000000001,0.0012339260000000006,4.355,0,0
0.0047469980000000005,0.0008592526,0.0006318344000000001,0.007530064000000001,0.009417505999999999,4.356,0,0
0.004007364,0.0026320186,0.0028757084,0.012818306000000002,0.01238348,4.357,0,0
0.00337433,0.0036628325999999998,0.001745906,0.015576426,0.011256616,4.358,0,0
0.005922838,0.0050368746,0.0008529405999999999,0.018273942,0.009987550000000001,4.359,0,0
0.004977672,0.003787138,0.0016835645999999998,0.016599114,0.006844652,4.36,0,0
0.001655498,0.0010768059999999996,0.0013153805999999999,0.009919234,0.0016859119999999995,4.361,0,0
0.0005040239999999996,-0.001233684,-0.00011064340000000025,0.003926737999999999,-0.0015693120000000002,4.362,0,0
-0.0017376060000000005,-0.00434085,0.0007726085999999997,-0.0006856873999999995,-0.0029301276000000005,4.363,0,0
-0.006258086,-0.006811592000000001,0.00045559099999999977,-0.0059368354,-0.004701057600000001,4.364,0,0
-0.0046828500000000006,-0.004962648,-0.001907939,-0.0047803814,-0.0037869160000000004,4.365,0,0
-0.00055383,-0.002706168,-0.000690399,-0.0015043168000000002,-0.0022352780000000003,4.366,0,0
-0.002530396,-0.0031981040000000002,0.0010683049999999999,-0.006989820800000001,-0.005452934,4.367,0,0
-0.004630586,-0.002740152,-0.0008031829999999998,-0.012386035400000002,-0.0075661744,4.368,0,0
-0.003916073000000001,-0.0015563540000000002,-0.00183182,-0.011491134,-0.0062941484,4.369,0,0
-0.004668647,-0.0007553680000000006,-0.0009904956,-0.011618396000000003,-0.006168892,4.37,0,0
-0.005783629000000001,0.00025894799999999973,-0.002440248,-0.011201904600000001,-0.005301966,4.371,0,0
-0.0018206569999999998,0.0021872987999999997,-0.0035493820000000002,-0.0027357825999999993,0.00032182800000000013,4.372,0,0
0.0031078190000000004,0.0037829548,-0.0012825008,0.0054335574000000005,0.005232128000000001,4.373,0,0
0.004442936000000001,0.0034809384000000004,-0.0004029868000000001,0.008110884,0.0066089980000000005,4.374,0,0
0.005313616,0.0022047991399999998,-0.0017124252000000003,0.012543658,0.008851018,4.375,0,0
0.006070519999999999,0.0015378591400000002,-0.0013429568000000002,0.016876902,0.009974664000000001,4.376,0,0
0.004331362,0.0007373883400000002,-0.0002431928000000002,0.015306932200000001,0.007416668000000001,4.377,0,0
0.0005334259999999996,-0.00027356165999999993,-0.0005339208000000003,0.0100145322,0.003860664,4.378,0,0
-0.0011778660000000003,0.0012664427400000003,-3.16876000000002e-05,0.0059694922000000025,0.0020297544,4.379,0,0
-0.002562748,0.002232,0.0024133104000000002,2.5892200000000084e-05,-0.0009309676000000001,4.38,0,0
-0.004434616,0.000730574,0.0017864916,-0.005606869800000001,-0.0036035376000000006,4.381,0,0
-0.0019125280000000001,0.000882716,0.0008976358000000001,-0.003947691999999999,-0.0022940936,4.382,0,0
0.00038038000000000004,0.0009617460000000002,0.0040746626,-0.0030896920000000002,-0.0023084236,4.383,0,0
-0.0015862980000000003,-0.0018366760000000002,0.0054148314,-0.008069092,-0.005071114,4.384,0,0
-0.0017687120000000004,-0.0040995400000000005,0.0040221794,-0.010219572,-0.005625904,4.385,0,0
-0.00023743600000000037,-0.004131986,0.0044481322,-0.009641188,-0.004801578,4.386,0,0
-0.0014338410000000004,-0.003919984,0.004656854,-0.0121542,-0.006659328,4.387,0,0
-0.0013015190000000003,-0.003449418,0.0011220560000000002,-0.0108694354,-0.007408652000000001,4.388,0,0
0.002927929,-0.001053324,-0.0015560700000000001,-0.0024795514000000005,-0.003775922000000001,4.389,0,0
0.0048292990000000004,0.0018574000000000004,-0.0022453539999999998,0.0031288886,-7.937000000000005e-05,4.39,0,0
0.004355423000000001,0.0032737680000000003,-0.0041654660000000005,0.0059819465999999995,0.0026624039999999997,4.391,0,0
0.005238176000000001,0.004184036,-0.005587884,0.0111248886,0.006140952,4.392,0,0
0.004355518,0.004961938000000001,-0.0051745834,0.013119274,0.008439646,4.393,0,0
0.00027199000000000017,0.0034810920000000003,-0.0049798094,0.009386204000000002,0.007265752,4.394,0,0
-0.0033560440000000003,8.428199999999976e-05,-0.0055506054,0.005092028,0.004785081,4.395,0,0
-0.005042886000000001,-0.00248524,-0.0048619314,0.0024254840000000008,0.0032179009999999996,4.396,0,0
-0.006699694,-0.004395744,-0.0042323234,-0.002052172,0.0009013879999999999,4.397,0,0
-0.004831028000000001,-0.005507036000000001,-0.0056132379999999996,-0.003355404,-0.001194844,4.398,0,0
0.00046109199999999975,-0.0046378059999999995,-0.004208766,0.001550742,-0.001151408,4.399,0,0
0.001764122,-0.0027843082,0.000607836,0.00154864,-0.0022343529999999997,4.4,0,0
0.0003685299999999997,-0.0019835682,0.003056334,-0.0034110160000000007,-0.004717067,4.401,0,0
0.0010716439999999996,-0.0014967022,0.00482137,-0.004377164000000001,-0.0047017472,4.402,0,0
0.00047321199999999976,-0.0001355302000000003,0.008405782,-0.004593318000000001,-0.0031086658000000003,4.403,0,0
-0.0024223233200000006,0.0011929357999999996,0.009793224,-0.008113285999999999,-0.0026622505000000003,4.404,0,0
-0.0017145893200000003,0.0030162179999999993,0.007373754000000001,-0.006592718400000001,-0.0014350004999999998,4.405,0,0
0.00169712268,0.006152228,0.0057847298,0.0006920816000000002,0.0013434295,4.406,0,0
0.0018099946800000002,0.008530822,0.0041838278,0.0040975656,0.0023371147,4.407,0,0
0.0005222026799999999,0.008095748,0.0004513398000000005,0.0050190576,0.0027314813,4.408,0,0
0.000845242,0.0058666759999999995,-0.0019211802,0.007445745600000001,0.004202728,4.409,0,0
5.2466000000000036e-05,0.0024120219999999998,-0.0025262142,0.006888400000000001,0.0040079948,4.41,0,0
-0.0018154640000000001,-0.0012597060000000002,-0.00277985,0.0021956199999999997,0.0017680988000000003,4.411,0,0
-0.0017498519999999997,-0.0027747014,-0.0030498260000000003,-0.0005369000000000003,0.00040445080000000016,4.412,0,0
-0.0009759540000000002,-0.0032563274000000004,-0.002110722,-0.0008614660000000002,-0.0006756892,4.413,0,0
-0.001680172,-0.0048947774000000005,-0.0016397320000000003,-0.0019119140000000005,-0.0039381712,4.414,0,0
0.00020475400000000003,-0.0050520294000000006,-0.0023386020000000004,0.000948742,-0.0036796264000000006,4.415,0,0
0.0024089660000000002,-0.0043235694,-0.0008018340000000004,0.00460878,0.00021163359999999947,4.416,0,0
-0.00022149400000000003,-0.006608422,0.0013379779999999999,0.0005260600000000001,-4.7184000000003714e-06,4.417,0,0
-0.0013214519999999999,-0.007621296000000001,0.00145645,-0.00475171,-0.0008659764000000003,4.418,0,0
0.0014635220000000003,-0.004698704,0.0020667079999999996,-0.0056719146,0.0012464055999999997,4.419,0,0
0.002098856,-0.0024991600000000003,0.0038993199999999995,-0.007828896600000001,0.00045625599999999983,4.42,0,0
0.0012002979999999996,-0.0013738899999999998,0.00343874,-0.0098639486,-0.0034132900000000002,4.421,0,0
0.004022916,0.001110844,0.0020956007600000004,-0.0046318326,-0.0026581544,4.422,0,0
0.0065779359999999995,0.0028603540000000003,0.0029808727600000003,0.0023066074000000006,0.00045235359999999994,4.423,0,0
0.004437046,0.0025085660000000003,0.0023669579600000003,0.0030394280000000007,2.783940000000007e-05,4.424,0,0
0.002548962,0.0029350440000000004,-9.772803999999989e-05,0.0033963980000000006,-0.0003301326000000001,4.425,0,0
0.0026042739999999997,0.0037620660000000005,-0.0006632400400000001,0.006878492,0.00069869204,4.426,0,0
0.0008047220000000003,0.0036802420000000002,-0.0006239336000000001,0.006769224000000001,-8.711956000000002e-05,4.427,0,0
-0.002090026,0.0042427160000000005,-0.0015688636000000002,0.003023788,-0.0011896555600000001,4.428,0,0
-0.002580226,0.004119794,-0.0011836108000000001,0.0015613900000000002,0.0005019486399999999,4.429,0,0
-0.0026744440000000006,0.001719498,0.0013419972,0.0010950442000000002,0.00138570284,4.43,0,0
-0.0035414800000000005,2.2876000000000016e-05,0.0009239288,-0.00027384579999999983,0.0017403042,4.431,0,0
-0.0013979220000000002,0.000816216,-0.00048683640000000007,0.0025950262000000003,0.006552848200000001,4.432,0,0
0.00037834000000000023,0.0002127819999999999,0.0014600656,0.004590468200000001,0.008252822200000001,4.433,0,0
-0.0015763899999999998,-0.0006108440000000004,0.0009524988000000001,-0.0004366817999999998,0.003217378200000001,4.434,0,0
-0.002031312,0.0020381640000000003,-0.0026788212,-0.003576643999999999,0.001049420000000001,4.435,0,0
-0.0010614699999999997,0.00397736,-0.0034570948000000002,-0.004420702,0.0012386000000000007,4.436,0,0
-0.004170774,0.0013214019999999995,-0.0033267687999999998,-0.008900576,-0.002664471199999999,4.437,0,0
-0.007784722000000001,-0.0017358800000000006,-0.006615716800000001,-0.011788882,-0.0054191152,4.438,0,0
-0.0065504460000000014,-0.0024152740000000007,-0.008109096000000001,-0.006545008000000001,-0.0015073411999999998,4.439,0,0
-0.0060309180000000006,-0.0044733640000000005,-0.006032463200000001,-0.0017759340000000007,0.0012836968000000002,4.44,0,0
-0.0062835388,-0.006409312,-0.0056114392,-0.0016894440000000002,-0.0004798732000000001,4.441,0,0
-0.0018093587999999995,-0.0046341256,-0.005844749200000001,0.0009870040000000003,-0.001127342,4.442,0,0
0.0027721232000000005,-0.0020918816,-0.0044101452,0.0036838780000000002,-0.0009583800000000001,4.443,0,0
0.0033616632000000005,-0.0019756696000000004,-0.0033122932,0.002367424000000001,-0.00250107,4.444,0,0
0.0041399452,-0.0017464216000000004,-0.0035374259999999998,0.00012175400000000028,-0.003569994,4.445,0,0
0.005878104,-0.0002934516000000002,-0.0021273399999999997,0.00040625200000000007,-0.0021695648,4.446,0,0
0.004673216,0.000315862,0.0009902180000000004,-0.0010079766,-0.0017972183999999999,4.447,0,0
0.005029834,0.001777154,0.0023560540000000002,-0.0012337466,-0.0017298189999999998,4.448,0,0
0.009834498,0.0052093700000000005,0.005164636,0.0039153534,0.00025430500000000013,4.449,0,0
0.010056518000000002,0.006428956000000001,0.010611136,0.0036054573999999995,-0.0009700089999999999,4.45,0,0
0.005203486,0.004710176000000001,0.012974482,-0.0011478026,-0.0048691882,4.451,0,0
0.0030406699999999997,0.004015903400000001,0.012901854,-0.000572502,-0.004476366600000001,4.452,0,0
0.0001509859999999989,0.0021859242000000006,0.013683584000000002,5.801399999999979e-05,-0.0022489240000000007,4.453,0,0
-0.006371794,-0.0019847018,0.011283940000000003,-0.0032981440000000002,-0.002516996000000001,4.454,0,0
-0.008530876,-0.0035571978,0.004021140000000001,-0.0014962439999999999,0.0002267539999999999,4.455,0,0
-0.0044157020000000005,-0.0018882378,-0.0012303799999999997,0.004939336000000001,0.0057298539999999995,4.456,0,0
-0.0010970180000000004,-0.0006733331999999998,-0.003545946,0.00611034,0.006268566000000001,4.457,0,0
0.00100725,0.0003655800000000001,-0.005800968000000001,0.004416894,0.0035240400000000004,4.458,0,0
0.004722082,0.003187166,-0.005440057600000001,0.004861214000000001,0.0020233600000000005,4.459,0,0
0.0062099076,0.004514328000000001,-0.0024354396000000004,0.004091010400000001,0.0001567780000000001,4.46,0,0
0.002713753599999999,0.0020565420000000006,-0.0009308416000000003,0.00018928439999999999,-0.00104638,4.461,0,0
-0.0020602264000000006,-0.0011292620000000005,-0.0013265196000000002,-0.0016466056000000002,0.00044218000000000035,4.462,0,0
-0.005131118400000001,-0.0030907300000000003,-0.00044934960000000024,-9.675360000000008e-05,0.0024727380000000004,4.463,0,0
-0.0088616504,-0.005174998000000001,-0.00044574360000000017,-0.0014567796000000003,0.0027441340000000005,4.464,0,0
-0.01022501,-0.006294714000000001,-0.0032019036,-0.0007869500000000001,0.004038890000000001,4.465,0,0
-0.005981894000000001,-0.004304588000000001,-0.0032260296000000003,0.003830496,0.005451708,4.466,0,0
-0.001716922,-0.001379088,-0.0011895156000000001,0.0023952720000000004,0.00228113,4.467,0,0
0.0010785780000000004,0.0005057859999999999,-0.0023142776,-0.0010746339999999999,-0.0007979360000000003,4.468,0,0
0.004340032000000001,0.0016498379999999998,-0.003000644,-0.0002304683999999995,-0.0008624500000000004,4.469,0,0
0.005211678000000001,0.0019467479999999999,-0.0007916300000000001,-0.0017067544,-0.002935004,4.47,0,0
0.0024502940000000004,0.0010597459999999999,-0.00048148600000000005,-0.0060038264000000004,-0.0062450100000000005,4.471,0,0
0.0012264020000000001,0.00026092399999999983,-0.0024444160000000005,-0.0036235704,-0.004817302,4.472,0,0
0.0015403060000000004,0.0006881540000000001,-0.002230282,0.0018917496,-0.0017773420000000003,4.473,0,0
0.0010241960000000002,0.0029614100000000003,-0.002213858,0.002803776,-0.0009863507999999998,4.474,0,0
0.0021895680000000002,0.006217042000000001,-0.0040025500000000006,0.003290576,0.0007476004,4.475,0,0
0.0031122436000000004,0.006239536,-0.0039355234,0.0042822564,0.0023949444,4.476,0,0
0.0012969396,0.0028446979999999997,-0.0026563974,0.0011611043999999997,0.0009974664,4.477,0,0
-0.0006741884,-0.0002132800000000006,-0.0024857074,-0.004029455600000001,-0.0012461916,4.478,0,0
-0.0012610815999999998,-0.0029021458000000003,-0.002070665,-0.004939573,-0.001231863,4.479,0,0
-0.0020503202,-0.0044692498,0.0005907530000000001,-0.0044268476000000005,-0.0008839382,4.48,0,0
-0.0025506218000000006,-0.0024084998,0.0012650484,-0.005557198000000001,-0.0014230564,4.481,0,0
-0.00011281979999999995,0.0008371776,0.0009912854,-0.0012533980000000002,0.0004972196000000001,4.482,0,0
0.0018125582000000002,0.0018404036,0.0045159614,0.004022342,0.0025264236,4.483,0,0
0.0003191654000000003,0.00048490939999999987,0.0067514689999999995,0.0023947174000000003,0.0008777737999999997,4.484,0,0
-0.0005741759999999998,-0.0020795266,0.0052234709999999995,0.0018503080000000002,0.00015888779999999997,4.485,0,0
-9.433759999999977e-05,-0.004188256600000001,0.005045576999999999,0.004132416000000001,0.001383958,4.486,0,0
-0.0015484136,-0.004966498,0.0052230079999999995,0.0013172280000000001,0.0001739699999999999,4.487,0,0
-0.0031608516,-0.00472385,0.0012577579999999999,-0.002265034,-0.001177896,4.488,0,0
-0.0011707676,-0.00315919186,-0.0021297620000000003,0.0013021400000000002,0.0012357980000000002,4.489,0,0
0.0006211224,-0.0014944258600000002,-0.0015245460000000003,0.004397196000000001,0.0027472240000000004,4.49,0,0
-5.1010000000000096e-05,-0.0016845618600000003,-0.0015678080000000004,0.0033323246000000004,0.0009682800000000002,4.491,0,0
-0.0003751560000000001,-0.00234363186,-0.002245474,0.0035244126,0.0002578680000000002,4.492,0,0
-0.0007981180000000003,-0.00245958386,-0.00047232800000000016,0.0028695386000000007,-0.0005793899999999998,4.493,0,0
-0.0020386480000000005,-0.0025071458,0.0008109664000000002,-0.0014105414,-0.0038881720000000005,4.494,0,0
-0.0018246180000000005,-0.0015180918,-0.0004556835999999999,-0.0053601914,-0.005934312000000001,4.495,0,0
3.356799999999988e-05,0.00027558420000000044,-0.0007470055999999999,-0.0051719956000000015,-0.004124636000000001,4.496,0,0
0.0006869317999999997,0.0022068162000000004,0.0007321884000000002,-0.005176235600000001,-0.002634934,4.497,0,0
0.0017067038000000002,0.005493306200000001,-0.0008835776000000002,-0.004577985600000001,-0.0012787580000000003,4.498,0,0
0.004895111800000001,0.009852970000000003,-0.0020026900000000005,0.0009710544000000008,0.0030607640000000005,4.499,0,0
0.004268825800000001,0.011476090000000003,0.000867932,0.0032483524000000005,0.0046395920000000005,4.5,0,0
0.00015936780000000038,0.010110946000000003,0.001083734,0.0003031220000000003,0.0026658840000000003,4.501,0,0
1.715400000000029e-05,0.008917492,-0.0004264840000000002,0.0015471240000000004,0.002829812,4.502,0,0
0.0007970940000000001,0.006466688,0.001108272,0.0037984220000000005,0.003489188,4.503,0,0
-0.001511366,0.0023053028,0.002380534,-0.0006582440000000001,0.0007047400000000001,4.504,0,0
-0.0012789960000000001,-0.0001927352,2.9300000000000007e-05,-0.00235075,-0.0004733900000000001,4.505,0,0
0.003136272,-0.00036873720000000007,-0.000980444,0.0036489700000000005,0.0030275560000000003,4.506,0,0
0.004188314,-0.0020173412,-0.0003683657999999999,0.004732404000000001,0.0033719680000000004,4.507,0,0
0.0020029720000000004,-0.0048690572000000005,-0.0013199818000000003,0.0013320700000000005,0.0003629480000000001,4.508,0,0
0.001400212,-0.006187578,-0.0016643900000000004,0.0014993880000000002,-0.00040055000000000017,4.509,0,0
3.49539999999998e-05,-0.008248468,-0.0006786560000000001,5.648599999999969e-05,-0.0012629,4.51,0,0
-0.0034184900000000006,-0.010181614,9.254500000000002e-05,-0.005942454,-0.0047197,4.511,0,0
-0.0049943900000000005,-0.008272416000000001,-0.00037905519999999996,-0.008435146000000001,-0.005559752,4.512,0,0
-0.0038910464000000006,-0.0057590826,0.0002666808,-0.006292478000000001,-0.002316668,4.513,0,0
-0.0046212784000000005,-0.0056515986,0.000775595,-0.007011758000000002,-0.0008184367999999998,4.514,0,0
-0.0035699143999999997,-0.0036518126000000006,-0.001253169,-0.005141496000000001,0.0007357912000000001,4.515,0,0
0.0008342816000000001,-0.0002395686,-0.0010330728,0.001978784,0.0040708712,4.516,0,0
0.0015996136,2.509599999999919e-06,0.0012708691999999998,0.0030897419999999995,0.0038500372000000002,4.517,0,0
0.0010332139999999997,9.854219999999997e-05,0.0008227453999999999,0.0007696779999999993,0.0016484791999999999,4.518,0,0
0.0030863460000000002,0.0027525962000000005,0.0005482963999999999,0.0033026059999999996,0.0020192260000000003,4.519,0,0
0.00324221,0.004469058200000001,0.0023580444,0.0033872389999999994,0.0011218260000000002,4.52,0,0
0.00101052,0.0044485402,0.0015960151999999997,-0.0014695510000000001,-0.001995208,4.521,0,0
0.0008487438,0.004078714000000001,-0.0013322908000000001,-0.0015608610000000002,-0.0018984172,4.522,0,0
0.0020103738,0.003252372,-0.0016573630000000002,0.002459397,0.0002311908,4.523,0,0
0.0006405298000000002,0.0008155920000000001,-0.0012221720000000003,0.0025480449999999997,-0.0007866152000000001,4.524,0,0
-0.0028358002,-0.0023039900000000006,-0.0021505460000000006,0.001649998,-0.0038867172000000005,4.525,0,0
-0.0060586102,-0.0034320540000000004,-0.0016395890000000003,0.0024851540000000007,-0.0047568652,4.526,0,0
-0.009607754,-0.003200548000000001,-0.0001132210000000001,0.0005238080000000002,-0.003998422,4.527,0,0
-0.013438864,-0.0029538620000000002,-0.0005968910000000001,-0.003338468,-0.004618792,4.528,0,0
-0.014459394,-0.0021813028000000003,-0.001765123,-0.0041141534,-0.003154454,4.529,0,0
-0.011466337200000001,-0.0003231127999999998,-0.00017953299999999995,-0.0027449093999999995,0.002027048,4.53,0,0
-0.006306997200000001,0.0011219052000000004,4.256280000000017e-05,-0.0033237714,0.004902302,4.531,0,0
0.0030810628000000006,0.0032755232000000003,-0.0018466572,0.0008763625999999999,0.0070937840000000005,4.532,0,0
0.0127516828,0.006694913200000001,0.00014214879999999998,0.006287378600000001,0.008209808,4.533,0,0
0.015957456800000002,0.008320500000000002,0.0020625848,0.004399940000000001,0.004588822,4.534,0,0
0.017190571999999998,0.008688506,0.00014647879999999986,0.004130874200000001,0.0020857919999999995,4.535,0,0
0.017460992,0.007846214,0.00030256399999999985,0.0070234901999999995,0.0019129439999999998,4.536,0,0
0.011545682,0.0034421800000000013,0.0029663579999999997,0.0041541642,-0.0007150700000000004,4.537,0,0
0.0033372040000000007,-0.00256844,0.002168654,-0.0020495958000000002,-0.0030272680000000005,4.538,0,0
0.0013884820000000003,-0.005985048,0.000466118,-9.128100000000008e-05,-0.00022474000000000002,4.539,0,0
0.0024813300000000003,-0.0070055746,0.002425536,0.0030165528000000003,0.00171657,4.54,0,0
0.0019359220000000003,-0.0063217306000000004,0.0033617860000000003,-0.0006909691999999999,-0.0010133020000000002,4.541,0,0
0.002806002,-0.0035259606000000005,0.0022435394000000003,-0.0028402032000000004,-0.0033409600000000005,4.542,0,0
0.004020668000000001,-7.962259999999972e-05,0.0030346934,-0.0019786292,-0.003674188000000001,4.543,0,0
0.0016169700000000006,0.0019530264000000002,0.0037770194,-0.004923228,-0.005593136000000001,4.544,0,0
-0.00333629,0.001330949,0.0017643294000000004,-0.009837948000000001,-0.007149220000000001,4.545,0,0
-0.0065088739999999996,-0.000160813,-6.7685999999999745e-06,-0.009041660000000002,-0.003915742000000001,4.546,0,0
-0.008611438,-0.0008868610000000001,0.000550744,-0.007652672,-0.0016620760000000004,4.547,0,0
-0.009624084,-0.001251991,-0.0011711819999999998,-0.006843946,-0.0013986140000000003,4.548,0,0
-0.005543946,-0.00031639799999999985,-0.00332186,-0.00038102600000000045,0.002144834,4.549,0,0
-0.001655696,0.0003999000000000002,-0.002528422,0.004324053999999999,0.003710138,4.55,0,0
-0.001608774,-0.0005834360000000001,-0.003991232,0.003198734,0.0009022259999999997,4.551,0,0
-0.00014896000000000006,0.000262382,-0.007345048000000001,0.005216808,5.0953999999999865e-05,4.552,0,0
0.0011894959999999997,0.00101066,-0.007572894,0.00811751,0.0008595577199999999,4.553,0,0
-0.0019733980000000003,-0.0014604660000000003,-0.006315782,0.004048154,9.923972000000004e-05,4.554,0,0
-0.004294354,-0.0024506840000000003,-0.006863282,0.0010793939999999998,0.00047145771999999994,4.555,0,0
-0.0018043140000000002,-0.0002582060000000002,-0.0049170136,0.004995048,0.0030339157200000005,4.556,0,0
-0.0007491379999999999,0.0007193479999999999,0.0002929664000000001,0.005697996,0.00390806572,4.557,0,0
-0.0014113200000000004,0.0005249739999999999,0.0036204824000000005,0.0019325999999999998,0.0032119440000000004,4.558,0,0
0.00018557020000000007,0.001610964,0.0062986824,0.0006846239999999993,0.0024041950000000005,4.559,0,0
0.0013445147999999998,0.0017601540000000003,0.010110094400000002,-0.001503516000000001,0.0008117570000000003,4.56,0,0
0.00017003180000000007,0.0005053740000000001,0.011178226,-0.006557236,-0.0012567449999999999,4.561,0,0
-0.00012810220000000012,-0.000475644,0.008416980000000001,-0.00935438,-0.002770021,4.562,0,0
0.0014999038000000002,-0.0012619760000000002,0.006336598,-0.007850266,-0.002826055,4.563,0,0
0.0009958896000000002,-0.002121462,0.00444869,-0.007454616000000002,-0.003448592,4.564,0,0
0.0002667810000000002,-0.0017257700000000002,-0.00027974399999999974,-0.005064412400000001,-0.0031384266,4.565,0,0
0.0018687040000000001,1.1343999999999937e-05,-0.0021359660000000004,0.0025984076000000007,-0.00020008059999999982,4.566,0,0
0.0011530936,0.0009346339999999999,-0.00041976799999999983,0.005704475600000002,0.0014238774000000002,4.567,0,0
-0.0011787124,0.0009079819999999999,-0.0013887739999999997,0.005064041600000001,0.0015012254000000003,4.568,0,0
-0.0007474538000000001,0.0011663340000000002,-0.00217402,0.007745821600000001,0.0028791634,4.569,0,0
9.400000000000004e-05,0.001793096,0.00019338600000000004,0.008243006000000002,0.0032833359999999995,4.57,0,0
-0.0007851559999999999,0.001358816,0.000498288,0.0027410620000000003,0.0009446289999999999,4.571,0,0
0.0007559224000000005,0.00016026419999999987,-0.0022219100000000006,0.0014794600000000001,0.000587475,4.572,0,0
0.0037203804000000007,0.00022156219999999992,-0.002064952,0.005280994000000001,0.0015664170000000003,4.573,0,0
0.0028300518000000004,0.0007342821999999998,-0.0016757005999999998,0.0043796500000000006,-0.00016507299999999996,4.574,0,0
0.0003932080000000008,-0.00014536780000000014,-0.0038266966,0.0012005820000000004,-0.0017261750000000001,4.575,0,0
-0.0013772719999999997,-0.0015529958,-0.0040667746,-2.0111999999999864e-05,-0.0012800680000000003,4.576,0,0
-0.004498881999999999,-0.00261529,-0.0030726646,-0.002772684,-0.0010438400000000003,4.577,0,0
-0.007362988000000001,-0.0031035480000000002,-0.0038934026,-0.007717903999999999,-0.0014219986,4.578,0,0
-0.005740655999999999,-0.002244678,-0.004773656,-0.009110496,-0.0010093826000000003,4.579,0,0
-0.0019403960000000003,-0.0006669499999999997,-0.002653184,-0.0066426826,-0.0006036606,4.58,0,0
-0.0014300020000000005,-8.885639999999998e-05,-0.0014918819999999997,-0.0064648506,-0.0020188086,4.581,0,0
0.0006666159999999996,0.0015693736000000002,-0.0024248460000000005,-0.0032529586000000004,-0.0020792426,4.582,0,0
0.005412788,0.0051794256,-0.00018292799999999995,0.0036812814,-3.1397999999999756e-05,4.583,0,0
0.005117442,0.004791355600000001,0.002778098,0.0049190434,0.0008526540000000004,4.584,0,0
0.003094458,0.0018995376,0.002399268,0.0043399960000000005,0.0020298500000000006,4.585,0,0
0.004116842000000001,0.0016331020000000004,0.00279145,0.00631387,0.0035200760000000005,4.586,0,0
0.0028716579999999996,-0.0003606980000000001,0.00445836,0.0042123,0.002314602,4.587,0,0
-0.0006662000000000001,-0.0042202820000000005,0.0025727880000000003,-0.000981666,0.00037529459999999996,4.588,0,0
-0.00029027999999999997,-0.003780258,-0.0002359319999999999,0.000548022,0.0015597046,4.589,0,0
0.001471624,-0.0011490699999999999,0.0003537579999999998,0.004264576,0.0029534086,4.59,0,0
0.00121561,-0.0005198080000000003,0.00081595,0.0031733200000000003,0.0020192125999999996,4.591,0,0
0.0014574700000000002,0.0007231012,0.00027846339999999987,0.0012935579999999998,0.0011392265999999995,4.592,0,0
0.0012866920000000003,0.0019799191999999998,0.0017891573999999997,-0.0004656559999999996,0.00028256999999999957,4.593,0,0
-0.0003482839999999998,0.0009249612000000001,0.0028677079999999996,-0.004809928,-0.0022223780000000005,4.594,0,0
-0.001109324,-1.0600000000091005e-08,0.0008925259999999998,-0.009354908,-0.0047091120000000005,4.595,0,0
-0.0002472059999999998,-0.00023040180000000003,-0.0015738,-0.008643766399999999,-0.0041372862000000005,4.596,0,0
-0.00010216199999999961,-0.000880067,-0.0019106974000000002,-0.006151894399999999,-0.0027334162000000003,4.597,0,0
-0.000904582,-0.0014338570000000002,-0.0037521934,-0.004244985199999999,-0.0022997062,4.598,0,0
0.000716542,-0.000312137,-0.005422852000000001,0.0020059748,0.00027082780000000023,4.599,0,0
0.0004707499999999999,0.0006888368000000001,-0.0027763579999999996,0.0060890148000000005,0.0018992658,4.6,0,0
-0.003774746,-3.0460000000000383e-06,-0.001178448,0.0041527532,0.0006566060000000001,4.601,0,0
-0.004995406,-0.00025677999999999996,-0.00173617,0.0044774362000000005,0.0014546640000000003,4.602,0,0
-0.00420227,-0.000406142,-9.429800000000009e-05,0.0051845450000000005,0.0029711800000000003,4.603,0,0
-0.005649048,-0.001249852,0.0012942442,0.0005034829999999999,0.0015756520000000003,4.604,0,0
-0.005006082,-0.0020262206000000002,-0.0011330818,-0.0024695290000000003,0.0004789718000000002,4.605,0,0
0.0013391780000000003,-0.0009380705999999998,-0.0024768258,0.0014712590000000002,0.0022486378000000002,4.606,0,0
0.0066413800000000005,0.0005612314000000001,-0.0012522797999999999,0.003148408,0.0017660092200000002,4.607,0,0
0.008081502,0.0013630854000000001,-0.0013919217999999998,0.0005550500000000001,-0.00034542078000000017,4.608,0,0
0.0088637872,0.0038285874,-0.0009965839999999996,-0.0004826320000000002,-0.00159010478,4.609,0,0
0.0070597711999999995,0.006940412000000001,0.001367974,-0.0011245040000000001,-0.0029226005800000003,4.61,0,0
0.0014812911999999992,0.00837154,0.002983876,-0.0040919400000000005,-0.00326808658,4.611,0,0
-0.0042475868,0.007790875400000001,0.002981684,-0.006387928,-0.0034569567999999996,4.612,0,0
-0.0063149748,0.0063047754000000004,0.003685056,-0.004809908000000001,-0.0032487128,4.613,0,0
-0.007298412,0.0029720874,0.004647564,-0.0034352700000000003,-0.0017087788,4.614,0,0
-0.007099398,-0.0012501186000000004,0.0023063700000000003,-0.0013719020000000001,0.0015388512,4.615,0,0
-0.0030262679999999995,-0.0038721286,0.0007422779999999998,0.0036804940000000003,0.0035342432,4.616,0,0
-0.0005285699999999998,-0.006025386000000001,0.0020474459999999996,0.005663884,0.003396144,4.617,0,0
-0.000948238,-0.007431002,0.0009940479999999998,0.004393976,0.0030387540000000003,4.618,0,0
0.00031627199999999993,-0.007606102000000001,-0.00051107,0.0049059724,0.0028471,4.619,0,0
0.001645896,-0.0078379,0.0012586060000000002,0.0034643424,0.0010822795999999998,4.62,0,0
0.0008029980000000002,-0.007386455,0.0022112992,-0.0017305816,-0.0023086524000000006,4.621,0,0
0.0020972540000000002,-0.004657509000000001,6.136120000000008e-05,-0.0027370916000000003,-0.0018692706000000001,4.622,0,0
0.005775268,-0.001374693,0.00014399660000000006,0.0018754364,0.0008671794,4.623,0,0
0.006174876,-0.0001285250000000001,0.0014616806000000001,0.0036908920000000003,0.0003996474,4.624,0,0
0.004573252000000001,0.0002745689999999998,0.00039129260000000005,0.001864338,-0.0010161442,4.625,0,0
0.004006466,0.001040164,0.00015265420000000007,0.0008364459999999998,-0.0007760981999999999,4.626,0,0
0.0023799120000000005,0.0018272420000000002,0.0012430242000000002,-0.0015751699999999999,-0.0018158659999999997,4.627,0,0
-4.935399999999988e-05,0.0014976880000000003,0.0007552288000000002,-0.006254968,-0.0035489659999999998,4.628,0,0
-0.000370752,0.0008220160000000001,-0.0008743992000000002,-0.0079222292,-0.0023461940000000002,4.629,0,0
0.0004628016,0.0014064600000000002,-0.0008313772000000002,-0.00569884,-0.00044509,4.63,0,0
-0.0013828744000000002,0.0006053460000000001,-0.0013537640000000001,-0.005200632,-0.0013349360000000001,4.631,0,0
-0.0019679584000000003,-0.0006231100000000001,-0.00382678,-0.0011361720000000004,-0.0004563984000000002,4.632,0,0
0.00035040759999999983,0.000251818,-0.0034959568000000004,0.006892466000000001,0.0022903975999999998,4.633,0,0
-0.0005151764000000004,0.0016462840000000002,-0.0016559148000000001,0.0079050392,0.0008825095999999997,4.634,0,0
-0.0018316140000000003,0.00299728,-0.0018467728000000007,0.006004908,-0.0002272724000000003,4.635,0,0
-0.0007548180000000002,0.004041184,-0.0008451548000000005,0.007022606000000001,0.0033622096000000003,4.636,0,0
-0.0013246700000000002,0.0026506019999999997,0.0019270892,0.0040450040000000005,0.004274602000000001,4.637,0,0
-0.004063822,0.0001269699999999999,0.001854733,-0.0020797402,0.0007404600000000002,4.638,0,0
-0.0033357380000000004,-5.0042000000000034e-05,1.918999999999966e-06,-0.0005602782000000001,0.0010952912,4.639,0,0
0.00031349399999999967,0.00023685399999999988,0.0008494190000000001,0.003942443800000001,0.0025315572,4.64,0,0
0.00045746199999999995,-0.0010711919999999999,0.001653535,0.0028953898000000002,-0.00032693680000000006,4.641,0,0
-0.0004131460000000003,-0.0010981740000000004,0.001238673,0.0007943518000000003,-0.0025611108000000004,4.642,0,0
0.0008597280000000002,0.000644246,0.0022751060000000003,-0.001544284,-0.0022815888000000005,4.643,0,0
0.0010713320000000001,0.0010530499999999998,0.0033583180000000003,-0.006660824,-0.003125616,4.644,0,0
-0.0006756520000000001,0.00061153,0.0025260120000000002,-0.01023918,-0.004311184,4.645,0,0
0.00037223399999999993,0.001686632,0.001162562,-0.007895588,-0.002555544,4.646,0,0
0.0018995659999999999,0.001873152,0.001764312,-0.004428688,-0.00024909400000000005,4.647,0,0
-0.0006321760000000001,-0.0014625460000000001,0.0004693160000000001,-0.002687052,0.000795196,4.648,0,0
-0.000679598,-0.0038844100000000005,-0.002405672,0.003322208,0.0036068800000000002,4.649,0,0
0.0010368460000000001,-0.004279134,-0.001686398,0.008484644,0.005316872000000001,4.65,0,0
-2.0249999999999652e-05,-0.00424239,-0.0012709462000000003,0.0069036720000000005,0.0029940500000000003,4.651,0,0
0.0004105386,-0.00210489,-0.0037183722000000002,0.006569404600000001,0.0018825710000000004,4.652,0,0
0.00246511976,0.0012675380000000003,-0.004115954200000001,0.0079084666,0.002147661,4.653,0,0
0.0008047597600000002,0.002340168,-0.0028380262,0.0035468746,-1.648900000000012e-05,4.654,0,0
-0.0026833482400000002,0.0007826500000000002,-0.0049208962,-0.0020772174000000003,-0.002042795,4.655,0,0
-0.00213254424,3.6790800000000075e-05,-0.006767734,-0.0008370114,-0.0007187550000000001,4.656,0,0
-0.00194495684,-0.0012538432,-0.004848296,0.0008441299999999999,6.801799999999998e-05,4.657,0,0
-0.003925848000000001,-0.0024316952000000003,-0.003057746,-0.0010459060000000003,-0.0015194960000000002,4.658,0,0
-0.00407216,-0.0022552812,-0.0016604859999999996,-0.001863548,-0.0023057060000000002,4.659,0,0
-0.004004446,-0.0024487052000000003,0.0017520800000000005,-0.002742416,-0.002061192,4.66,0,0
-0.005237458,-0.0017177380000000001,0.004102748,-0.006483258,-0.00238125,4.661,0,0
-0.004937496000000001,0.0010821720000000004,0.0029425099999999997,-0.00956408,-0.0028008,4.662,0,0
-0.0004928060000000001,0.004487136,0.0017764800000000004,-0.0075056179999999995,-0.0009382079999999999,4.663,0,0
0.00236328,0.0046146526,0.0015475604,-0.005567896,0.000905274,4.664,0,0
0.002956628,0.0034665725999999996,-0.0014841756000000001,-0.0034163670000000004,0.00216957,4.665,0,0
0.005988972,0.0036786866,-0.0033833956,0.0038132730000000003,0.005080594000000001,4.666,0,0
0.005813376000000001,0.0017550886,-0.0005861235999999998,0.006712155,0.004650952000000001,4.667,0,0
0.00047991600000000037,-0.0023432394000000006,0.0010547943999999999,0.0030783309999999997,0.0013426940000000002,4.668,0,0
-0.0008783611999999997,-0.0023103086000000003,0.00197892,0.0031192570000000003,0.0006627990000000004,4.669,0,0
0.0017404268000000003,0.0004031173999999998,0.005803122000000001,0.0035696620000000004,-0.00043143699999999985,4.67,0,0
0.00046553679999999974,-0.0010032566,0.00853439,-0.0017188140000000001,-0.004037177,4.671,0,0
0.0006901728000000003,-0.0015181794000000003,0.0065878646,-0.002864542,-0.004067151,4.672,0,0
0.0056246928,0.0015833525999999999,0.0049704208,0.0032067580000000005,-0.0004409589999999999,4.673,0,0
0.006410636000000001,0.0027697372000000005,0.0046802068,0.004292532,-0.0002501999999999999,4.674,0,0
0.0029400960000000005,0.0019132272,0.0023135202,0.0010400779999999998,-0.0011714899999999999,4.675,0,0
0.0010782060000000006,0.0019284652000000002,0.0006081882,0.0005036319999999995,-0.0002771159999999998,4.676,0,0
-0.0005047239999999998,0.0017379326000000002,0.0004355057799999999,-0.002232214,-0.0007041759999999998,4.677,0,0
-0.003125204,0.0010172106000000002,-0.0008287264200000002,-0.008602374,-0.0028125779999999996,4.678,0,0
-0.0027410779999999992,0.0017415446000000002,-0.0033581464200000003,-0.01038471,-0.003328154,4.679,0,0
-5.777399999999937e-05,0.0027590546000000006,-0.0040210238200000005,-0.006574786,-0.00129407,4.68,0,0
-0.00026911999999999965,0.0018674046000000002,-0.00406238782,-0.005236592,-0.0010676328,4.681,0,0
0.0002442260000000004,0.00015537800000000007,-0.005591682,-0.0015751320000000001,-0.00027567300000000004,4.682,0,0
0.0030336060000000008,-0.0012886480000000003,-0.004169466,0.0067519880000000004,0.0027159370000000003,4.683,0,0
0.0014968760000000003,-0.003939472,-0.0016032159999999998,0.008652022,0.0028448056,4.684,0,0
-0.000912576,-0.0054581280000000005,-0.0027103900000000005,0.00697011,0.0015990096,4.685,0,0
