bandpass 1,bandpass 2,bandpass 3,bandpass 4,bandpass 5,time,onset,mark
0.0002932226,0.004467414,0.000778902,0.003447294,0.00359304,3.429,0,0
-0.00029128340000000006,0.0045183054,0.00023368,0.00257733,0.002471134,3.43,0,0
-1.799740000000004e-05,0.0056741394,0.0005669900000000001,0.0033414200000000003,0.0031059319999999996,3.431,0,0
0.0005308078,0.0048439772,0.002296098,0.0020175559999999998,-0.0006907400000000005,3.432,0,0
-0.00011837740000000012,0.0008725072000000001,0.0011574126000000002,-0.0012413840000000003,-0.004234812916000001,3.433,0,0
-0.0005899692,0.0002852652000000001,0.0004710294000000001,0.001169878,0.0007861670840000003,3.434,0,0
-0.0004372552000000002,0.000202124,0.0020282294,0.004530762000000001,0.004124513084,3.435,0,0
-0.0016822052000000003,-0.0020471480000000004,0.0018438126000000002,0.0037179088000000005,0.0017835070840000005,3.436,0,0
-0.0027648872000000007,-0.0017873676000000004,0.0005421206,0.0028384388,0.0012540490840000009,3.437,0,0
-0.002441954,0.00011349839999999999,0.00057489813,0.0020611368,6.955600000000057e-05,3.438,0,0
-0.0019211058,0.0001573223999999998,-0.00035708267000000014,-0.0011640351999999997,-0.004537604000000001,3.439,0,0
-0.0018855898000000003,-0.0005444198000000001,-0.00284353667,-0.0046879612,-0.007323186000000001,3.44,0,0
-0.0016059498000000002,-7.865979999999997e-05,-0.004195849870000001,-0.004550010199999999,-0.0047737479999999995,3.441,0,0
-0.0015788858000000002,-0.0019238239999999998,-0.004807039870000001,-0.0038892642,-0.0034258659999999996,3.442,0,0
-0.0022469158,-0.00550592,-0.007006770000000001,-0.0040815902000000005,-0.0025652440000000004,3.443,0,0
-0.0013608580000000002,-0.004707326,-0.006789566,-0.00017201620000000016,0.003766396,3.444,0,0
0.00013945600000000004,-0.0038858121999999994,-0.0017611499999999995,0.0028131018,0.006137316,3.445,0,0
0.0007956442000000004,-0.0055846942,0.00195811,0.0010389079999999998,0.0026775059999999996,3.446,0,0
0.0017879602000000004,-0.0036168842,0.0037138460000000007,0.0012887459999999995,0.0032033386,3.447,0,0
0.0030203642000000003,0.00018683980000000011,0.006619896,0.002179427,0.0037645066,3.448,0,0
0.0023835858,0.0005944078,0.0073026618,-0.0010582850000000004,-0.0011781854000000001,3.449,0,0
0.0004643838,0.001391798,0.0032940198,-0.003036580800000001,-0.0027124314000000005,3.45,0,0
-8.636440000000004e-05,0.005822838,0.0007132348000000003,0.0006983052,0.0026377886,3.451,0,0
0.00011482159999999986,0.0071086,0.0008327368000000002,0.0028608412000000003,0.0036779280000000004,3.452,0,0
0.0001684376000000001,0.0060936900000000006,1.6702000000000166e-06,0.0017399681999999998,0.0005593440000000002,3.453,0,0
0.0008483120000000003,0.007534562000000002,-9.409277999999994e-05,0.0016527201999999995,0.00013495599999999988,3.454,0,0
0.0025448660000000002,0.0065637804,0.0006304052200000001,0.0004398199999999996,-0.0013261239999999993,3.455,0,0
0.004009038,0.0019939804000000004,0.0003696142199999999,-0.0033713660000000006,-0.005676924000000001,3.456,0,0
0.004433632000000001,-0.0006659555999999995,-0.00013377038,-0.00596432,-0.00658893,3.457,0,0
0.0040903300000000005,-0.0010076335999999997,0.0011487502200000002,-0.004330802,-0.002797988000000001,3.458,0,0
0.002590986,-0.0038152556000000002,0.0021113794,-0.003937090000000001,-0.0026007940000000005,3.459,0,0
-0.00042992399999999993,-0.0048144500000000005,0.0011091714,-0.0026216639999999997,-0.0006143040000000004,3.46,0,0
-0.003823532,-0.00233282002,0.0011403034000000002,0.0027252220000000002,0.005806396,3.461,0,0
-0.006475846,-0.00337920002,0.001793588,0.004203698,0.005206664,3.462,0,0
-0.008322384,-0.00666343602,0.0009396080000000002,0.002531538,0.0021358220000000003,3.463,0,0
-0.007366896,-0.00688810602,-0.00079766,0.0036286359999999993,0.0037547019999999995,3.464,0,0
-0.0023765360000000003,-0.005308058020000001,-0.0017840220000000001,0.003376519799999999,0.0023980299999999998,3.465,0,0
0.0018376060000000007,-0.004972686,-0.0017547980000000001,-0.0010120382000000003,-0.00290983,3.466,0,0
0.0019351080000000005,-0.0026408180000000005,-0.0015277480000000002,-0.0013476602000000002,-0.0014443019999999997,3.467,0,0
0.0023710280000000007,0.002297576,-0.0009121440000000003,0.0023420218,0.0033735580000000005,3.468,0,0
0.0019170159999999997,0.0034752540000000005,0.0004481359999999998,0.0026432198000000003,0.0025630216,3.469,0,0
-0.0021366820000000004,0.0017166,0.0022750376000000004,0.0014921580000000004,0.0010947116000000002,3.47,0,0
-0.003940407200000001,0.002459658,0.0035650476,0.00157948,0.0010048116000000002,3.471,0,0
-0.0019378012000000008,0.0020339480000000003,0.0036091796,-0.00029912600000000004,-0.0022739624,3.472,0,0
0.0002197747999999999,-0.0013312500000000002,0.0024949876000000004,-0.00409313,-0.0065311504,3.473,0,0
0.0015159048,-0.001040726,0.0009391236,-0.0049815146000000005,-0.005652694000000001,3.474,0,0
0.0023615987999999997,0.0009566640000000002,-0.00025713999999999967,-0.0034505346000000005,-0.003152582,3.475,0,0
0.0014409159999999998,-0.0009577000000000001,-0.002184378,-0.0038940706000000005,-0.003691494000000001,3.476,0,0
-0.0007439560000000003,0.00020172599999999995,-0.004303344,-0.0013487825999999997,0.0009772259999999999,3.477,0,0
-0.0028419660000000005,0.00441819,-0.004700356,0.0034841414,0.006823494,3.478,0,0
-0.00478338,0.0030119780000000002,-0.005685298,0.002795854,0.004302568,3.479,0,0
-0.004671736,0.001460098,-0.008085642,0.0015329,0.0026962479999999996,3.48,0,0
-0.0012399900000000003,0.0037914079999999996,-0.009519834000000001,0.0030544260000000003,0.0044787939999999995,3.481,0,0
0.00342205,0.003960896,-0.009589708,0.001151656,0.0006964459999999997,3.482,0,0
0.005864220000000001,0.00224292,-0.008459831999999999,-0.002885088,-0.00427963,3.483,0,0
0.006552927,0.003341508,-0.004828724,-0.001078742,-0.0009188880000000001,3.484,0,0
0.006596165,0.003587996,0.0027931760000000005,0.0023180279999999998,0.00248258,3.485,0,0
0.004559081,0.0008085919999999999,0.011410916,0.0019004062,0.0005679559999999997,3.486,0,0
0.0015573410000000005,-0.0016083700000000005,0.015507410000000001,0.0015591122,0.0002414819999999999,3.487,0,0
6.960519999999997e-05,-0.004819814,0.013812220000000002,0.0017956442,0.00019773799999999993,3.488,0,0
-0.00010679380000000005,-0.007716840000000001,0.009490070000000001,-0.0006163078000000002,-0.0032038740000000007,3.489,0,0
-0.0009930418000000001,-0.007992974,0.0031254900000000007,-0.0038734418000000003,-0.0055918548000000005,3.49,0,0
-0.0022524418000000003,-0.006744136000000001,-0.0046033079999999995,-0.0031593000000000003,-0.0029144248000000004,3.491,0,0
-0.0020365218,-0.0057517620000000005,-0.008288612,-0.0020831096000000007,-0.0016310508000000003,3.492,0,0
-0.0011210320000000003,-0.0037253326000000002,-0.008421904000000001,-0.0026426636000000006,-0.0018079148000000001,3.493,0,0
0.00022001799999999978,0.0013529074000000001,-0.006427538000000001,0.0010425264,0.0035643272000000004,3.494,0,0
0.002238574,0.0053119934,-0.0006679580000000002,0.0044245604,0.005930668,3.495,0,0
0.0031722344,0.0061433634,0.005458360000000001,0.0023612604,0.0019918080000000003,3.496,0,0
0.0022707984000000002,0.0080233114,0.009188104,0.0017485340000000004,0.0016371080000000004,3.497,0,0
0.00024137239999999982,0.009561964000000001,0.011758048000000002,0.002344528,0.0020158520000000003,3.498,0,0
-0.0022554156,0.006045638,0.012589014200000003,-0.000977064,-0.0029104740000000006,3.499,0,0
-0.0045707496,0.002681966,0.009388094200000002,-0.0036862120000000003,-0.0049388060000000004,3.5,0,0
-0.004969222000000001,0.0037571960000000004,0.004881722,-0.0006998580000000003,0.00035187399999999985,3.501,0,0
-0.003444848,0.004361564,0.00044176,0.0020102159999999996,0.0025506240000000005,3.502,0,0
-0.00240062238,0.001559868,-0.006005342,0.0013471339999999998,0.0010748439999999997,3.503,0,0
-0.00184025038,-0.0029478460000000005,-0.012641214200000002,0.001371414,0.001519796,3.504,0,0
-0.00100319038,-0.006495754000000001,-0.018623734200000002,0.000832124,0.00020107999999999975,3.505,0,0
-0.00049595798,-0.008436813000000001,-0.024384842000000004,-0.00234445,-0.004012034,3.506,0,0
-0.0005403779799999999,-0.008931131,-0.02694012,-0.0050732,-0.00554690722,3.507,0,0
9.967240000000011e-05,-0.0051281370000000005,-0.022058278000000004,-0.0039049420000000007,-0.00267795522,3.508,0,0
0.0018205464,0.002044523,-0.010370818,-0.003854158,-0.00232933122,3.509,0,0
0.0034354503999999998,0.008601682999999999,0.003511001999999999,-0.0035925600000000007,-0.0004580352200000003,3.51,0,0
0.004829688,0.015345542,0.017673902,0.0015704259999999998,0.0057677987800000005,3.511,0,0
0.004806418,0.01599082,0.027796862000000002,0.003522422,0.005581300000000001,3.512,0,0
0.002963358,0.0067856600000000015,0.02863656,0.0017137580000000001,0.0021446880000000005,3.513,0,0
0.0008146719999999998,-0.0019625800000000002,0.022253004,0.0030224879999999994,0.003221514000000001,3.514,0,0
-0.0017064160000000003,-0.008405860000000001,0.012595692000000002,0.0034594393999999996,0.0017095460000000002,3.515,0,0
-0.0046397,-0.01768626,0.0018245719999999996,-0.0008708685999999999,-0.004129802,3.516,0,0
-0.006645116,-0.021979878,-0.006063424,-0.0018203885999999998,-0.003234662,3.517,0,0
-0.0061967160000000006,-0.014774956,-0.0063671840000000006,0.0022663914,0.001989798,3.518,0,0
-0.003091494000000001,-0.005580516000000001,-0.002526808,0.0031319134,0.0014530287999999997,3.519,0,0
0.0008330779999999999,-0.00028667400000000043,0.0009929840000000001,0.001779926,-0.00010611119999999995,3.52,0,0
0.003473442,0.0031472860000000004,0.0051926640000000005,0.001791932,0.0005646908000000002,3.521,0,0
0.004663820999999999,0.004317294000000001,0.008764664,0.0002842699999999999,-0.0015021091999999998,3.522,0,0
0.004291201,0.002227801999999999,0.008716024000000001,-0.0034850240000000006,-0.0051698592,3.523,0,0
0.001959471000000001,-0.00110118,0.004982646,-0.0046594509400000005,-0.004486681999999999,3.524,0,0
-0.0004946586599999996,-0.00316346,0.0010273000000000005,-0.00259677494,-0.0016452320000000004,3.525,0,0
-0.00222759266,-0.004518436000000001,-0.00361264,-0.00278846094,-0.002503946,3.526,0,0
-0.0030039476600000003,-0.0017993860000000007,-0.008078364000000001,-0.0011224089400000002,0.0006096299999999999,3.527,0,0
-0.00181021986,0.0041040239999999995,-0.009058084000000001,0.0035195050600000002,0.0056561,3.528,0,0
-0.0008629878600000002,0.005558904,-0.009418582000000002,0.002786166,0.002879856,3.529,0,0
-0.0008071702,0.004915414,-0.009800576,0.0004732820000000002,0.0006372920000000002,3.53,0,0
-1.129420000000014e-05,0.0053941142,-0.007782310000000001,0.0017359400000000003,0.002596264,3.531,0,0
0.0009459794000000001,0.0025866462000000002,-0.005360714,0.0005992240000000002,9.250000000000003e-05,3.532,0,0
0.0013152096000000001,-0.0019436718000000002,-0.004908002,-0.0035219719999999995,-0.004191228,3.533,0,0
0.0014849236000000002,-0.0013323218000000003,-0.0034600644,-0.0019256400000000002,-0.00014489199999999976,3.534,0,0
0.0026139716,0.0017004162000000002,0.00019429759999999995,0.002220844,0.004377842000000001,3.535,0,0
0.0039133456,0.002595214,0.0021678976000000004,0.0018085997999999998,0.0024756200000000004,3.536,0,0
0.004385664,0.003910806,0.0023609606000000003,0.0012923818,0.0013925699999999999,3.537,0,0
0.0038649973999999995,0.004574376000000001,0.002879022,0.0017908778000000002,0.0012111500000000002,3.538,0,0
0.0021618414,0.0027737860000000003,0.0028956926,-0.00041653619999999997,-0.0022072739999999995,3.539,0,0
-3.14486000000001e-05,0.0012177520000000003,0.0012973496000000001,-0.0034218662000000005,-0.005003201200000001,3.54,0,0
-0.0024548166,0.0017170220000000003,4.051180000000002e-05,-0.00258277,-0.0025536932,3.541,0,0
-0.0040456346,0.001761706,0.0007490188000000001,-0.0012711214000000002,-0.0010319632,3.542,0,0
-0.0041722164,0.0007279600000000002,5.957940000000006e-05,-0.0016938614000000002,-0.0013950032000000002,3.543,0,0
-0.0025606164,0.002396822,-0.0008588188,0.0019161226,0.0036037648,3.544,0,0
-0.0005313143999999997,0.002830674,0.0003545582000000001,0.0051810126,0.006128132,3.545,0,0
0.00020747920000000012,-0.0005037280000000002,0.00013524720000000008,0.0029548325999999995,0.0020699540000000006,3.546,0,0
0.0002782152,-0.001769614,-0.0009164987999999999,0.001754122,0.0017324300000000005,3.547,0,0
-0.0004303623999999999,-0.002243028,0.00011876920000000008,0.0022698434000000003,0.002537595,3.548,0,0
-0.0012225903999999999,-0.0056646280000000005,0.0009963426,-0.0009478706000000002,-0.002965005,3.549,0,0
-0.0018022803999999998,-0.007423578000000001,-0.0006675354,-0.0042360385999999995,-0.006562386999999999,3.55,0,0
-0.0016339768000000001,-0.004400118000000001,-0.0016458646000000001,-0.0011950406,-0.001351727,3.551,0,0
-0.0006206106,-0.0022750160000000004,-0.0017055986000000002,0.0021155194,0.0013316950000000004,3.552,0,0
-9.548600000000053e-06,-0.0010974986000000003,-0.0038519666000000003,0.00138103,-0.0007031219999999996,3.553,0,0
8.772539999999995e-05,0.0013255496000000003,-0.0059930339999999995,0.0011925240000000001,0.00038654800000000045,3.554,0,0
-0.000272116,0.0012124755999999997,-0.0065281060000000005,0.0009867240000000002,0.0005767000000000005,3.555,0,0
-0.00047168700000000004,-0.0012030144000000002,-0.006787978,-0.0019105820000000003,-0.003136516,3.556,0,0
0.0002176748,-0.0019757004,-0.0063338178,-0.0042192586,-0.004724736,3.557,0,0
0.0020918068,-0.0002503658000000005,-0.0019084717999999995,-0.0024342685999999996,-0.0015889700000000005,3.558,0,0
0.0031315328,-0.0002302980000000004,0.0050612482,-0.0017368986,-0.001448796,3.559,0,0
0.0025702522,0.0002655299999999997,0.008669062200000001,-0.0015111786,-0.0005234364000000002,3.56,0,0
0.00246756,0.00400007,0.010830012200000001,0.0026953474000000004,0.0052452995999999995,3.561,0,0
0.0019725360000000004,0.00449496,0.012367194000000001,0.003747316,0.004982728,3.562,0,0
-9.996200000000004e-05,0.0017642840000000003,0.009283300000000001,0.0007952940000000002,0.0011679419999999995,3.563,0,0
-0.0012523080000000002,0.0021422940000000003,0.004540115600000001,0.0005974699999999998,0.0021386397999999993,3.564,0,0
-0.0007751153,0.0026560868,0.0022403174,0.0005849719999999997,0.0012554341999999991,3.565,0,0
-0.0009565013,-6.621120000000001e-05,0.0005955334,-0.003277396000000001,-0.0042484538,3.566,0,0
-0.0016482153,-0.0009747592000000001,-0.0018845126,-0.004266739800000001,-0.0037641422000000008,3.567,0,0
-0.0017883233000000002,0.0001245136,-0.0025532306000000003,0.00032954019999999976,0.0015253578,3.568,0,0
-0.0017851853000000004,-0.0004946724000000001,-0.0030684142000000003,0.0024350062,0.0016607640000000001,3.569,0,0
-0.0021559360000000002,-0.0017318592000000002,-0.005113746000000001,0.0020760062,0.00022373999999999962,3.57,0,0
-0.0018632422,-0.0015020128000000003,-0.006096796,0.0027573281999999995,0.0008363139999999999,3.571,0,0
-0.0004017242000000001,-0.0014621186000000003,-0.005977438,0.0016462320000000005,-0.0009744900000000004,3.572,0,0
0.0005850637999999999,-0.0023372554,-0.0049183852,-0.0018127260000000002,-0.004036894,3.573,0,0
0.0002429537999999997,-0.001782601,-0.0021833971999999998,-0.0029865740000000005,-0.0030306300000000003,3.574,0,0
0.0007199577999999999,7.154900000000007e-05,0.002732132800000001,-0.0015221660000000004,-0.0001203440000000001,3.575,0,0
0.0011139379999999999,9.945080000000002e-05,0.006823060800000001,-0.002259484,-0.00051202,3.576,0,0
-0.0004519980000000001,0.0011043326000000002,0.007867634,-0.0007643260000000001,0.002426494,3.577,0,0
0.00016496399999999997,0.0037393606000000004,0.006943797200000001,0.0033025520000000003,0.007112278,3.578,0,0
0.001445596,0.0020904162000000004,0.0026497432000000005,0.0021392959999999997,0.00401147,3.579,0,0
-0.00024284800000000015,0.00017822220000000008,-0.0036828168000000005,-0.0005904459999999999,0.0009387839999999998,3.58,0,0
-0.0009677320000000002,0.0012989960000000004,-0.0080567168,-8.004200000000022e-05,0.0018023251999999997,3.581,0,0
-0.00010774600000000014,0.000526654,-0.009363762000000001,-0.00151708,-0.0013908088000000004,3.582,0,0
-0.0011193022000000003,-0.0014181062000000002,-0.007699896000000001,-0.005554202,-0.0062185948,3.583,0,0
-0.0007198782000000004,0.0008483518,-0.000822962,-0.004234514,-0.0027229868000000004,3.584,0,0
0.0034036038000000005,0.0057877577999999996,0.009095078000000001,0.0002591860000000002,0.0025374932,3.585,0,0
0.0056483738,0.0062019998,0.014417798,0.0011494080000000002,0.001837556,3.586,0,0
0.0047912478000000005,0.0012431658000000003,0.014599586,0.0011712900000000002,0.001467088,3.587,0,0
0.0038919180000000003,-0.0034396059999999996,0.010869996000000002,0.00185935,0.0014612079999999999,3.588,0,0
0.00264187,-0.006566994,0.002373716000000001,0.0002583920000000001,-0.002117614,3.589,0,0
-0.001006978,-0.010994292,-0.008256804,-0.002385274,-0.005527644,3.59,0,0
-0.005239548,-0.012436857999999999,-0.016108183999999998,-0.001853132,-0.0034102280000000004,3.591,0,0
-0.007074546000000001,-0.0079850462,-0.01863422,-0.000398854,-0.0011768019999999998,3.592,0,0
-0.008582834000000001,-0.0028361002,-0.018879180000000002,-0.0008131000000000001,-0.0014366839999999997,3.593,0,0
-0.010035876,0.0024969598,-0.01579062,0.002360122,0.0037377260000000002,3.594,0,0
-0.007098578,0.0065663378000000005,-0.00714962,0.005587548,0.007232576000000001,3.595,0,0
-0.0009743379999999999,0.0065917376000000005,0.0009178800000000007,0.0030341120000000003,0.0026997259999999995,3.596,0,0
0.004040941999999999,0.0064608038,0.0043958332,0.0013271760000000002,0.0010711000000000004,3.597,0,0
0.008465192,0.0059776916,0.008342323200000001,0.0018493640000000003,0.002320785999999999,3.598,0,0
0.011879945999999999,0.002056891600000001,0.012583963200000001,-0.001150894,-0.002165592,3.599,0,0
0.010635014,-0.0015552584,0.011437583200000002,-0.004550148,-0.005858076,3.6,0,0
0.005697154,-0.0005687842,0.0093832072,-0.0013078620000000006,-0.0008457819999999998,3.601,0,0
0.0018749920000000007,0.0005938678000000001,0.010645094,0.002248242,0.002203318,3.602,0,0
-0.0011491359999999996,-0.000729024,0.010365468000000001,0.0019866040000000003,-0.00013102000000000014,3.603,0,0
-0.00396025,-0.0008018980000000001,0.0064166702,0.002499982,-0.00016931200000000002,3.604,0,0
-0.0043776679999999995,-0.00046598959999999976,0.0031460638000000004,0.002576838,-0.0004947720000000003,3.605,0,0
-0.002843984,-0.0014429758,0.0015757200000000003,-0.00032371000000000006,-0.004115792,3.606,0,0
-0.0012150019999999997,-0.0009762698000000004,0.0003198086000000001,-0.003110896,-0.0058905938,3.607,1,1
-0.00017746399999999993,0.0015546462,0.0007286026000000001,-0.002049214,-0.0026238838,3.608,0,0
-3.531400000000005e-05,0.0013629862,0.0017949844,-0.0020017760000000007,-0.0016800078000000001,3.609,0,0
-0.0014191220000000003,-9.199819999999967e-05,0.0008412548000000001,-0.002491266,-0.00032945380000000017,3.61,0,0
-0.0018852652000000004,0.0016033520000000002,9.62185999999999e-05,0.001822888,0.006124912200000001,3.611,0,0
-0.0009272711999999998,0.001973262,7.769180000000012e-05,0.0038253059999999997,0.0067246580000000005,3.612,0,0
-0.0005648272,0.0003906540000000001,-0.0026819701999999997,0.0011291400000000003,0.0023621680000000004,3.613,0,0
-0.0004595492000000003,0.0013209019999999997,-0.005454206200000001,0.0010197340000000004,0.0027188444000000003,3.614,0,0
-0.0001472432000000002,0.0022406219999999994,-0.005304416200000001,0.0015787980000000002,0.0025895434000000003,3.615,0,0
-0.0005530780000000001,-0.00048299200000000023,-0.0053959582,-0.002585458,-0.0032275146,3.616,0,0
-0.0018361582000000001,-0.0021926758,-0.006637508,-0.004374308,-0.0034506606,3.617,0,0
-0.0014114002000000002,-0.00034308379999999994,-0.00539735,-0.0001270259999999997,0.0025917194000000003,3.618,0,0
9.019780000000003e-05,0.0002713042,-0.003028728,0.0018227200000000003,0.0036566669999999997,3.619,0,0
0.0007545298000000003,-0.0001482997999999998,-0.0019827420000000004,0.001133946,0.0015254780000000003,3.62,0,0
0.0012195184,0.0011308782000000002,-0.0005127500000000002,0.001566418,0.0019233180000000002,3.621,0,0
0.0017308226000000001,0.0011897390000000002,0.0016848599999999998,0.0013757039999999997,0.0001673300000000007,3.622,0,0
0.0013562966,-0.0013840389999999999,0.0021304312,-0.002071064,-0.006059190000000001,3.623,0,0
0.0010457746,-0.002098123,0.0015041788000000002,-0.003820888,-0.00612775,3.624,0,0
0.0020592546,-0.001120293,0.0019394008,-0.001162308,-0.0016728299999999997,3.625,0,0
0.003087192,-0.00031008300000000006,0.0016852298000000002,0.0024944760000000002,0.001260848000000001,3.626,0,0
0.003740232,-0.00021420600000000007,0.0015577878,0.004500136,0.002839384000000001,3.627,0,0
0.003118408,-0.004131350000000001,0.0013976086,0.00046622399999999946,-0.002524076,3.628,0,0
0.00112708,-0.008612988000000002,-0.001266629,-0.004561870000000001,-0.009744185999999998,3.629,0,0
-0.0005660960000000003,-0.0085410194,-0.004348811,-0.005001442000000001,-0.009236185999999999,3.63,0,0
-0.002287074,-0.007218891400000002,-0.005193886000000001,-0.004694882000000001,-0.007061486,3.631,0,0
-0.0049460220000000004,-0.005676685400000002,-0.005982186000000001,-0.004370850000000001,-0.005562225999999999,3.632,0,0
-0.006435642,-0.00014633140000000044,-0.006784152000000002,0.0003831260000000002,0.002747678,3.633,0,0
-0.006024934000000001,0.005978218600000001,-0.004773512000000001,0.006020448000000001,0.010155408,3.634,0,0
-0.005471706000000001,0.00905885,-0.0027320406000000005,0.006275306000000001,0.009853648,3.635,0,0
-0.0045783226,0.01099619,-0.0019589157999999997,0.006114146000000001,0.010447868,3.636,0,0
-0.0023495146,0.013277304,0.0006382641999999998,0.008085306,0.013425634000000002,3.637,0,0
0.0009836274,0.014317638,0.004493864200000001,0.007797149999999999,0.011746750000000002,3.638,0,0
0.0027714754,0.009928468,0.006363710200000001,0.003522887999999999,0.00543902,3.639,0,0
0.0027316334000000004,0.002318168,0.006819054800000001,-0.0009601800000000014,0.000703500000000001,3.64,0,0
0.0034297580000000006,-0.0034802540000000003,0.007200234,-0.004147892200000001,-0.0036276159999999993,3.641,0,0
0.003792228000000001,-0.007800262000000001,0.005129184,-0.0069890862,-0.007559775999999998,3.642,0,0
0.003421256,-0.009029874,0.0025346900000000005,-0.0044823482,-0.004159964,3.643,0,0
0.004302122,-0.007439094000000001,0.0022697800000000003,-0.0007488222,-0.002260624,3.644,0,0
0.004683602,-0.008411154,0.0009676260000000003,-0.0033417622,-0.009319704000000002,3.645,0,0
0.00302873,-0.009828672,-0.002503046,-0.006198530000000001,-0.012868908000000002,3.646,0,0
0.0013866339999999999,-0.008263820000000002,-0.004850178,-0.004778756,-0.009922988000000002,3.647,0,0
0.00011385539999999984,-0.006641544,-0.005802734,-0.003762454,-0.007965260000000002,3.648,0,0
-0.0018351146,-0.003839922000000001,-0.0068634180000000005,-0.0031169160000000013,-0.0041294320000000015,3.649,0,0
-0.0028640566,0.0034961000000000002,-0.006201074,0.002044854,0.005075997400000001,3.65,0,0
-0.0024092925999999997,0.00987736,-0.00344596,0.005714212,0.0099461374,3.651,0,0
-0.0028430386,0.011305156,-0.001395406,0.004290184,0.0088547574,3.652,0,0
-0.00410968,0.012363324,0.000590564,0.004407524,0.0103478174,3.653,0,0
-0.00391402,0.013893322000000001,0.003917072000000001,0.006230000000000001,0.011853249400000002,3.654,0,0
-0.0032358020000000003,0.011464066,0.006702726000000001,0.004577790000000001,0.0080039,3.655,0,0
-0.003905558000000001,0.004899146,0.007853504,0.0003568919999999993,0.0018946999999999983,3.656,0,0
-0.003616562,-0.0004910939999999996,0.008106174,-0.0020006259999999997,-0.0017001800000000008,3.657,0,0
-0.0004731020000000002,-0.004911878000000001,0.007502458000000001,-0.004451302000000001,-0.005840014,3.658,0,0
0.0034937380000000006,-0.008376352,0.0043964768,-0.005570602000000001,-0.007199316000000001,3.659,0,0
0.006746742,-0.007249330000000001,0.001893531,-0.0010331819999999997,-0.0016877159999999997,3.66,0,0
0.008592886,-0.0067006900000000005,0.0014363650000000002,0.001186908,-0.0018790360000000006,3.661,0,0
0.0076796780000000005,-0.009437110000000002,-0.001271057,-0.0028103660000000008,-0.008195416,3.662,0,0
0.004302218000000001,-0.009011214,-0.004713561,-0.004397744,-0.008583054000000001,3.663,0,0
8.280000000000006e-05,-0.006423908000000002,-0.005885287800000001,-0.0034049040000000007,-0.006585212,3.664,0,0
-0.003481848,-0.0064968740000000014,-0.006710212000000001,-0.0046165120000000014,-0.007272498,3.665,0,0
-0.005548040000000001,-0.004605060000000001,-0.007741392000000001,-0.003653018000000001,-0.0032185326,3.666,0,0
-0.005573766000000001,0.0009753529999999999,-0.0060403440000000004,0.0019009008000000003,0.0052321674,3.667,0,0
-0.004844420000000001,0.0033523850000000003,-0.003375521800000001,0.0044451368,0.007363819400000001,3.668,0,0
-0.004603884000000001,0.003005563,-0.002692677800000001,0.0036897168000000003,0.0069370994000000005,3.669,0,0
-0.0034880040000000003,0.0046560410000000005,-0.0010604818000000003,0.0052519048,0.0099562854,3.67,0,0
-0.0007517899999999998,0.006731605,0.0026381922,0.0062839088,0.010406396,3.671,0,0
0.0022093760000000003,0.005267450000000001,0.0038726762000000003,0.00334423,0.005309536,3.672,0,0
0.0031942416,0.000451766000000001,0.0011008139999999999,-0.0008077720000000004,0.00018517600000000044,3.673,0,0
0.0032809716000000004,-0.002983612,-0.001200642,-0.0024386840000000004,-0.0015823359999999997,3.674,0,0
0.0039833996000000005,-0.0055041,-0.00323236,-0.0045016460000000015,-0.0048416380000000005,3.675,0,0
0.0040556996000000005,-0.006129666000000001,-0.007359487999999999,-0.004019992000000002,-0.004008084,3.676,0,0
0.0040559456,-0.0018800839999999993,-0.006280849999999999,0.0011804679999999998,0.0012340460000000001,3.677,0,0
0.00475087,0.0013260700000000002,0.0011020500000000003,0.0011997079999999999,-0.0017594740000000005,3.678,0,0
0.004286804,0.0020648719999999997,0.005731376,-0.0028681600000000007,-0.007461602,3.679,0,0
0.002284976,0.004525380000000001,0.0071510682,-0.0027875460000000014,-0.0063283420000000016,3.68,0,0
0.0006919490000000001,0.006415208,0.0080007046,-0.0017063080000000019,-0.005458797999999999,3.681,0,0
-0.0006867094,0.006335488,0.00622763866,-0.003270216000000002,-0.006879636600000002,3.682,0,0
-0.0018006794,0.011226854000000001,0.00264085866,-0.0007358780000000009,-0.0011112442000000002,3.683,0,0
-0.0019320674000000001,0.01818272,0.00243809866,0.004727126,0.0061816758000000005,3.684,0,0
-0.0032689994,0.016828074,0.00460581846,0.00499946,0.0059834538,3.685,0,0
-0.0058040764,0.012516372000000001,0.005906098060000001,0.004165394,0.0058077998,3.686,0,0
-0.007063408,0.011100426,0.007431920000000001,0.0058373620000000005,0.0082916084,3.687,0,0
-0.007199898000000001,0.004666567999999999,0.00902108,0.005294732,0.006115455999999999,3.688,0,0
-0.0072734159999999996,-0.009236572,0.00805987,0.0015546880000000011,0.0002910160000000007,3.689,0,0
-0.00461752,-0.017312906,0.003230710000000001,-0.0009708179999999998,-0.0024390799999999997,3.69,0,0
0.00136842,-0.017383402,-0.002049618,-0.0020596340000000003,-0.0034343620000000003,3.691,0,0
0.0049583100000000005,-0.019122912,-0.008520804,-0.0039515060000000005,-0.005101152,3.692,0,0
0.006168944,-0.016758802,-0.017085524,-0.0013095099999999998,-0.001038504,3.693,0,0
0.008104428,-0.008137222,-0.022231300000000002,0.002953794,0.0027220884000000002,3.694,0,0
0.007600689999999999,-0.004406262,-0.02317082,0.0005164339999999996,-0.0024594316,3.695,0,0
0.00426889,-0.005915984,-0.02049445,-0.0028194840000000006,-0.0058607296,3.696,0,0
0.002375068,-0.0058977280000000005,-0.010944249999999999,-0.0026014240000000006,-0.004319659599999999,3.697,0,0
0.0014302936000000002,-0.006767716,0.002909909999999999,-0.003668490000000001,-0.0050690676,3.698,0,0
-0.0001317084,-0.00813053,0.01297535,-0.005442987200000001,-0.0051213654,3.699,0,0
-0.0011215824,-0.0044393174,0.018183174,-0.0016698982000000005,0.0017769326000000004,3.7,0,0
-0.0026839864000000003,-8.031939999999984e-05,0.019911654,0.0028514978,0.0066733926,3.701,0,0
-0.0047713944,0.0019712666,0.014593716000000001,0.0029426378,0.0054451766,3.702,0,0
-0.005113688000000001,0.0050996826000000006,0.005545238000000001,0.0032767738,0.0064563766,3.703,0,0
-0.0038026840000000006,0.007595958600000001,-0.00032161599999999983,0.004613411,0.0076356,3.704,0,0
-0.0015597500000000004,0.007227318000000001,-0.0034299740000000006,0.0030122000000000005,0.0040979020000000005,3.705,0,0
0.001292872,0.0062490819999999996,-0.005370122,-0.001136776,-0.0007257779999999998,3.706,0,0
0.002189212,0.005023338,-0.003039008,-0.002769842,-0.0017403551999999997,3.707,0,0
-1.1332000000000182e-05,0.0019493559999999997,0.0036831900000000002,-0.003400806,-0.0032672032000000003,3.708,0,0
-0.0038771340000000004,5.019999999999976e-06,0.007524584000000001,-0.004157132,-0.0039648372,3.709,0,0
-0.007302132,0.0020376459999999997,0.009708796,-0.00011493000000000007,0.0018475027999999998,3.71,0,0
-0.009022252,0.002219896,0.012666048000000001,0.0030152140000000004,0.0029009848000000004,3.711,0,0
-0.0084795624,-0.0002700520000000002,0.009643224,-0.00016470799999999996,-0.003238981999999999,3.712,0,0
-0.0031619824000000004,0.001432854,0.0015981640000000009,-0.001793204,-0.00442652,3.713,0,0
0.0044274176000000005,0.004077928,-0.0037879899999999998,-0.0007507,-0.0031303679999999993,3.714,0,0
0.008928577600000001,0.002852882,-0.007052188,-0.0025262520000000005,-0.005923,3.715,0,0
0.010409211600000001,0.00206616,-0.011485382,-0.0029737326,-0.004727634,3.716,0,0
0.01098183,0.003993799659999999,-0.012647854,0.0015646074000000001,0.00288052,3.717,0,0
0.009010212,0.0038588916599999997,-0.010880790000000001,0.0036203934,0.005069936000000001,3.718,0,0
0.0046611962,0.00284876366,-0.009587468000000002,0.0023679174,0.0033402604,3.719,0,0
0.0024849382000000004,0.0048473716600000005,-0.0067289,0.0031702394,0.0049796344,3.72,0,0
0.0022932022000000003,0.0059783076599999995,-0.00185855,0.0030958048,0.004815026399999999,3.721,0,0
0.0018795448000000002,0.004464604,0.00226325,0.00010254479999999982,0.00033663240000000004,3.722,0,0
0.0003375087999999999,0.002239392,0.003783674,-0.0025917531999999997,-0.0026437216,3.723,0,0
-0.0018635554,-0.0006492379999999998,0.00491869,-0.0028101138599999995,-0.0018668100000000004,3.724,0,0
-0.0039933174,-0.005304378,0.005233168000000001,-0.0038660598600000003,-0.003226856,3.725,0,0
-0.0056922754,-0.0071413299999999996,0.0029708179999999996,-0.00310917866,-0.0019461440000000001,3.726,0,0
-0.005990416,-0.004997836,0.0015644745999999997,0.0021118413400000005,0.003782276,3.727,0,0
-0.005991402000000002,-0.005768416,0.0014955626,0.00283696534,0.0020532600000000003,3.728,0,0
-0.005250654,-0.006774998000000001,-0.00048770340000000006,-0.0004509200000000005,-0.003049072,3.729,0,0
-0.003994786,-0.0044843694,-0.0022545434,-0.0005039559999999998,-0.0026386979999999997,3.73,0,0
-0.004067108,-0.0032384258,-0.0017400434000000003,-0.00051551,-0.002655816,3.731,0,0
-0.004086892,-0.004072544600000001,-0.0021039100000000005,-0.0032130720000000004,-0.00567961,3.732,0,0
-0.0024346780000000004,-0.0028864786000000007,-0.0030806,-0.0022380818,-0.0026759899999999996,3.733,0,0
8.616399999999969e-05,0.00016757540000000002,-0.001360924,0.0024762202000000004,0.0037200100000000006,3.734,0,0
0.00231958,0.0008770448000000002,0.0004330200000000001,0.0039117302,0.0042049620000000005,3.735,0,0
0.004231922,0.0014539732000000002,0.00018360799999999998,0.0037041982,0.0036884060000000004,3.736,0,0
0.005519922000000001,0.0039067880000000004,0.0009016800000000002,0.0045910382,0.005233172000000001,3.737,0,0
0.0053658840000000005,0.00575725,0.0019010240000000003,0.0037398879999999994,0.0034355540000000004,3.738,0,0
0.0038572140000000003,0.0051816286,0.0007607120000000002,0.0005258799999999998,-0.0014410059999999999,3.739,0,0
0.002998532,0.0043483398,-0.00029093599999999994,-0.0015876660000000004,-0.0029459366,3.74,0,0
0.00320044,0.0040334238,0.0011190080000000003,-0.0018310620000000003,-0.0021365126,3.741,0,0
0.0021345472,0.0013341918,0.0016098640000000001,-0.003168774,-0.0032604986000000003,3.742,0,0
0.0013410088000000001,0.0008034317999999999,0.0009770140000000002,-0.0013455159999999997,0.0006212594000000002,3.743,0,0
0.0022079228,0.0021698572,0.002785084,0.002219992,0.005289039400000001,3.744,0,0
0.0011277108000000001,-0.0006767120000000003,0.0035831200000000004,6.236000000000002e-05,0.0010217679999999993,3.745,0,0
-0.0010121592,-0.0037087020000000004,0.001184746,-0.0025823480000000004,-0.0026504940000000006,3.746,0,0
-0.00080079,-0.003056748,-0.000123768,-0.0015856580000000002,-0.0015309360000000003,3.747,0,0
-0.00020343959999999996,-0.003321632,0.00024835999999999993,-0.0021774280000000003,-0.003486174,3.748,0,0
-0.0006209270000000001,-0.004977788,-0.001098098,-0.004117067,-0.006054798,3.749,0,0
-0.000577855,-0.003029558,-0.00222054,-0.000965311,-0.001040226,3.75,0,0
-0.00027477900000000006,-0.000606361,-0.00050194,0.003160097,0.003907774000000001,3.751,0,0
-0.0012326054,-0.0007314498000000001,0.0005679459999999999,0.0029147129999999998,0.0029626600000000006,3.752,0,0
-0.0028313394,-3.6455799999999964e-05,0.000693362,0.002866387,0.0035592940000000006,3.753,0,0
-0.003674464,0.0025183422,0.0017655300000000002,0.003741238,0.005099338,3.754,0,0
-0.003510252,0.0046134902000000005,0.001381238,0.001847666,0.0025302800000000006,3.755,0,0
-0.0028014032,0.0055310132000000005,-0.00147448,-0.0014192,-0.0012994380000000004,3.756,0,0
-0.00201407862,0.005985426,-0.00439823,-0.0019222946000000002,-0.0012359920000000004,3.757,0,0
-0.0009815596200000002,0.004200262,-0.006323456,-0.0020760844,-0.0018339728000000006,3.758,0,0
0.00018485438000000003,0.0015731400000000004,-0.009747258,-0.0031692084000000003,-0.0032367428,3.759,0,0
0.00214969238,0.0015331200000000002,-0.013070202,9.917559999999995e-05,0.0014807032,3.76,0,0
0.0028318195800000005,-0.0009629319999999999,-0.012724162,0.0026283436,0.0034631172,3.761,0,0
0.0009811029999999997,-0.0071667580000000005,-0.009913290000000002,-0.0004454138000000007,-0.0015660188,3.762,0,0
-0.0004035940000000004,-0.009245996,-0.006679952000000001,-0.0017196460000000005,-0.002620224,3.763,0,0
-0.0009243264,-0.008302156,-0.0034379200000000014,-0.0008771740000000003,-0.0011406739999999997,3.764,0,0
-0.0021481704,-0.008569958000000003,0.0004745319999999999,-0.00316597,-0.004442112,3.765,0,0
-0.0037191384,-0.006705837199999999,0.0048039120000000005,-0.004678482000000001,-0.005330135999999999,3.766,0,0
-0.0033179644,-0.0013351931999999998,0.00892246,-0.000643092,0.001128164,3.767,0,0
-0.0018712426000000002,0.0013346266000000002,0.011862544000000001,0.002224858,0.00390765,3.768,0,0
-0.0016222406,6.321259999999998e-05,0.012837372,0.0018508621999999998,0.002310226,3.769,0,0
-0.0021289710000000003,-0.0007867636,0.011902718,0.0028167721999999996,0.003565574,3.77,0,0
-0.0007648410000000002,-0.0010932104,0.008854426,0.0032097366,0.0033135179999999997,3.771,0,0
0.002816771,-0.0009546776,0.004029156000000001,0.0006413406,-0.0011105620000000003,3.772,0,0
0.0044551092,0.0004965466,0.000630172,-0.0020527113999999997,-0.0038220120000000005,3.773,0,0
0.0046093216,0.0038468626,0.002486172,-0.0017268416,-0.002485198,3.774,0,0
0.005556266,0.0062426828000000005,0.007767534,-0.0021599137999999997,-0.003313015800000001,3.775,0,0
0.005343176,0.0084714608,0.010786146000000002,-0.0019787539999999997,-0.0019410238,3.776,0,0
0.0033423929999999995,0.012461604000000001,0.011911724000000002,0.002356992,0.0042675562000000005,3.777,0,0
0.00174784818,0.012252494000000001,0.011211146,0.003703328,0.003819476200000001,3.778,0,0
0.00058401818,0.008753336,0.005708346,0.0009026920000000001,-0.0002715138,3.779,0,0
-0.00095746982,0.004617882,-0.0005081539999999998,0.0008098012000000004,0.0007452079999999999,3.78,0,0
-0.0015368098200000003,-0.002409438,-0.00409324,0.001114453,0.00032890600000000023,3.781,0,0
-0.0019217968200000001,-0.009105658,-0.008135548,-0.0018050490000000002,-0.003904620000000001,3.782,0,0
-0.0017468561999999998,-0.009969576,-0.013556106000000002,-0.001960359,-0.0022139300000000002,3.783,0,0
0.0004796498000000001,-0.007331386000000001,-0.016027486,0.0020668730000000003,0.0033866700000000005,3.784,0,0
0.0019380238000000001,-0.005630746200000002,-0.017077366,0.003039572,0.003540822,3.785,0,0
0.0011975378000000003,-0.0029578262000000003,-0.01856526,0.0019007940000000004,0.0025008039999999997,3.786,0,0
0.0002733238000000003,-0.00027588920000000037,-0.01606267,0.0025414020000000008,0.0035703920000000004,3.787,0,0
-0.0006918739999999998,-0.0007397084000000004,-0.009393332,0.0014694520000000004,0.001689832,3.788,0,0
-0.002842588,-0.0038559764000000002,-0.0004393919999999994,-0.0019648919999999998,-0.0025244620000000003,3.789,0,0
-0.004135229999999999,-0.0040130996,0.010360728,-0.003400514,-0.0034058768000000007,3.79,0,0
-0.00341351,-0.0007688775999999998,0.019933148,-0.002116646,-0.0019210448000000005,3.791,0,0
-0.0027646719999999997,-0.0004380447999999998,0.023007398000000002,-0.0025938204,-0.0030441308,3.792,0,0
-0.0015069800000000002,0.0020256184000000004,0.020591864,-0.0009646583999999999,-0.00015361679999999992,3.793,0,0
0.0003531760000000002,0.0071997344,0.015984014,0.0035272336,0.004333757200000001,3.794,0,0
8.944399999999994e-05,0.0064962558,0.007282118000000001,0.0026642676,0.0004650460000000002,3.795,0,0
-0.0007267220000000002,0.003962401799999999,-0.003153362,5.248360000000051e-05,-0.0025767340000000002,3.796,0,0
0.00033032799999999996,0.004309238,-0.007987122,0.000719244,-0.00043923400000000037,3.797,0,0
0.0009577199999999998,0.0019535844,-0.007746626,-0.0002752439999999998,-0.0022660760000000005,3.798,0,0
1.5212199999999624e-05,-0.0030355876,-0.008471144,-0.0037602319999999996,-0.005409834000000001,3.799,0,0
-0.00018496780000000024,-0.0040687856,-0.009108154,-0.0023253282,-0.0005779060000000002,3.8,0,0
0.0008646235799999998,-0.0031291216000000005,-0.006803952000000001,0.0016020078000000002,0.0042345740000000005,3.801,0,0
0.0013239335799999999,-0.0043191536,-0.005809066,0.0014937958000000003,0.0028526186000000005,3.802,0,0
0.0018865075799999998,-0.0042892786,-0.006995638,0.0011834218000000003,0.0026763266000000003,3.803,0,0
0.00395251938,-0.0022548606000000002,-0.0060848382000000005,0.0021105948,0.0031861518000000006,3.804,0,0
0.00533502138,-0.0018941666000000003,-0.0039443842000000005,0.0006814190000000002,6.475380000000013e-05,3.805,0,0
0.00392922,-0.0023794206000000004,-0.0033665362,-0.002413363,-0.0034584862000000003,3.806,0,0
0.0017562199999999995,-0.0008695706000000002,-0.0024681402,-0.0028934562,-0.0025569788,3.807,0,0
-0.0006184060000000002,-0.0002374600000000002,0.0004648917999999999,-0.0021210662,-0.0012816368000000001,3.808,0,0
-0.005634766,-0.0013019384,0.001694832,-0.0027479852000000006,-0.0016484960000000002,3.809,0,0
-0.008545362,0.0012815776,0.0025895140000000002,0.00020379079999999997,0.002976954,3.81,0,0
-0.0062399280000000005,0.0035828676,0.005912964000000001,0.0035934168,0.005453862,3.811,0,0
-0.004086584000000001,0.0005265835999999999,0.006749644000000001,0.00180697,0.0005416940000000001,3.812,0,0
-0.002781678,-0.0009925104000000002,0.0045797880000000004,0.000989222,-0.00097242,3.813,0,0
0.00055674,0.00034767999999999995,0.0034325359999999995,0.0022014879999999997,3.6639999999999785e-05,3.814,0,0
0.00334699,-0.0007875858000000001,0.0020469599999999996,-0.0002641360000000001,-0.003825836,3.815,0,0
0.004857597999999999,-0.00014358779999999976,-0.0007710840000000002,-0.003422832,-0.00583999,3.816,0,0
0.00728632,0.0054359522,-0.002003388,-0.001024562,-0.0001010900000000003,3.817,0,0
0.007925546,0.008206520200000001,-0.0016565580000000002,0.001158304,0.002735884,3.818,0,0
0.006664992,0.007682368200000001,-0.0021765940000000004,1.5982000000000105e-05,0.0012151999999999996,3.819,0,0
0.004589345999999999,0.008294754000000001,-0.0027137840000000003,0.000551756,0.0022723621999999996,3.82,0,0
0.0002644179999999991,0.006815456000000001,-0.0017046200000000004,0.0011302999999999999,0.0021351381999999996,3.821,0,0
-0.004333466,0.0020131999999999997,-0.0002902340000000001,-0.0012857100000000002,-0.0016417178000000003,3.822,0,0
-0.0068863560000000015,-0.0028392260000000002,0.000570826,-0.003949902,-0.0040283098,3.823,0,0
-0.008056022000000001,-0.005514952,0.00186565,-0.003301484,-0.0018710317999999998,3.824,0,0
-0.007667824,-0.006857448,0.00325354,-0.0029886267999999997,-0.0018595435999999997,3.825,0,0
-0.0057036505999999996,-0.00673712,0.0026774742,-0.0026523328,-0.0010481286000000002,3.826,0,0
-0.0028964826,-0.002316924000000001,0.0028078322,0.0018717672000000004,0.004933887400000001,3.827,0,0
0.00023368540000000054,0.0019474260000000001,0.0038542022000000002,0.003713073200000001,0.005070725400000001,3.828,0,0
0.0028152474,0.0020938220000000004,0.0019550642000000003,0.0011679652000000005,0.0006956234000000008,3.829,0,0
0.0050073974,0.0018731719999999998,-0.0010371298,0.0011834564000000008,0.001589211000000001,3.83,0,0
0.005620785999999999,0.00035897399999999975,-0.0025118659999999998,0.001644554400000001,0.0014855472000000008,3.831,0,0
0.0038879798000000004,-0.004267758,-0.003653676,-0.0015377435999999996,-0.0036172467999999996,3.832,0,0
0.0017279238,-0.006609908,-0.0052402522,-0.0026290356,-0.0032338269999999994,3.833,0,0
0.0007610117999999999,-0.003909414,-0.003977189600000001,0.0011144744000000002,0.0021511530000000003,3.834,0,0
-5.0413800000000015e-05,-0.0021118480000000004,-0.0006653135999999999,0.002512856,0.0023387050000000004,3.835,0,0
-0.0013252518,-0.001674142,0.0011273504000000002,0.0014959779999999998,0.0006559178000000001,3.836,0,0
-0.0017539536000000001,-4.9766200000000086e-05,0.0018565564,0.0018158800000000002,0.0014565317999999997,3.837,0,0
-0.0014096336,-0.0001248162,0.0024276566,0.0011875039999999998,-0.00023626400000000057,3.838,0,0
-0.0013899776000000001,-0.0017539722,0.001990334,-0.0018437600000000003,-0.004610584000000001,3.839,0,0
-0.0016160994,-0.0016184682000000001,0.0004611919999999998,-0.0035881420000000003,-0.0053986594,3.84,0,0
-0.0002460594000000001,0.0012860878000000003,0.00025696599999999986,-0.0018624200000000003,-0.0027167674,3.841,0,0
0.0011491266,0.0031873500000000003,9.060799999999992e-05,-0.0017195950000000002,-0.0032219234,3.842,0,0
0.0007718346000000003,0.0051624900000000005,-0.00107083,-0.0002812530000000002,-0.0005264733999999997,3.843,0,0
0.0010845428000000002,0.008037796000000002,2.5757999999999857e-05,0.004359201,0.0055557266000000015,3.844,0,0
0.0013727032000000001,0.007368982000000001,0.00099402,0.004191325,0.003422054000000001,3.845,0,0
0.00022343120000000002,0.004954176000000001,-0.0011472400000000001,0.0013146790000000002,9.088000000000412e-06,3.846,0,0
-0.0009430428000000001,0.0034225600000000003,-0.002111246,0.0016737140000000002,0.0015681100000000006,3.847,0,0
-0.0015724028,0.00029518999999999986,-0.0013354758,0.0010364444000000002,-0.00014384399999999963,3.848,0,0
-0.002207091,-0.0050336700000000005,-0.0024185838,-0.0028467296000000003,-0.004608994,3.849,0,0
-0.0025402540000000005,-0.007252306000000001,-0.0032261558,-0.0025387450000000002,-0.0016742500000000002,3.85,0,0
-0.0019611520000000003,-0.006672506000000001,-0.0007369078,0.0010992609999999998,0.00337665,3.851,0,0
-0.00126112,-0.0069178550000000005,0.0012789482,0.0013831549999999998,0.0026306712,3.852,0,0
-0.000546606,-0.005195303000000001,0.00138058,0.0008805546,0.0022523372,3.853,0,0
0.000852166,-0.0014752629999999999,0.002787434,0.001635742,0.0029325974,3.854,0,0
0.002647412,0.00015455500000000007,0.004600984000000001,0.0007698233999999997,0.0004120514000000002,3.855,0,0
0.0030452400000000003,-0.000744307,0.004547288,-0.0017949546,-0.0032202686,3.856,0,0
0.0026959253999999998,-0.0004738260000000001,0.004032186,-0.0021342986000000004,-0.0022856578,3.857,0,0
0.0033361874,0.00044921199999999994,0.004457302000000001,-0.0010448766000000001,-0.00028388179999999977,3.858,0,0
0.0022374833999999994,1.1266289999999838e-05,0.0026401180000000003,-0.001571058,-0.0010222879999999997,3.859,0,0
0.00024374740000000008,0.0021280922900000004,0.00010972200000000025,0.0009297440000000004,0.003204288,3.86,0,0
0.00041745540000000004,0.00493324029,8.454600000000012e-05,0.004081078000000001,0.006624648,3.861,0,0
0.0003672624,0.00366174829,-0.0016212700000000002,0.0018961440000000006,0.0020036900000000007,3.862,0,0
-0.0007318176,0.0020187562899999997,-0.005052698,-0.00015684399999999952,-0.00042602799999999974,3.863,0,0
-0.0006217982000000001,0.0018906466000000006,-0.006065354,0.00018370800000000085,0.0003105123999999999,3.864,0,0
-0.00013704600000000007,-0.0003018894000000003,-0.005782280000000001,-0.0021783379999999997,-0.0038636755999999998,3.865,0,0
-0.0007459204000000001,-0.0024793624000000003,-0.005961064,-0.005419392,-0.006873905600000001,3.866,0,0
-0.00042733680000000006,2.267159999999992e-05,-0.004560494000000001,-0.002938664,-0.0014090776,3.867,0,0
0.0011560352000000002,0.0032809735999999997,-0.002016282,0.0005841360000000003,0.0019801964,3.868,0,0
0.0011193778,0.0035902166,-0.0019838979999999996,0.0007193300000000002,0.0006849740000000003,3.869,0,0
-0.0008964964,0.0029513526,-0.00448719,0.0013757400000000003,0.0017298840000000005,3.87,0,0
-0.002588646,0.0012867156000000003,-0.008516098,0.0021544546000000003,0.001789112,3.871,0,0
-0.004025106,-0.0024802483999999997,-0.01120654,0.0001392826000000001,-0.0019245639999999997,3.872,0,0
-0.005464274,-0.0055583944,-0.007758332,-0.0025495954,-0.004201752,3.873,0,0
-0.004607758,-0.005373328,2.6180000000000647e-05,-0.0020714654000000008,-0.001716636,3.874,0,0
-0.0020340799999999997,-0.004437664,0.008145160000000002,-0.0017784130000000002,-0.0011892802000000003,3.875,0,0
-6.100399999999992e-05,-0.0027085079999999997,0.015152320000000002,-0.0015688200000000005,-0.0007664288,3.876,0,0
0.001334094,0.0017387519999999999,0.019663180000000002,0.002775824,0.0048544391999999995,3.877,0,0
0.001281198,0.00304136,0.018309356,0.005248424000000001,0.0057018212,3.878,0,0
-0.0010762520000000002,0.0005664059999999998,0.012148837000000001,0.0027314559999999997,0.0010272631999999997,3.879,0,0
-0.0021473420000000004,0.0016457919999999999,0.007299398,0.0015833115999999996,0.0006570793999999996,3.88,0,0
-0.0004937160000000004,0.00298395,0.004542988,0.001160742,0.000382446,3.881,0,0
0.0004148819999999999,-0.0005001139999999996,0.001190514,-0.002801322,-0.00473844,3.882,0,0
0.0019924499999999998,-0.00025128599999999965,-0.002179058,-0.004881614,-0.0054513866,3.883,0,0
0.00622319,0.006155754000000001,-0.002555561,-0.0008356180000000004,0.0002061134000000001,3.884,0,0
0.007679934000000001,0.00787545,-0.001966458,0.0019442060000000002,0.0019197854000000006,3.885,0,0
0.004982226,0.006860888000000001,-0.002360988,0.0015804480000000004,0.0009444014000000007,3.886,0,0
0.003469556,0.009725946000000003,-0.0012128884,0.0027058586,0.0024884488000000006,3.887,0,0
0.0028245280000000006,0.009811696000000002,0.00017962120000000002,0.0029520214,0.0019985414000000005,3.888,0,0
0.0004270336000000001,0.002121576000000001,-0.0009859008,0.00036636740000000007,-0.0014389125999999999,3.889,0,0
-0.0011539264000000001,-0.005465704,-0.0037829448,-0.0009908326000000003,-0.0019677466000000005,3.89,0,0
-0.0006644196000000002,-0.007820024,-0.0059526808,0.0005265774,0.0005580574,3.891,0,0
-0.0007486856000000001,-0.010618128,-0.0080724464,-0.0002675312000000001,-0.0002418260000000001,3.892,0,0
-0.0023452276000000003,-0.011651911999999999,-0.010119060000000001,5.188919999999999e-05,0.0014769619999999998,3.893,0,0
-0.0036042532,-0.007317728,-0.008866742,0.0039720672,0.006654836,3.894,0,0
-0.0029173476,-0.00394615,-0.005337016,0.0031385192000000003,0.004185245999999999,3.895,0,0
-0.0008052863999999998,-0.0030896340000000004,-0.0023109720000000005,-0.00030989679999999945,9.869999999999497e-06,3.896,0,0
0.0012717176000000003,-0.001569596,0.0014785919999999997,-0.0002879907999999995,0.0006236120000000001,3.897,0,0
0.0024864820000000004,-0.0017546840000000003,0.005752572,-0.0014986959999999997,-0.001953634,3.898,0,0
0.0031149580000000006,-0.0036848460000000003,0.0075177080000000005,-0.005989128,-0.007974052,3.899,0,0
0.0028134304,-0.002983584,0.006952194,-0.0059872860000000005,-0.006573685199999999,3.9,0,0
0.0008642782000000003,-0.0007780039999999999,0.006964302,-0.002085572,-0.0013645052000000003,3.901,0,0
-0.0012480678000000001,0.00022660400000000026,0.006716850000000001,-0.001139064,-0.0014708726000000002,3.902,0,0
-0.0022784662,-0.0007149139999999999,0.0046262302,-0.0011537079999999998,-0.0014951546000000005,3.903,0,0
-0.0022772362000000003,-0.0020399159999999997,0.0012650202000000002,-0.0001257899999999998,0.0006276838,3.904,0,0
-0.0024760722000000002,-0.001986598,-0.0039107318,-0.0008668159999999999,-0.0004241170000000001,3.905,0,0
-0.0031772000000000007,-0.001372056,-0.0110410078,-0.003018954,-0.0035056270000000003,3.906,0,0
-0.0026243446,0.0020637280000000004,-0.0178712198,-0.002796546,-0.0023975156,3.907,0,0
-0.0013004402,0.008014398,-0.020561960000000004,-0.0015439300000000002,-0.00034109959999999997,3.908,0,0
-0.0016707242000000002,0.0113883,-0.019661978000000004,-0.00213412,-0.0011853480000000001,3.909,0,0
-0.0020642142,0.014183042,-0.015741866,0.0005619140000000002,0.003008904,3.91,0,0
-0.0008960142000000003,0.016379602,-0.005927486000000001,0.004304538,0.007211394,3.911,0,0
-0.0009118642000000003,0.010986808,0.006041414,0.002365784,0.0035518299999999997,3.912,0,0
-0.0010492984,0.0016953480000000002,0.014079774,0.000607312,0.0015800599999999999,3.913,0,0
0.0012337956,-0.003249994000000001,0.018777672,0.0013078821999999994,0.0021841998000000002,3.914,0,0
0.004054021600000001,-0.006627220000000001,0.021237128,-0.0018491818000000004,-0.0027811802,3.915,0,0
0.0034709328000000006,-0.012172122,0.018364498,-0.0062443198,-0.0073884442,3.916,0,0
0.0012028734000000003,-0.014050207999999998,0.01151918,-0.004408705800000001,-0.0034910942,3.917,0,0
0.0010817946000000005,-0.010369562,0.0059834446,-0.0012239918000000005,-0.0002554441999999995,3.918,0,0
0.0006282286000000004,-0.0077125380000000006,0.0018614286,-0.0011932470000000004,-0.0013007079999999998,3.919,0,0
-0.0012780235999999996,-0.007491818000000001,-0.0010055754,7.490499999999979e-05,0.000257098,3.92,0,0
-0.0010223143999999996,-0.0066909859999999995,-0.0015147034,0.001916503,0.0015141704,3.921,0,0
0.0008934576,-0.005270142,-0.0012386340000000002,0.0008415649999999998,-0.0011556336000000003,3.922,0,0
6.912420000000012e-05,-0.0040596578,-0.0017515046000000003,-0.0007672648000000001,-0.0028626916000000007,3.923,0,0
-0.0018812578,-0.0016424498000000003,-0.0018264626000000003,0.0008985342000000001,0.00025656039999999956,3.924,0,0
-0.0028545736,0.0002719682000000003,-0.0009682546000000002,0.0020836862000000005,0.0013947203999999996,3.925,0,0
-0.004046738,0.0009034926000000003,-0.0021128146000000004,0.0015811498000000003,0.0014593533999999997,3.926,0,0
-0.003973344,0.0032232286000000005,-0.0025688940000000004,0.004939547800000001,0.0073203874,3.927,0,0
-0.0022499860000000003,0.0043492544000000005,-0.0008838099999999998,0.0071187956,0.008660323400000001,3.928,0,0
0.0006136040000000002,0.0036583404000000005,-0.0013936200000000001,0.0038207256000000003,0.0033059034000000004,3.929,0,0
0.004339332,0.0049327284,-0.002324532,0.0020885176000000004,0.002208127400000001,3.93,0,0
0.0060026160000000005,0.00587943,-0.000975412,0.0017826620000000004,0.0014691680000000003,3.931,0,0
0.004696492,0.00409013,-0.0007086424,-0.0021162480000000003,-0.004531778,3.932,0,0
0.0027399380000000004,0.0029610108000000003,-0.0023022904,-0.0052336660000000005,-0.00640701,3.933,0,0
0.0008311126000000002,0.0039062108000000005,-0.0012064369999999999,-0.00255507,-0.0010726900000000007,3.934,0,0
-0.0011114054000000003,0.0032301868000000006,0.0007441110000000002,-0.00034524399999999976,0.0006419419999999997,3.935,0,0
-0.0014285434000000006,0.0021062548,0.000718965,-0.0009464859999999996,-0.0004959240000000002,3.936,0,0
3.775739999999991e-05,0.0022182748000000004,0.0019274474,-2.1685999999999873e-05,0.0009382724,3.937,0,0
0.0015761614,0.0009677320000000002,0.0037575314000000003,0.0008603120000000001,0.0009513063999999998,3.938,0,0
0.0021726688000000003,-0.0015330319999999997,0.0022570920000000005,-0.00043156999999999994,-0.0019010856,3.939,0,0
0.0016682568,-0.002129726,-0.0017923759999999998,-0.0009385039999999999,-0.0021282776,3.94,0,0
0.0014958864,-0.0005478279999999993,-0.005123691999999999,0.0013426880000000003,0.0014876284000000003,3.941,0,0
0.0006033915999999999,-0.0016389719999999998,-0.008698716,0.001607838,0.0012522800000000001,3.942,0,0
-0.0016324764000000005,-0.0014596239999999999,-0.01298985,0.0022655260000000003,0.0022395460000000002,3.943,0,0
-0.0027359404000000006,0.0023610820000000005,-0.013225836,0.006130592,0.007502918000000001,3.944,0,0
-0.0031455681000000005,0.0024835920000000006,-0.010512605999999999,0.005928905999999999,0.005587310000000001,3.945,0,0
-0.0033669237000000006,0.000758,-0.009560286000000001,0.002551448,0.00035324800000000045,3.946,0,0
-0.0017102337000000005,0.0032246340000000005,-0.005991008000000001,0.0020460500000000006,0.00045036800000000025,3.947,0,0
0.0005838523,0.0057020000000000005,0.0010392720000000008,0.0006952899999999992,-0.0014393439999999995,3.948,0,0
0.0007945983,0.00423345,0.004689834,-0.004515028000000001,-0.007582162,3.949,0,0
0.0006135134000000001,0.004909196,0.006919502000000001,-0.005675002,-0.006464254,3.95,0,0
0.0015250974000000001,0.008096625999999999,0.012214022000000001,-0.0016575080000000002,-0.0006654139999999996,3.951,0,0
0.0012747334,0.008685592,0.013870104000000001,-0.00026606200000000007,-0.0005789021999999998,3.952,0,0
-0.00017560059999999992,0.006861689999999999,0.010525158,-0.00039939200000000015,-0.0011319741999999996,3.953,0,0
-0.00032040659999999996,0.0038530700000000005,0.009298072,0.0016427420000000004,0.0009706598000000005,3.954,0,0
9.518e-05,-0.0021348279999999996,0.008406784,0.0021715938,0.00010741780000000033,3.955,0,0
-0.0009618432000000003,-0.010219708000000001,0.0047850802,7.528579999999986e-05,-0.0025426582000000002,3.956,0,0
-0.0020989452000000006,-0.015009144,0.0018952186000000002,-0.00013782820000000006,-0.0007693880000000002,3.957,0,0
-0.0022555472,-0.015516934,0.0019043046,0.0014272158000000002,0.002161988,3.958,0,0
-0.0032981912000000003,-0.014212194,0.0013083412,0.0005889658000000002,0.000935136,3.959,0,0
-0.0047104412,-0.008263213999999998,-0.0001361327999999999,0.001819708,0.0038005880000000006,3.96,0,0
-0.004125452000000001,0.0009319860000000001,0.0007811750000000002,0.005264222000000001,0.007934224,3.961,0,0
-0.0023557640000000006,0.005507598,0.0010507888000000003,0.003558126000000001,0.00369178,3.962,0,0
-0.0003834620000000002,0.007214476,-0.0010807392000000001,0.0011177140000000003,0.00030830400000000056,3.963,0,0
0.0028216359999999998,0.009383674,-0.0017941498000000004,0.0013653820000000003,0.0008226480000000002,3.964,0,0
0.005800270000000001,0.008315848,-0.0012468226000000003,-0.001640306,-0.0035669720000000007,3.965,0,0
0.006934234000000001,0.005106628,-0.0018906640000000007,-0.006814768,-0.008736092,3.966,0,0
0.008059174,0.0051352920000000005,-0.00040463420000000036,-0.0056838996,-0.005188576000000001,3.967,0,0
0.007698212000000001,0.0031766000000000003,0.0029727838,-0.0020302816000000003,-0.0012416400000000005,3.968,0,0
0.004489278,-0.002844228,0.0028406497999999996,-0.001642844,-0.0020640500000000004,3.969,0,0
0.0018265999999999998,-0.005665781999999999,0.00024896659999999954,-0.00048307199999999997,-0.0009234060000000001,3.97,0,0
-2.1799999999999717e-05,-0.007188868,-0.0019798960000000005,0.001256072,0.00022804220000000004,3.971,0,0
-0.00244773,-0.009808562,-0.005729978,0.00012670759999999998,-0.0019535218,3.972,0,0
-0.0030819848,-0.0085370312,-0.010601668000000002,-0.0022010844,-0.0032013778,3.973,0,0
-0.0018009568,-0.0030630312000000004,-0.01266444,-0.00119555,6.102419999999987e-05,3.974,0,0
-0.0009568188,0.00015553479999999998,-0.011027198000000002,0.00035928200000000016,0.0016658842,3.975,0,0
-0.0009171108000000001,0.0011408962000000003,-0.007647494000000001,0.0004041686000000002,0.0014188999999999998,3.976,0,0
-0.0011370288000000003,0.0043935742,-0.003630414000000001,0.004107146600000001,0.006601908,3.977,0,0
-0.00155732,0.005847483400000001,-0.0002741979999999998,0.006895090600000001,0.008382488,3.978,0,0
-0.001813036,0.0032463934000000003,0.0004372820000000002,0.003590964600000001,0.0024849479999999994,3.979,0,0
-0.000558808,0.0024243576000000005,-0.0005954399999999996,0.0012388186000000007,0.0005411299999999995,3.98,0,0
0.0003369820000000001,0.0014822062,-0.0025014599999999996,0.0006697920000000012,0.00025501999999999936,3.981,0,0
-0.00182205,-0.0039497738000000004,-0.003884152,-0.003661076,-0.005715400000000001,3.982,0,0
-0.0052067680000000005,-0.008290055800000001,-0.0012848679999999998,-0.0071510739999999995,-0.008393620000000001,3.983,0,0
-0.007568476,-0.0076003558,0.004268572,-0.004221788,-0.002432400000000001,3.984,0,0
-0.00998923,-0.007524763800000001,0.009309632,-0.0015373759999999998,0.0005533319999999997,3.985,0,0
-0.010386614,-0.0075455358,0.012611528,-0.001784496,-0.00033728000000000035,3.986,0,0
-0.004525613999999999,-0.0026263878000000003,0.013630498000000001,-0.0007123219999999999,0.0013282799999999998,3.987,0,0
0.003680126000000001,0.0023538922,0.011663732000000001,-0.00018701800000000006,0.001307144,3.988,0,0
0.007916406,0.0040353702,0.007769740000000001,-0.00200895,-0.001627374,3.989,0,0
0.009185288200000002,0.005503148,0.003129062,-0.0027724860000000002,-0.002459518,3.99,0,0
0.008703114200000002,0.007414002,-0.00039768400000000025,-0.0005096959999999998,0.00058332,3.991,0,0
0.005029502200000001,0.00543005,-0.0014903999999999998,0.00011797940000000013,0.0007345240000000003,3.992,0,0
0.0019156902000000003,0.0036141540000000005,-0.0025750518,0.0009095074000000001,0.00177618,3.993,0,0
0.0026705102000000006,0.006031646000000001,-0.0019197297999999996,0.005330713400000001,0.007317518,3.994,0,0
0.0038904420000000005,0.005567806000000001,0.0007368022000000001,0.005826295400000001,0.006246756000000001,3.995,0,0
0.0038764180000000004,0.0033795540000000008,0.0012307002,0.0023308234000000007,0.0013905360000000008,3.996,0,0
0.0038052179999999995,0.003604304,0.0008041182000000001,0.0014637220000000006,0.0013031100000000012,3.997,0,0
0.0024176840000000002,0.002276824,0.0017440060000000002,-8.900599999999998e-05,-0.0006295139999999992,3.998,0,0
-0.0006616419999999998,-0.0017650440000000001,0.001085826,-0.0055970460000000005,-0.007294523999999999,3.999,0,0
-0.0027475060000000003,-0.0033833940000000005,-0.0019012459999999999,-0.00753268,-0.007206667799999999,4.0,0,0
-0.002728076,-0.0022998268,-0.002855502,-0.0037704320000000006,-0.0015141078,4.001,0,0
-0.0029438579999999997,-0.0024175268,-0.0031112119999999995,-0.0022218059999999993,-0.0010511052000000002,4.002,0,0
-0.003754496,-0.0034157788000000002,-0.004506192,-0.002187126,-0.0013386032000000001,4.003,0,0
-0.003091796,-0.0039413168,-0.0043361860000000006,-0.00013377960000000017,0.0006829784,4.004,0,0
-0.0012826819999999996,-0.0033739986,-0.002707188,0.0004351203999999996,-0.0002343298000000002,4.005,0,0
0.00012942400000000038,-0.0019065517999999997,-0.0023137300000000004,-0.0013448456000000003,-0.0029888278,4.006,0,0
0.0008176100800000002,-0.00021338980000000008,-0.002505808,-0.0009215796,-0.0014833803999999996,4.007,0,0
0.0010462640800000002,0.0020758542000000003,-0.001451726,0.0016593504,0.0019477196000000003,4.008,0,0
0.00014487008000000018,0.0031211384000000004,-0.0013228516,0.00139661,0.001312718,4.009,0,0
-0.00278347392,0.0034649282000000004,-0.0020986375999999998,0.002900666,0.004404038000000001,4.01,0,0
-0.00563736192,0.0035803562,-0.0006404336,0.006656344,0.009015016,4.011,0,0
-0.006464428,0.0008035242,0.0009106464,0.004907498,0.005293448000000001,4.012,0,0
-0.005674436200000001,-0.0017695318000000002,-0.0001106436000000001,0.0016491499999999998,0.0013824100000000001,4.013,0,0
-0.0028370482,-0.002533552,-0.00019125740000000004,0.0014385479999999996,0.001719176000000001,4.014,0,0
0.0011569898,-0.00459145,0.0006388606000000002,-0.000925538,-0.0020833099999999997,4.015,0,0
0.003989257800000001,-0.007116234000000001,-0.0009189434000000001,-0.005632018,-0.007780388,4.016,0,0
0.0054171618000000005,-0.00532525,-0.0028768494000000005,-0.004828196000000001,-0.00498345,4.017,0,0
0.005823598,-0.0014414279999999994,-0.0023282136,-0.0010514300000000001,-0.0007294700000000003,4.018,0,0
0.004260761400000001,-0.0004482751999999999,-0.0020598576000000006,-0.0006475534000000004,-0.001525334,4.019,0,0
0.0022647276000000004,0.0007041007999999999,-0.0025437856,-0.00045887139999999983,-0.0011138200000000002,4.02,0,0
0.0015300616000000003,0.0027979468,-0.0010345456000000002,0.0005765586000000002,6.459400000000012e-05,4.021,0,0
0.0009372903000000001,0.0030504188,0.0002393044,-0.0005504893999999998,-0.002015874,4.022,0,0
0.0003682243,0.0029595108000000005,-0.00021159540000000005,-0.0025023326,-0.0038727766000000007,4.023,0,0
0.0002828729,0.00536036,-0.0004833918,-0.0013911531999999996,-0.0012952286000000005,4.024,0,0
0.0004693007,0.007886184000000001,0.0008247122000000001,0.00020091080000000006,0.0003569413999999999,4.025,0,0
-0.00014079730000000004,0.006540949799999999,0.0007642982000000001,-5.364520000000002e-05,0.0002966473999999999,4.026,0,0
-0.0006235920000000001,0.0030934378000000004,0.0006082802000000002,0.0030726748000000003,0.005459217400000001,4.027,0,0
-8.676800000000009e-05,-0.0011348962000000008,0.0033317622000000003,0.005785864,0.00817262,4.028,0,0
-0.00030612200000000003,-0.0060829762,0.004847044,0.0030290960000000002,0.0035384,4.029,0,0
-0.001663866,-0.008995008200000001,0.004617850000000001,0.0011601179999999997,0.0019020220000000008,4.03,0,0
-0.002429194,-0.00849126,0.0052035200000000005,0.0007755520000000001,0.0015566280000000002,4.031,0,0
-0.002928192,-0.006431928,0.004923346800000001,-0.0032547220000000007,-0.004314552,4.032,0,0
-0.0044111,-0.00482961,0.0021285908,-0.007177386,-0.007978246000000001,4.033,0,0
-0.004703996,-0.002056918,0.0009098471999999998,-0.004800506,-0.0030438180000000007,4.034,0,0
-0.0030621900000000002,-0.00045315999999999976,0.0015459492,-0.0020662860000000005,4.129600000000013e-05,4.035,0,0
-0.00048462600000000015,-0.00126922,0.0011501572000000002,-0.0021614480000000003,-0.0008483880000000003,4.036,0,0
0.002683248,-5.706199999999976e-05,0.0016784384000000001,-0.0008373460000000001,0.0008373739999999999,4.037,0,0
0.005503626,0.0016067920000000001,0.0035461984000000005,0.00033906280000000016,0.00109578,4.038,0,0
0.007246532,0.0017820620000000003,0.00435733,-0.0009883072,-0.0019734460000000002,4.039,0,0
0.007899924,0.003623856000000001,0.003777032,-0.0018570691999999999,-0.0028906780000000003,4.04,0,0
0.006940910000000001,0.0075671440000000005,0.00453507,0.0004057888000000001,0.0007078119999999999,4.041,0,0
0.0041056700000000005,0.008008564000000001,0.003822832000000001,0.0011632128000000001,0.0012204844000000001,4.042,0,0
0.0011221300000000005,0.006173526,-0.0028973320000000007,0.001729164,0.0019091038000000002,4.043,0,0
-0.0009275999999999999,0.0070747860000000004,-0.010285438000000001,0.006132022,0.0075448418,4.044,0,0
-0.003338626,0.0056961600000000005,-0.015516336,0.007037566,0.006857155000000001,4.045,0,0
-0.007102846,0.0009454380000000003,-0.022172052,0.003418222,0.0014118210000000006,4.046,0,0
-0.009607626000000001,-0.0003832339999999999,-0.025844719999999998,0.0024861860000000005,0.0007318706000000002,4.047,0,0
-0.009781746000000001,0.0009407434000000001,-0.022023659999999997,0.0014881260000000006,-0.0006170667999999996,4.048,0,0
-0.009208962000000001,-0.0009346385999999999,-0.0156424914,-0.0034654380000000004,-0.0066574288,4.049,0,0
-0.006983688000000001,-0.0033881566,-0.005492991400000001,-0.005305875999999999,-0.0069162138,4.05,0,0
-0.001555688,-0.0023040666000000002,0.0109194886,-0.0014789220000000006,-0.0007968338000000001,4.051,0,0
0.004642492,-0.0022617046,0.0219879286,0.0004917739999999997,0.0005435062000000001,4.052,0,0
0.007611026,-0.005174396,0.023915602600000002,0.00017392199999999975,-0.00032752780000000004,4.053,0,0
0.008318233999999999,-0.006795936000000001,0.024409508000000003,0.0013021288,0.0010070722,4.054,0,0
0.008317887999999999,-0.00685043,0.020272670000000003,0.0013029987999999997,-0.00015091799999999989,4.055,0,0
0.006382746000000001,-0.007549724000000001,0.0089982338,-0.0011282612000000003,-0.003516676,4.056,0,0
0.003317906,-0.006525024000000001,0.0007191757999999997,-0.0019289112,-0.002870506,4.057,0,0
0.0018270249999999997,-0.002794666,-0.0001768562,-0.00010451720000000011,0.00028975800000000064,4.058,0,0
4.558999999999683e-06,-0.00146124,-0.0009701742000000003,-0.0003575859999999999,-0.0002171019999999995,4.059,0,0
-0.0022334390000000003,0.000353412,-0.0038232902000000005,0.00074354,0.00282728,4.06,0,0
-0.0011292490000000001,0.005092458000000001,-0.0045377460000000005,0.004871086,0.007871458000000001,4.061,0,0
0.000352495,0.006018556,-0.00441494,0.004207465999999999,0.004486218,4.062,0,0
0.0003706359999999998,0.0052906598,-0.0038099146,0.001325424,0.0007844940000000002,4.063,0,0
0.000565634,0.005411123800000001,0.0006778893999999998,0.00126903,0.0012574419999999997,4.064,0,0
-0.0007268580000000001,0.0016099898000000003,0.0047291034,-0.0008929800000000002,-0.0024449520000000002,4.065,0,0
-0.004119496,-0.004238950200000001,0.0031442354,-0.005538278000000001,-0.00803045,4.066,0,0
-0.00666951,-0.005623322600000001,-0.0002620525999999998,-0.004742548,-0.004938226,4.067,0,0
-0.006918112000000001,-0.004048670400000001,-0.00242114,-0.0008017759999999997,0.00041009399999999974,4.068,0,0
-0.006349588000000001,-0.0028933744000000008,-0.006313336,-0.0001183994000000001,1.3304000000000115e-05,4.069,0,0
-0.005446188,-0.0010896764000000005,-0.009746052000000002,0.0007223106000000001,0.0003601719999999993,4.07,0,0
-0.0032086220000000004,-0.00024112040000000019,-0.008539196,0.0020588436000000005,0.0016682397999999996,4.071,0,0
-0.00017705399999999984,-0.001674266,-0.00603947,0.0007124216,-0.0005715462000000005,4.072,0,0
0.0010647820000000004,-0.004053134,-0.005194502,-0.0012082656,-0.0032812396000000002,4.073,0,0
0.0012884400000000003,-0.0047898820000000005,-0.0036971340000000012,-0.0001650162000000001,-0.0010269716,4.074,0,0
0.003074714,-0.002775058,0.00029144199999999983,0.0016484237999999998,0.0012610724,4.075,0,0
0.004735126,0.0014846860000000003,0.004221766,0.0014842801999999998,0.0008759706,4.076,0,0
0.005347208000000001,0.009345666,0.0084194,0.0043269502000000005,0.0058115186,4.077,0,0
0.005938388000000001,0.015880480000000002,0.011847472000000001,0.0075326094,0.009017092,4.078,0,0
0.005519138,0.017328514000000003,0.010047346,0.004779625399999999,0.004242528000000001,4.079,0,0
0.003876488,0.017582140000000003,0.0053165899999999995,0.0019138313999999997,0.001923724000000001,4.08,0,0
0.0016551380000000004,0.015121263999999999,0.0030205659999999993,0.001566794,0.0015898960000000004,4.081,0,0
-0.00038273799999999976,0.007407463999999999,0.003448906,-0.0020995700000000007,-0.0043229440000000004,4.082,0,0
-0.0007503719999999996,-0.0019647960000000004,0.002126606,-0.006841158000000001,-0.00865831,4.083,0,0
0.0012055340000000003,-0.007634348000000001,4.245999999999981e-05,-0.004940034,-0.00406089,4.084,0,0
0.0034329280000000005,-0.009635006,-6.037800000000047e-05,-0.00162092,-0.0008490240000000005,4.085,0,0
0.0038075124000000004,-0.010135050800000002,-0.002088024,-0.0017969040000000002,-0.0019301480000000007,4.086,0,0
0.0028836084000000003,-0.008302008800000002,-0.006116972000000001,-0.0011689039999999997,-0.0009706860000000006,4.087,0,0
0.0010300724,-0.0036408008,-0.006842036000000001,-0.0001615159999999999,-0.00043713400000000016,4.088,0,0
-0.0018335195999999998,0.0012317192000000001,-0.005029468,-0.0016308779999999997,-0.0026531600000000003,4.089,0,0
-0.0043360576,0.0038407452000000005,-0.0037890840000000003,-0.0034017267999999993,-0.003424988000000001,4.09,0,0
-0.004901382,0.003457864,-0.0020139298,-0.0015609168000000001,0.00036099600000000036,4.091,0,0
-0.00478214,-0.001938258,-0.00013136180000000003,-0.00024066080000000002,0.0016432556000000004,4.092,0,0
-0.0051415359999999995,-0.006794626,-0.0004793606,0.00014878200000000005,0.0022855104,4.093,0,0
-0.0038316580000000004,-0.006526094,0.0004090934,0.004334098,0.0075338764,4.094,0,0
-0.0014522,-0.008169756,0.0030405733999999997,0.006010432800000001,0.007456160400000001,4.095,0,0
-6.802000000000012e-05,-0.009318942,0.0025913852,0.002739992800000001,0.002197040400000001,4.096,0,0
0.001486976,-0.00419059,0.0010399531999999998,0.0014608567999999996,0.001613294800000001,4.097,0,0
0.0031408539999999998,-0.0005683863999999999,0.0010943801999999997,0.0007519160000000003,0.0008153840000000007,4.098,0,0
0.003345322,-0.0010311264,0.00031559219999999986,-0.003984604,-0.005191696000000001,4.099,0,0
0.0018590959999999995,-9.13239999999994e-06,-0.0019559498,-0.006369226,-0.0060132902,4.1,0,0
-0.0003836439999999998,0.0025124116,-0.0023091278,-0.003032944,-0.00045585020000000033,4.101,0,0
-0.0030511360000000003,0.0024058176000000004,-0.0020840438,-0.001390858,0.0006003777999999998,4.102,0,0
-0.005458401999999999,0.000617458,-0.0030471459999999997,-0.0018754060000000005,-0.0009119722000000005,4.103,0,0
-0.006333849999999999,-0.000581542,-0.0032153000000000004,-0.0006067800000000001,0.00017927779999999999,4.104,0,0
-0.005952524,-0.0027254280000000002,-0.0024890180000000004,-0.00018850600000000001,-0.0004556440000000003,4.105,0,0
-0.0042700640000000005,-0.004312736,-0.0016684726,-0.001958866,-0.0034113100000000003,4.106,0,0
-0.0003562699999999997,-0.0019758939999999997,-0.000831142,-0.0018267480000000002,-0.002903674,4.107,0,0
0.004841750000000001,0.0030504620000000003,0.001036774,0.0007305520000000002,0.00046179999999999984,4.108,0,0
0.00747944,0.005680924,0.00211441,0.00079386,0.000296774,4.109,0,0
0.006993366000000001,0.008587624,0.0010933140000000002,0.0017102640000000002,0.0023944860000000004,4.11,0,0
0.005438872000000001,0.011558036,0.0012440326000000002,0.005781082,0.007448452,4.111,0,0
0.0021276520000000003,0.007779942,0.0018278100000000005,0.005472626000000001,0.00496938,4.112,0,0
-0.001982208,0.0014611420000000003,4.1622000000000057e-05,0.0026301960000000004,0.0011383260000000003,4.113,0,0
-0.0032358880000000006,-0.0017404179999999999,-0.0008898,0.0026403800000000008,0.0017581820000000005,4.114,0,0
-0.0013207700000000002,-0.00473051,3.062799999999999e-05,0.0011038240000000002,-0.0011677700000000003,4.115,0,0
0.00011169799999999997,-0.00830839,-0.000579482,-0.0037733840000000003,-0.006994852000000001,4.116,0,0
0.000403054,-0.006841086,-0.001654988,-0.0044166012,-0.005100162,4.117,0,0
0.001435394,-0.0023348339999999996,-0.00020007999999999994,-0.0006679052,-4.898199999999993e-05,4.118,0,0
0.001850438,-0.0012545599999999998,0.000654274,-0.00012635119999999993,-0.0003411099999999999,4.119,0,0
0.0009752044,-0.00118354,-7.964399999999992e-05,-0.0007445271999999999,-0.0006656799999999999,4.12,0,0
0.0009545624000000001,0.00039615799999999997,0.00068271,0.00039149680000000013,0.00012932600000000014,4.121,0,0
0.0009732364000000001,0.00126285,0.0014861360000000003,-0.0003601060000000001,-0.0018322680000000002,4.122,0,0
-0.00031104959999999997,0.001161086,0.0009712562000000002,-0.0029214920000000004,-0.004563938,4.123,0,0
-0.0006927676000000002,0.002996004,0.0002990902000000001,-0.0021880560000000003,-0.002809122,4.124,0,0
0.00029524399999999985,0.00540774,0.0005269561999999999,0.00041977200000000033,-4.172200000000033e-05,4.125,0,0
-8.224900000000014e-05,0.0047453138,0.00022691060000000005,0.00029187000000000006,0.0001032959999999999,4.126,0,0
-0.00021979900000000012,0.0048551018,0.0006616866,0.0027761220000000002,0.004841952,4.127,0,0
0.000980433,0.005098793799999999,0.0033543284000000003,0.006358988,0.009140862,4.128,0,0
-4.774500000000008e-05,0.0011550478,0.0045597244,0.004302314,0.005594114000000001,4.129,0,0
-0.0020191690000000003,-0.0020770982,0.0037079004000000002,0.001814592,0.0032520839999999997,4.13,0,0
-0.002030834,-0.0025846719999999997,0.0031917640000000006,0.001418172,0.0034819679999999998,4.131,0,0
-0.0013874059999999999,-0.004847270000000001,0.0018737660000000005,-0.0020129580000000005,-0.0015198119999999995,4.132,0,0
-0.0015474776,-0.007152058,-0.001622738,-0.006539716000000001,-0.006422272000000001,4.133,0,0
-0.0009984695999999999,-0.0045354296,-0.00361485,-0.004877642,-0.0028133539999999997,4.134,0,0
9.472239999999997e-05,-0.0014413976000000003,-0.0026370712,-0.0016636660000000003,0.0006014160000000002,4.135,0,0
-0.00026485359999999994,-0.0009990616000000003,-0.0026696332000000003,-0.0015994660000000003,-0.0007121419999999996,4.136,0,0
-0.0012716076,0.0003531923999999999,-0.0035012412,-0.0005444340000000002,-0.0005424239999999999,4.137,0,0
-0.00164966,0.0026713664,-0.0028790132,0.0006737723999999999,-0.00040288999999999993,4.138,0,0
-0.0016140236000000002,0.0038937620000000003,-0.0028473812000000005,-0.0010313476000000002,-0.0033093840000000003,4.139,0,0
-0.0013177316000000001,0.004048912,-0.004435682000000001,-0.0030104556000000006,-0.005005356,4.14,0,0
0.0004782644,0.004544548,-0.005437256,-0.0015899116,-0.0017454699999999998,4.141,0,0
0.0023730684,0.0030913300000000006,-0.005406233999999999,-0.0008554736,-0.00017126820000000007,4.142,0,0
0.0027056464,-5.571599999999971e-05,-0.0066295799999999995,-0.0010050179999999999,0.0002524917999999997,4.143,0,0
0.0029280836,-0.0006595739999999999,-0.00497153,0.0028704940000000003,0.005621307800000001,4.144,0,0
0.0026294976,-0.001113292,0.0029585660000000006,0.00515657,0.006507987800000001,4.145,0,0
0.0009791816,-0.0026248600000000006,0.010325678,0.0026933440000000003,0.0013468938000000012,4.146,0,0
-0.0009479264,-0.0018328580000000001,0.014399686,0.0017656540000000008,0.0006004400000000007,4.147,0,0
-0.0022669444,-0.0007488400000000001,0.017324718000000003,0.0016126200000000002,5.884400000000093e-05,4.148,0,0
-0.0035246360000000003,-0.002398706,0.015877208,-0.002325492,-0.005750618,4.149,0,0
-0.00505217,-0.003770462,0.0078108019999999995,-0.00495987,-0.006992707,4.15,0,0
-0.005117206,-0.0022722840000000003,-0.0005163780000000001,-0.0015414959999999998,-0.0009180669999999998,4.151,0,0
-0.002716696,-0.0014358680000000003,-0.005938318,0.0011280720000000006,0.0011207910000000003,4.152,0,0
0.001254662,-0.0015359140000000002,-0.010832668,0.0008065460000000003,0.0001244610000000004,4.153,0,0
0.005823499999999999,0.00027694199999999997,-0.013160586,0.0017194000000000003,0.001560473,4.154,0,0
0.009040145999999999,0.001763344,-0.011845616000000002,0.002016424,0.0007747079999999998,4.155,0,0
0.008804873999999999,0.000638476,-0.008926824000000002,-0.00048508799999999995,-0.0026612960000000005,4.156,0,0
0.005880131999999998,0.0004466839999999999,-0.005331361999999999,-0.0020538256,-0.0027722600000000003,4.157,0,0
0.002166006,0.002493318,-0.0017298277999999998,-0.00048208159999999997,0.0007522000000000002,4.158,0,0
-0.002335302,0.0015419472000000002,0.0004762942000000001,-0.0007091536000000001,0.0005361740000000002,4.159,0,0
-0.006137414000000001,0.0016591832,0.0001585142000000004,-1.7075600000000118e-05,0.0021033400000000004,4.16,0,0
-0.006384762,0.005782031200000001,-0.0016477898,0.0044316104,0.007444484,4.161,0,0
-0.00530849,0.0049739892,-0.0051012518,0.004825022,0.005152102,4.162,0,0
-0.0059747,0.00030626319999999983,-0.010260286,0.002036778000000001,0.0003402339999999996,4.163,0,0
-0.006644714000000001,-0.0020548620000000006,-0.013103828000000001,0.0019379720000000005,0.0007437120000000005,4.164,0,0
-0.005540848000000001,-0.005581108000000001,-0.009803752,0.0003969900000000007,-0.0012929720000000003,4.165,0,0
-0.004179902000000001,-0.010793574,-0.0012055799999999995,-0.004673522,-0.007039280000000001,4.166,0,0
-0.0015880719999999998,-0.009807342,0.00834386,-0.0051094792,-0.005330716,4.167,0,0
0.005289824,-0.003149362,0.01817552,-0.0005496231999999996,0.00017100399999999977,4.168,0,0
0.011673386000000001,0.0014297980000000004,0.02480838,0.0013163868000000002,0.00014348799999999978,4.169,0,0
0.01320593,0.004650344000000001,0.023407514,0.0015483848000000004,-0.00015100799999999978,4.17,0,0
0.012279360000000001,0.007890522,0.018490774,0.0027803508000000003,0.0010530600000000002,4.171,0,0
0.009048466,0.008069408,0.013616314000000001,0.0018999600000000002,-0.0006342699999999999,4.172,0,0
0.0028605020000000004,0.006208254000000002,0.008139101999999999,-0.001253012,-0.003253094,4.173,0,0
-0.002555384,0.0059181419999999995,0.004307034,-0.0022022559999999997,-0.0017666220000000002,4.174,0,0
-0.004665958,0.00613821,0.0033814536,-0.0010697928,0.0005831759999999998,4.175,0,0
-0.006062540000000001,0.004047823999999999,0.0004657715999999999,-0.0015300028,1.3551999999999683e-05,4.176,0,0
-0.0067725220000000004,0.0009436339999999996,-0.0041317284,0.0007990651999999998,0.0036694599999999994,4.177,0,0
-0.006116102000000001,-0.0032561120000000002,-0.0052339484000000006,0.0046086572,0.0076439839999999995,4.178,0,0
-0.004505510000000001,-0.00759664,-0.0050955924000000005,0.0031301111999999997,0.004185266,4.179,0,0
-0.0011870539999999995,-0.008624874000000001,-0.006937940000000001,0.0014953199999999996,0.0017840300000000005,4.18,0,0
0.0026992720000000004,-0.00669173,-0.00799264,0.0019586259999999998,0.0023587931440000004,4.181,0,0
0.0046672232,-0.0044960892,-0.006374688000000001,-0.0011262180000000002,-0.0016824368559999999,4.182,0,0
0.0033019312,-0.0030658912000000003,-0.005715472,-0.005658008,-0.0060193248559999996,4.183,0,0
0.0004703731999999997,-0.0005050512000000001,-0.006752252,-0.003961464,-0.002395510856,4.184,0,0
-0.0023310968000000007,0.0003289768,-0.006233814000000001,-0.00035856799999999965,0.0010041191440000004,4.185,0,0
-0.004974212800000001,-0.0026047672,-0.005416280000000001,-0.0005436239999999996,-0.0007001799999999999,4.186,0,0
-0.005084569200000001,-0.00376925,-0.005733772,-0.00014650599999999991,-0.0007583879999999998,4.187,0,0
-0.0017947972000000002,-0.0027576544000000006,-0.0048450044,0.0008497219999999999,-0.0004884839999999998,4.188,0,0
0.0011979267999999998,-0.0031414124000000007,-0.0031296897,-0.001048126,-0.003454806,4.189,0,0
0.0021231448000000003,-0.0031106304000000006,-0.0015909497,-0.003718222,-0.0050606044,4.19,0,0
0.0027788203999999997,-0.00022669040000000001,0.0009072923,-0.002833498,-0.0016149964,4.191,0,0
0.0028367122,0.0017526916,0.0039972323,-0.0018090228,0.00011366960000000015,4.192,0,0
0.0011147289999999999,0.0021943260000000003,0.0045726926999999995,-0.0022663648,0.00018492160000000015,4.193,0,0
0.0003808850000000001,0.005999104000000001,0.00393,0.0012695752,0.0055201896,4.194,0,0
0.0010689190000000002,0.008719154,0.004178688,0.0037746712000000003,0.007074536,4.195,0,0
0.0005183793999999999,0.005950104,0.0017170360000000001,0.0013139812000000002,0.0019888080000000003,4.196,0,0
-0.00024992919999999993,0.0036910460000000008,-0.002166748,0.0003974839999999998,0.0009981120000000007,4.197,0,0
-1.4560399999999889e-05,0.0031936960000000006,-0.0036551860000000004,0.0005033700000000001,0.0008642840000000003,4.198,0,0
-0.00036714079999999996,-0.0009166140000000001,-0.004360042,-0.0030729480000000003,-0.004413634,4.199,0,0
-0.0014900427999999999,-0.004420932,-0.006181738,-0.005511802,-0.006371736,4.2,0,0
-0.0007455048000000001,-0.0011716839999999999,-0.005861546,-0.00195942,-0.0006651359999999998,4.201,0,0
0.00021211919999999997,0.001344574,-0.003157528,0.0006718440000000002,0.0016709980000000001,4.202,0,0
-0.0003746824,-4.839999999999879e-06,-0.001616766,0.0003445080000000001,8.625800000000008e-05,4.203,0,0
-0.0005450420000000001,-0.001018252,-8.277680000000017e-05,0.0010937780000000003,0.0010486520000000002,4.204,0,0
-0.0006977160000000001,-0.002789698,0.0016600672,0.001071182,0.0007851879999999999,4.205,0,0
-0.001206252,-0.005469364000000001,0.0020079624000000004,-0.0013242380000000002,-0.002401194,4.206,0,0
-0.0008546059999999999,-0.005448346,0.0016745624000000002,-0.002470482,-0.0031100280000000004,4.207,0,0
-0.0003019122000000001,-0.0021079259999999996,0.0026360404000000002,-0.000319948,0.000442392,4.208,0,0
-0.0004469662,0.0002302760000000006,0.004191133200000001,0.00013216079999999993,0.0005759220000000001,4.209,0,0
-0.00026225019999999996,0.0027416720000000006,0.0042398772000000005,0.0010950288,0.0016454920000000001,4.21,0,0
0.0003603438000000001,0.007373654,0.005162994000000001,0.0055527988,0.007162834000000001,4.211,0,0
-0.00011751520000000002,0.007882842000000001,0.0066557940000000005,0.005728756799999999,0.006212716,4.212,0,0
-0.001088989,0.0036407980000000006,0.005499706,0.002339236799999999,0.001782676,4.213,0,0
-0.00021176100000000003,0.001873174,0.00353394,0.0020543699999999994,0.0019530180000000002,4.214,0,0
0.001450401,0.0011116620000000007,0.00268427,0.0009661859999999992,0.00022453399999999976,4.215,0,0
0.0011402886000000001,-0.0025316149999999996,-0.00011659999999999991,-0.0037148520000000003,-0.005774024000000001,4.216,0,0
-0.0002912924,-0.0018362209999999994,-0.005421574,-0.0042873668,-0.00503406,4.217,0,0
-0.0007893463999999999,0.004699959,-0.00872786,0.00014263320000000058,0.0002902,4.218,0,0
-0.0029442844000000003,0.007554687,-0.010770750000000003,0.0016855572000000001,0.0003284508000000001,4.219,0,0
-0.006824474400000001,0.007728738400000001,-0.013093224000000002,0.0012076032000000005,-0.0005004412000000002,4.22,0,0
-0.00728256,0.0080649642,-0.013335300000000001,0.0017856152000000004,0.00037106879999999974,4.221,0,0
-0.003315612,0.0025259441999999997,-0.010115102599999998,0.0006650200000000005,-0.0015273652000000002,4.222,0,0
0.0012178020000000005,-0.006824955800000001,-0.0038773026,-0.0022312960000000002,-0.004603133200000001,4.223,0,0
0.004488366000000001,-0.0122468998,0.0029498574000000003,-0.0027461100000000004,-0.003519276,4.224,0,0
0.008117198,-0.0135305952,0.0093798374,-0.0008304940000000002,-0.0007387760000000001,4.225,0,0
0.009462596,-0.013707470420000001,0.014030897399999999,-0.0008863100000000003,-0.0010881479999999997,4.226,0,0
0.006444144000000001,-0.00903597642,0.014901382000000001,0.001184402,0.002271188,4.227,0,0
0.0032699466000000003,-0.0017574844200000006,0.01313818,0.005149118,0.006837236,4.228,0,0
0.0021347426,0.00111887958,0.009461716,0.0038025640000000005,0.0037442000000000005,4.229,0,0
0.0008864020000000002,0.00170880158,0.004805524000000001,0.001542336,0.0010175759999999992,4.23,0,0
-0.0005452079999999999,0.001843508,0.00231795608,0.0021434426000000004,0.0020470139999999998,4.231,0,0
-0.00104094,-0.00024155999999999993,0.00160355568,0.0002266746000000006,-0.001228698,4.232,0,0
-0.0021137706000000003,-0.0028106380000000003,-0.00089369432,-0.0036631014000000003,-0.0058750600000000005,4.233,0,0
-0.0034579146,-0.0013376660000000004,-0.00333971832,-0.0017669474,-0.0022982900000000006,4.234,0,0
-0.0038453899999999997,0.00060901,-0.00306740632,0.0021581646,0.002007274,4.235,0,0
-0.004053734000000001,0.00038545500000000015,-0.0037252144000000003,0.0021477282000000003,0.00039277599999999963,4.236,0,0
-0.0035290800000000004,0.0019268830000000003,-0.0056371780000000005,0.0019687582,-0.00010464000000000024,4.237,0,0
-0.001331386,0.004251607000000001,-0.005850186,0.002186510200000001,0.00040468799999999973,4.238,0,0
0.00023344799999999992,0.004272841,-0.004480952000000001,-0.00017719579999999984,-0.0023576080000000006,4.239,0,0
0.0005185820000000002,0.0033765730000000003,-0.0028037620000000004,-0.0033910098,-0.004730151600000001,4.24,0,0
0.0018172460000000002,0.004625642,7.711399999999922e-05,-0.002755188,-0.0021746856,4.241,0,0
0.0033328640000000005,0.004920614,0.004566936,-0.0014783820000000003,-0.0004271298000000003,4.242,0,0
0.002655122,0.002593052,0.00610822,-0.0021703480000000008,-0.0004271358000000001,4.243,0,0
0.0019296574000000003,0.002348036,0.005272242,0.001044158,0.0049470902,4.244,0,0
0.0028776254,0.002339092,0.00349115,0.004295892,0.0078333338,4.245,0,0
0.0024133849999999997,-0.0008293040000000001,-0.00253873,0.0019522799999999996,0.0038956678,4.246,0,0
0.0005628289999999999,-0.002719326,-0.00938457,0.000501168,0.003084462,4.247,0,0
-0.000371069,-0.0023884540000000004,-0.011491914,0.0008339760000000005,0.002948595999999999,4.248,0,0
-0.0010051644000000002,-0.003319652,-0.01176468,-0.0028870380000000006,-0.0027284320000000003,4.249,0,0
-0.0021238804000000004,-0.002229228,-0.011770436,-0.006344328000000001,-0.0059527040000000005,4.25,0,0
-0.00284064,0.001934454,-0.008020665400000002,-0.003320524,-0.0012773040000000006,4.251,0,0
-0.002687974,0.0036569000000000003,-0.0018429534000000002,-0.00017941400000000035,0.0008224679999999996,4.252,0,0
-0.0016315360000000003,0.0041187708,0.004971966600000001,-0.0002463560000000004,-0.0013003260000000003,4.253,0,0
-0.00065934,0.0059045348,0.010379064600000001,0.0006653320000000002,-0.0009609600000000003,4.254,0,0
-0.0006859400000000001,0.0031161868000000002,0.011164813,0.0010213160000000002,-0.001757616,4.255,0,0
-0.0013664400000000002,-0.006064613200000001,0.0093952244,-0.0017466680000000005,-0.005350614,4.256,0,0
-0.0033182380000000003,-0.0126416032,0.006483440400000002,-0.003951856,-0.00616411,4.257,0,0
-0.0056769,-0.013866652,0.0012706024000000006,-0.0022813160000000007,-0.002475714,4.258,0,0
-0.006475434,-0.014664034000000001,-0.0008116175999999999,-0.0017402040000000002,-0.001854938,4.259,0,0
-0.004441376,-0.010669532,0.002560312000000001,-0.001453344,-0.0002518700000000002,4.26,0,0
0.0013711580000000004,0.0017480479999999999,0.006771390000000001,0.003164038,0.006000768,4.261,0,0
0.007280418,0.010865948,0.008476792,0.0048236320000000004,0.005578817400000001,4.262,0,0
0.009469434,0.012514144000000001,0.0063644700000000005,0.002127294,0.0017235814000000002,4.263,0,0
0.009724142000000002,0.013171334000000002,0.0020902299999999998,0.002143154,0.0029955854000000004,4.264,0,0
0.007966765800000003,0.01028947,-0.002395446,0.00196958,0.0021429874000000004,4.265,0,0
0.0031287278,0.0029362800000000007,-0.005095886,-0.002355002,-0.0034191246,4.266,0,0
-0.0010080362,-0.002001442,-0.004879864,-0.0035879440000000005,-0.002541966,4.267,0,0
-0.0017141022,-0.0026373582,-0.0015032039999999995,0.0005483979999999999,0.0031701140000000004,4.268,0,0
-0.0010141962000000003,-0.0041030182,0.00176275,0.001976966,0.0031522640000000005,4.269,0,0
-0.00033001800000000006,-0.0052791562,0.0017362439999999999,0.001119778,0.001282962,4.27,0,0
0.000412392,-0.0036028482,-5.013600000000054e-05,0.0011374240000000002,0.001331474000000001,4.271,0,0
0.0012318882,-0.0018507712,-0.001816712,-0.0006665140000000002,-0.0015307760000000002,4.272,0,0
0.0010839102,-0.0014909510000000001,-0.0034886400000000003,-0.003946176,-0.006087618,4.273,0,0
-0.0003595657999999999,-0.0012474512000000002,-0.0047914659999999994,-0.0050085308,-0.006017846,4.274,0,0
-0.0013086558,3.31474e-05,-0.003122694,-0.0036382628,-0.0031491540000000004,4.275,0,0
-0.0024012058000000003,-0.00017960660000000006,-0.00103641214,-0.0034926168,-0.00329852,4.276,0,0
-0.003931802,0.0010600604000000002,-0.00116374214,-0.0012047988,0.00039904000000000003,4.277,0,0
-0.004592088,0.0045041704,-1.064140000000039e-06,0.0032880632,0.006641442000000001,4.278,0,0
-0.005471354,0.0045942826,0.00096744786,0.0035457100000000005,0.005011722000000001,4.279,0,0
-0.007106426000000001,0.003504404,1.7379859999999963e-05,0.0029747000000000003,0.003173750000000001,4.28,0,0
-0.007537078,0.003434856,0.0006764920000000001,0.00522246,0.005646538000000001,4.281,0,0
-0.006554948,0.0007149740000000002,0.0020760680000000004,0.005052032000000001,0.0036774606000000007,4.282,0,0
-0.00393631,-0.0022354840000000003,0.00104523,0.0018349720000000003,-0.0010685152,4.283,0,0
0.0013431819999999996,0.0007617560000000002,-0.00029811599999999985,0.0031074200000000005,0.0017996968000000004,4.284,0,0
0.006487442,0.005054118,9.113240000000023e-05,0.00676137,0.006048016800000001,4.285,0,0
0.009166624,0.005497292599999999,-0.0005280567999999999,0.00635432,0.003867062800000001,4.286,0,0
0.010030158,0.0042753926,-0.0019183207999999999,0.004760348,0.0018444642000000006,4.287,0,0
0.008553376,0.0010524105999999995,-0.0018319828,0.0033402220000000003,0.000545986,4.288,0,0
0.004812324000000001,-0.004299669400000001,-0.0020345548000000003,-0.00041197599999999966,-0.0037375859999999998,4.289,0,0
0.0010109480000000004,-0.008282961400000002,-0.0036073532,-0.005416634,-0.0077821240000000005,4.29,0,0
-0.001420788,-0.0083159228,-0.004100406,-0.007321380000000001,-0.0070558154,4.291,0,0
-0.0021358120000000004,-0.006460660800000002,-0.0027183220000000004,-0.007372448000000001,-0.0060206714,4.292,0,0
-0.002385316,-0.0049500488,-0.0028601820000000006,-0.008469582000000002,-0.0065545634,4.293,0,0
-0.0025273060000000004,-0.0006880208,-0.002584176,-0.00526286,-0.0017082634000000004,4.294,0,0
-0.0015308700000000004,0.0037507512,0.00033622600000000023,-0.0006376419999999999,0.0022735946000000005,4.295,0,0
-0.0010554940000000001,0.004504082,0.001585646,-0.0009704439999999998,8.759800000000036e-05,4.296,0,0
-0.0017319220000000003,0.0052053894,0.0014651220000000001,-0.0007188620000000001,0.0009352500000000005,4.297,0,0
-0.0018054420000000004,0.0056979614,0.0031826740000000004,0.001809064,0.00392027,4.298,0,0
-0.0013610390000000003,0.0025375553999999996,0.004302124,0.00047568799999999994,0.0014891366000000005,4.299,0,0
-0.001003403,-0.0009948760000000002,0.002496384,-0.001999232,-0.0004591834000000001,4.3,0,0
0.00022156300000000003,0.000340564,0.001366806,0.0017937160000000005,0.0047710766,4.301,0,0
0.002064867,0.0021548646,0.001662892,0.005699732000000001,0.007222820600000001,4.302,0,0
0.0027804630000000004,0.0014808746,0.00081715,0.005011312,0.004040706599999999,4.303,0,0
0.002417886,0.0012311266000000001,-0.00012562599999999994,0.004244416,0.00205822,4.304,0,0
0.0014708580000000002,-5.236400000000027e-05,-0.00021005200000000001,0.0027189099999999997,-0.0008885760000000003,4.305,0,0
0.0004396694000000002,-0.003853126,-0.000672252,-0.0019749900000000003,-0.006502136,4.306,0,0
-0.00028482260000000005,-0.006667408,-0.0014981228,-0.006071286,-0.0095495,4.307,0,0
-0.0006384406,-0.005896264,-0.0013811288,-0.005913762000000001,-0.007202502,4.308,0,0
-0.00020867340000000007,-0.00478754,-0.0008488555999999998,-0.006005108,-0.0066299259999999995,4.309,0,0
0.000263344,-0.0035294526,-0.0011138615999999998,-0.005908262,-0.005293620000000001,4.31,0,0
0.0006382246,0.00039320939999999997,-0.0003528928,-0.0014354420000000003,0.0013972200000000002,4.311,0,0
0.00029499499999999994,0.0024591794,0.000730404,0.0010069259999999996,0.0029593720000000005,4.312,0,0
-0.0007385450000000001,0.0011605553999999999,-1.450199999999995e-05,-0.00025960000000000024,0.0006316540000000006,4.313,0,0
-0.0013923782000000002,0.0008432813999999997,-3.677899999999998e-05,0.0011097319999999998,0.003019534000000001,4.314,0,0
-0.0018932456000000002,0.0007000639999999997,0.0013604810000000002,0.0028570839999999998,0.004136716,4.315,0,0
-0.0030819496000000003,-0.0019118040000000005,0.0015009588,0.00028182200000000004,6.803600000000032e-05,4.316,0,0
-0.004137498,-0.0027792340000000002,0.00029430280000000003,-0.0004008159999999998,0.0009658960000000002,4.317,0,0
-0.0034714500000000005,0.00022926799999999992,0.0008015008000000001,0.003996980000000001,0.0065733760000000006,4.318,0,0
-0.002536134,0.001259948,0.0018297166,0.005946244,0.006562832000000001,4.319,0,0
-0.0017095320000000002,0.000832462,0.0013925706,0.004898568000000001,0.0037812600000000003,4.32,0,0
0.00035714600000000024,0.002067136,0.0013370462,0.004511096000000001,0.002558846000000001,4.321,0,0
0.0032326240000000003,0.0018174346780000003,0.0020498282,0.0026458900000000006,-0.0006129639999999995,4.322,0,0
0.0039009660000000005,3.3706780000000453e-06,0.0016113702,-0.002094312,-0.006308824,4.323,0,0
0.004203186,0.0009052626780000002,0.0004460392000000001,-0.004620134000000001,-0.0070923786,4.324,0,0
0.005997686,0.0023108346780000002,0.0008270832,-0.003641296,-0.0033819045999999996,4.325,0,0
0.005562048,0.001634236118,0.001100165,-0.001402506,-0.00011761059999999997,4.326,0,0
0.00427148,-0.00019358656000000008,0.001553273,0.000897368,0.0007013974,4.327,0,0
0.004269518,-0.0059803385599999995,0.0019166334,-0.0023500700000000005,-0.0057756026000000005,4.328,0,0
0.0031141859999999997,-0.011442074560000001,-0.00037856960000000046,-0.0074763880000000005,-0.011786640000000001,4.329,0,0
0.0006859998000000001,-0.010520224560000001,-0.0024674036000000006,-0.006605943999999999,-0.009724454,4.33,0,0
-0.0003047202,-0.007025172000000001,-0.0033301416000000006,-0.00432422,-0.006548514,4.331,0,0
-0.0020029562000000002,-0.0028929560000000003,-0.005852677600000001,-0.003256922000000001,-0.0034193799999999996,4.332,0,0
-0.004681642200000001,0.0034635002,-0.008377406,0.0021259920000000006,0.005511012000000002,4.333,0,0
-0.0063409642,0.0080507242,-0.008445806,0.008312884000000001,0.013092286000000002,4.334,0,0
-0.0079146,0.0076589802,-0.009514052,0.008337032000000001,0.012622906000000001,4.335,0,0
-0.008831474,0.0066786402000000005,-0.011301832000000001,0.007506092000000001,0.012654366,4.336,0,0
-0.00713945,0.0087773202,-0.008028730000000001,0.009146072,0.014922186000000002,4.337,0,0
-0.0030382399999999993,0.010892924,-2.7700000000000294e-06,0.008079374,0.012377234,4.338,0,0
-0.0007370334,0.009685038,0.00685825,0.0029002019999999993,0.0050825800000000015,4.339,0,0
0.00038556660000000004,0.007660458000000001,0.010641982,-0.002003584,-0.0009785800000000006,4.34,0,0
0.0026156925999999995,0.005083033000000001,0.0131208482,-0.00552132,-0.005912384,4.341,0,0
0.0024769685999999997,-0.00022420099999999994,0.010846458199999999,-0.008627314,-0.01002747,4.342,0,0
-0.0002225234,-0.003173753,0.005019938200000001,-0.006079452,-0.0066562140000000014,4.343,0,0
-0.0008669260000000002,-0.0049586709999999996,0.0028778581999999997,-0.0016974431999999997,-0.003538734,4.344,0,0
-0.0001826638,-0.011817511000000001,0.0030515922,-0.0037029032000000005,-0.008860314000000001,4.345,0,0
5.7196200000000095e-05,-0.017098446,0.002378906,-0.006017547200000001,-0.011391090000000001,4.346,0,0
0.0017623462000000004,-0.015766742,0.002974886,-0.0039101532000000005,-0.007836864000000002,4.347,0,0
0.0048683882000000005,-0.012703369999999999,0.00370601,-0.0023755312,-0.00569008,4.348,0,0
0.007854104200000002,-0.007942509999999998,0.00139634848,-0.000923288,-0.002198994000000001,4.349,0,0
0.008869308000000001,0.0015045820000000002,-0.0008166695200000001,0.004940456,0.006679518000000001,4.35,0,0
0.007226068,0.009256642000000002,-0.0010019495200000001,0.008719674,0.010848189999999999,4.351,0,0
0.0044389220000000005,0.011491432000000003,-0.00217415152,0.007112994000000001,0.00908755,4.352,0,0
0.0017707920000000002,0.012891452000000001,-0.0032230835200000004,0.006654634,0.010405049999999999,4.353,0,0
-0.001217678,0.013320872000000003,-0.0020925340000000005,0.007304942000000002,0.011689324000000001,4.354,0,0
-0.0038546200000000004,0.010192646,-0.0017143380000000001,0.004769198000000002,0.007229691999999998,4.355,0,0
-0.005685378,0.005054006,-0.003133818,0.00020208000000000118,0.0005593600000000001,4.356,0,0
-0.006461742,0.0014280340000000006,-0.003275774,-0.002855946,-0.0031518839999999998,4.357,0,0
-0.0072222599999999994,-0.0032432320000000004,-0.001996784,-0.0060398579999999995,-0.0075967064,4.358,0,0
-0.008502404,-0.008371692,-0.0017196139999999997,-0.007515950000000001,-0.009119762400000002,4.359,0,0
-0.00622899,-0.007892462000000001,-0.00011593799999999989,-0.003337658,-0.0031224623999999987,4.36,0,0
-0.0014523499999999998,-0.006999226,0.003159922,-0.001232806,-0.0024658824,4.361,0,0
0.002273754,-0.008858074,0.0033921900000000007,-0.004330860000000001,-0.007947438400000001,4.362,0,0
0.006131482000000001,-0.006633278,0.001173818,-0.004739064000000001,-0.007372534000000001,4.363,0,0
0.009449592000000001,-0.0011436980000000003,-0.00034735279999999994,-0.0027712320000000006,-0.004567917999999999,4.364,0,0
0.008676477800000002,0.0009987020000000004,-0.0017509466000000002,-0.0029851160000000008,-0.004699244000000001,4.365,0,0
0.004958419800000001,0.0022359520000000003,-0.0031890805999999997,-0.0013194896000000007,-0.00043023400000000085,4.366,0,0
0.0017690378000000007,0.005430572000000001,-0.0015490206000000001,0.0040173884,0.00736817,4.367,0,0
-0.0011333121999999999,0.005475864,0.0012358934000000002,0.0055360744,0.008787868,4.368,0,0
-0.0034668722,0.004046506,0.0017956222,0.0037319364,0.007543768000000001,4.369,0,0
-0.0036301539999999996,0.00526107,0.002425782,0.004387128400000001,0.009309474,4.37,0,0
-0.002611777,0.005263202,0.003665156,0.004724098,0.008898176,4.371,0,0
-0.002867113,0.0013192619999999994,0.0034279259999999995,0.00148022,0.003907992,4.372,0,0
-0.003527971,-0.002903660000000001,0.00212394152,-0.0020375700000000003,-0.001170408,4.373,0,0
-0.0025005572,-0.0050524440000000006,0.0016115969199999999,-0.0030762540000000005,-0.0036752462000000006,4.374,0,0
-0.0007927492,-0.00718999,0.0002920529199999998,-0.005092088000000001,-0.0073492788,4.375,0,0
0.0009487337999999998,-0.005158358,-0.00265287108,-0.004770080000000001,-0.0063376948,4.376,0,0
0.0032714698,0.00045450199999999986,-0.00399496108,-1.029200000000007e-05,-0.0009822567999999998,4.377,0,0
0.0042825818,0.0011183820000000002,-0.0045435166,-1.659200000000017e-05,-0.0037450368,4.378,0,0
0.0031593180000000004,-0.00028637599999999964,-0.006214202,-0.0035143100000000005,-0.0084410586,4.379,0,0
0.001113012,0.0015839500000000002,-0.006064608,-0.0029369060000000004,-0.0063756460000000004,4.38,0,0
-0.0009687620000000001,0.003451,-0.003540902,-0.0016338020000000002,-0.004684902000000001,4.381,0,0
-0.0024965020000000003,0.0037574200000000005,-0.001641998,-0.0023190760000000006,-0.0051776420000000005,4.382,0,0
-0.0026942432000000003,0.006536882000000001,-0.00029022,0.0005950309999999998,0.0006255633999999997,4.383,0,0
-0.0012616152000000003,0.00920894,0.002435492,0.005510181,0.007615523400000001,4.384,0,0
-0.0009418292000000002,0.006565222000000001,0.0027394040000000004,0.006368835,0.007539287400000001,4.385,0,0
-0.0018705412000000002,0.0023242700000000002,-0.0010803380000000001,0.006236655000000001,0.0073480474,4.386,0,0
-0.0021210432000000005,-0.0007060880000000002,-0.003942272,0.007409841,0.0096395894,4.387,0,0
-0.0019403730000000002,-0.00430301,-0.005547242000000001,0.006387998000000001,0.007767878,4.388,0,0
-0.001859765,-0.008135008,-0.007396322000000002,0.002127708000000001,0.0017892380000000007,4.389,0,0
-0.0007873429999999997,-0.009063984,-0.004742650000000001,-0.0014782719999999999,-0.0015113540000000006,4.39,0,0
0.0020380809999999997,-0.00753788,0.0035177700000000004,-0.00321874,-0.003209406,4.391,0,0
0.003847783,-0.00575082,0.00887773,-0.005459324000000001,-0.006241548200000001,4.392,0,0
0.0042506819999999996,-0.0009434840000000009,0.0105775,-0.0034133740000000003,-0.0029560882,4.393,0,0
0.004258128,0.003387738,0.012968946,0.001110066,0.0011403798,4.394,0,0
0.002273394,0.002276892,0.011146348,-0.0006213380000000004,-0.003487292200000001,4.395,0,0
-0.000824024,0.0005673419999999993,0.0042473020000000005,-0.0032599700000000005,-0.0065259002,4.396,0,0
-0.0013215660000000001,0.0006924999999999998,-0.00020153199999999993,-0.0018651400000000002,-0.004106818,4.397,0,0
2.3546000000000157e-05,-0.0003402720000000001,-0.0009149302000000001,-0.001916114000000001,-0.0040998300000000005,4.398,0,0
0.00037166599999999977,-0.0011560440000000004,-0.0027972661999999997,-0.0030743742000000004,-0.0040149400000000016,4.399,0,0
0.000888074,0.001726616,-0.0046804462000000005,0.0006557218,0.002612956,4.4,0,0
0.002072772,0.004188746,-0.0031316122000000003,0.0043211538,0.006877508,4.401,0,0
0.0017702839999999998,0.0033837520000000003,-0.0018748716000000004,0.0031997038,0.005126554,4.402,0,0
-0.0004344640000000002,0.002612554,-0.0022126450000000005,0.0028328198,0.00554989,4.403,0,0
-0.0019187840000000004,0.0024138302,-0.000869465,0.003450444,0.006280408,4.404,0,0
-0.0017631620000000002,0.00046842819999999997,0.0007914732000000001,0.0010363479999999999,0.002349732,4.405,0,0
-0.002017342,-0.0026856318000000002,0.00046627920000000007,-0.0029458840000000006,-0.00235712,4.406,0,0
-0.0025060020000000002,-0.0036510918000000002,-0.0003130593999999999,-0.004172572000000001,-0.002973359,4.407,0,0
-0.0015703699999999998,-0.0038077404000000006,-0.0005486278,-0.004534018000000001,-0.004335213,4.408,0,0
-0.0009316219999999999,-0.0041208318,-0.0020374178000000004,-0.004876366,-0.005001511,4.409,0,0
-0.0005109318,-0.0017836278000000001,-0.0023819604000000004,-0.0007548440000000002,0.000714089,4.41,0,0
0.0003967706,-0.0005156838000000001,-0.0008163304,0.0020875842,0.0024182430000000005,4.411,0,0
-3.716740000000009e-05,-0.0026126898000000003,-0.0008949744000000001,-0.0006146838000000003,-0.0028491840000000003,4.412,0,0
-0.0007186208000000002,-0.0026673346000000006,-0.0014875744000000003,-0.0015357218000000004,-0.0035401948,4.413,0,0
-0.0005892948000000001,-0.0013449674000000002,-0.0006291544000000002,0.00017382219999999976,-0.0012170927999999993,4.414,0,0
-0.0004016146000000002,-0.0019759714,6.692399999999984e-05,-0.0006430678000000003,-0.002754886799999999,4.415,0,0
-0.00012613100000000014,-0.0010923034000000003,-0.0007296148000000002,-0.001086092,-0.0018504947999999995,4.416,0,0
0.001026477,0.0028278386,-2.3434200000000122e-05,0.0026719680000000003,0.0044367292000000004,4.417,0,0
0.0016755283999999998,0.004864914,0.0020411898,0.003903920000000001,0.005466040000000001,4.418,0,0
0.0008691444,0.00539895,0.0024741178,0.001521412,0.002243768,4.419,0,0
0.00013053200000000004,0.007863712,0.0026691878,0.0013270820000000003,0.002663188,4.42,0,0
-7.755439999999997e-05,0.00882617,0.0035869086,0.0017704730000000003,0.0020719019999999996,4.421,0,0
-0.0005082480000000001,0.006485452,0.0036926532,-0.0003240449999999998,-0.0021615620000000006,4.422,0,0
-0.0012273180000000002,0.003538163999999999,0.0026226713999999997,-0.002493049,-0.003970956,4.423,0,0
-0.0010676420000000002,0.001326714,0.0021430794,-0.0020173509999999997,-0.002324672,4.424,0,0
-0.001012254,-0.0025490799999999996,0.0012832184000000002,-0.002582817,-0.003232134,4.425,0,0
-0.0019978476,-0.005388866,-0.0010145316000000001,-0.0016854139999999999,-0.0009052579999999995,4.426,0,0
-0.002967794,-0.004575726,-0.0013482228,0.003285864,0.005282042000000001,4.427,0,0
-0.003678504,-0.005382716,-0.0005490229999999999,0.004149596,0.002968212,4.428,0,0
-0.0033607202000000003,-0.006516118,-0.001435769,0.0008542659999999998,-0.002313640000000001,4.429,0,0
-0.0009917642000000005,-0.004488976,-0.0013633914,0.0004284105999999996,-0.0015243160000000013,4.43,0,0
0.0032250897999999994,-0.0022914240000000007,0.0007412845999999999,0.0001654845999999999,-0.001858648000000001,4.431,0,0
0.0076425718,-0.0027334120000000006,0.0003627305999999999,-0.0032589234000000005,-0.005305462,4.432,0,0
0.0096503578,-0.002826556,-0.0035365534,-0.0032067994000000008,-0.002357416,4.433,0,0
0.00937932,-0.0010154598,-0.0064972013999999995,0.0007457406,0.003531154,4.434,0,0
0.007900732,0.00012146620000000026,-0.009299144,0.0013796120000000001,0.003228442,4.435,0,0
0.004153396000000001,0.0017349982000000003,-0.013859296,0.000602807,0.0025666540000000002,4.436,0,0
-0.0008684600000000002,0.0052593222,-0.0163609,0.001953725,0.004941488000000001,4.437,0,0
-0.003333738,0.0083041722,-0.015399320000000001,0.001909095,0.004180438000000001,4.438,0,0
-0.003947778,0.007088252000000001,-0.013336842,-0.0010516050000000002,-0.00014521200000000003,4.439,0,0
-0.005839706,0.002943458,-0.008577511999999999,-0.002558957,-0.001319354,4.44,0,0
-0.006709454,-0.0008441959999999997,0.0006891880000000003,-0.0019117700000000001,-0.00041193800000000015,4.441,0,0
-0.00565766,-0.004472014,0.010480888,-0.0026269020000000004,-0.0021685680000000005,4.442,0,0
-0.003987256000000001,-0.004632806000000001,0.018858028,-0.0003336200000000004,0.0010163359999999998,4.443,0,0
-0.0017443279999999999,-0.0011885080000000004,0.025187670000000002,0.00401814,0.005611196000000001,4.444,0,0
-0.00011002460000000008,-0.00034180799999999965,0.024634536000000005,0.0024751999999999994,0.0013051220000000006,4.445,0,0
0.0011290810000000003,0.00016995400000000016,0.017446078,-0.00043031400000000065,-0.0029355300000000004,4.446,0,0
0.0030537790000000004,0.004053472,0.009421464,0.00025807399999999963,-0.0019194780000000003,4.447,0,0
0.0034435750000000004,0.006341908,0.0027320420000000005,-0.0008521180000000001,-0.0036891460000000012,4.448,0,0
0.0014803290000000003,0.004853846,-0.0021165898,-0.0036664220000000008,-0.006166516,4.449,0,0
-0.0002179383999999999,0.003235986,-0.0035783895999999997,-0.0010095444000000002,-0.0007436960000000001,4.45,0,0
-0.0014526399999999998,0.001251958000000001,-0.0013208216,0.0031127696000000002,0.004629424,4.451,0,0
-0.002390904,-0.0030974399999999995,0.0010256544000000001,0.0026693276,0.00398438,4.452,0,0
-0.0020062540000000003,-0.00682681,0.0016349420000000001,0.0020487232400000005,0.004233582,4.453,0,0
-0.00047501399999999995,-0.0077389854,0.0024358178,0.0030979672400000004,0.00533171,4.454,0,0
0.0008693700000000002,-0.0066300194,0.0023580426,0.00177766164,0.0026027559999999995,4.455,0,0
0.0011450160000000004,-0.0048334114,-7.152139999999987e-05,-0.0015803583600000003,-0.0016908760000000002,4.456,0,0
-1.2633999999999974e-05,-0.0032145034,-0.0032209234000000002,-0.0020413077600000004,-0.0022852508000000007,4.457,0,0
-0.0018828420000000005,-0.0039515614,-0.0050418270000000005,-0.0018231354000000002,-0.0032441188000000005,4.458,0,0
-0.003907682000000001,-0.005917884,-0.007774711,-0.0030748154,-0.004959834800000001,4.459,0,0
-0.003262750000000001,-0.0026155679999999995,-0.009719252000000001,-0.0002574894,-0.0008610608000000001,4.46,0,0
0.0011866639999999996,0.0009079239999999998,-0.0079435898,0.0022002006,0.0006477892000000002,4.461,0,0
0.00377252,-0.0001193479999999998,-0.006448933800000001,-0.0009524140000000004,-0.004118953999999999,4.462,0,0
0.004160388000000001,0.001245329,-0.0060216038,-0.002157776,-0.004568071999999999,4.463,0,0
0.0051079340000000015,0.0035325090000000005,-0.0040191106,-0.000842028,-0.0026543519999999996,4.464,0,0
0.004187254000000001,0.0010876930000000003,-0.0017490094000000003,-0.002795474000000001,-0.0050518666000000005,4.465,0,0
0.0005103712000000001,-0.001506811,-0.0011964876000000002,-0.003976298000000001,-0.0048769718,4.466,0,0
-0.0013983232200000001,0.0009505610000000002,0.0013978244000000001,0.00023064600000000004,0.0019729482,4.467,0,0
-0.0009523787460000001,0.0033588720000000006,0.0060899524,0.003232524,0.0050228402,4.468,0,0
-0.001062798746,0.004135978,0.0089372992,0.003107704,0.0039587182,4.469,0,0
-0.0008356767460000001,0.006733298,0.010773412,0.004214614,0.0053332748,4.47,0,0
-0.00020249194600000002,0.008127298000000002,0.011410102,0.004451100600000001,0.005075284,4.471,0,0
6.477447400000003e-05,0.005900654,0.008075424000000001,0.0015683846000000003,0.0007522039999999994,4.472,0,0
-1.62428e-05,0.0035061790000000003,0.0021709639999999996,-0.0014757174000000002,-0.0019936840000000003,4.473,0,0
0.0005952952000000001,0.0033952730000000003,-0.0023332800000000005,-0.0016898733999999999,-0.0008249360000000003,4.474,0,0
0.0012855592,0.001362087,-0.005251332000000001,-0.0025646244,-0.002308068,4.475,0,0
0.0009878014,-0.0014977890000000002,-0.007765872,-0.0023882309999999998,-0.0017538842000000001,4.476,0,0
0.0019001234000000002,-0.0009087534000000001,-0.007254778,0.0019573209999999997,0.0034339958,4.477,0,0
0.0031359002000000006,-0.0017763744000000004,-0.0030314499999999998,0.0029522196000000005,0.0020666158,4.478,0,0
0.0019293622,-0.0056949744,-2.87439999999996e-05,0.0001664276,-0.0023441522,4.479,0,0
-0.00015758980000000035,-0.0060981444,0.0008790172000000002,0.00027570819999999985,-0.0012298962,4.48,0,0
-0.0011611880000000003,-0.0041915906000000005,0.0020733212,0.0005401801999999998,-0.0007329599999999996,4.481,0,0
-0.0032753740000000006,-0.0052371002,0.0017531551999999998,-0.0025871018000000003,-0.004097881999999999,4.482,0,0
-0.006626982000000002,-0.0046135972,-0.0015500228000000001,-0.0027071666000000006,-0.0019813399999999994,4.483,0,0
-0.007204748000000001,0.0002389168000000001,-0.0037584768,0.0017480394,0.0040290000000000005,4.484,0,0
-0.0052438400000000005,0.0029531267999999998,-0.004135324,0.0029116918000000004,0.004112954,4.485,0,0
-0.004393562000000001,0.0028650433999999995,-0.00451071,0.0018481098,0.002546416,4.486,0,0
-0.003890506,0.0037501313999999996,-0.0036182460000000003,0.0028217698000000003,0.00329596,4.487,0,0
-0.0005640999999999999,0.0037119864,-0.0030944040000000003,0.0020057820000000002,0.0013553260000000002,4.488,0,0
0.0032192780000000003,0.0017598497999999996,-0.004064838,-0.001935632,-0.003146028,4.489,0,0
0.004410122000000001,0.0005262158000000001,-0.004364288000000001,-0.004067872,-0.0037841280000000003,4.49,0,0
0.005471236,0.0015854094,-0.002169682,-0.003176412,-0.0017785119999999999,4.491,0,0
0.006754144,0.0019327614000000002,0.0003942560000000004,-0.0038443360000000003,-0.002818882,4.492,0,0
0.005766843200000001,0.0021063794000000004,0.0030977760000000004,-0.002096934,-9.040199999999963e-05,4.493,0,0
0.0032980712,0.0032167780000000004,0.007831502,0.0022287540000000003,0.004561612,4.494,0,0
0.0009224391999999999,0.000596028,0.010056378000000001,0.001194142,0.0011753520000000002,4.495,0,0
-0.0011593108,-0.0031725160000000002,0.0071615080000000005,-0.0013575280000000002,-0.0023068280000000004,4.496,0,0
-0.0023189568,-0.0039048319999999996,0.0028918879999999996,-0.0007094800000000001,-0.00038361600000000004,4.497,0,0
-0.0026527663999999997,-0.0043267919999999994,-0.0011894240000000001,-0.0016269986000000004,-0.0015873728000000004,4.498,0,0
-0.0029441783999999997,-0.005515678,-0.006062794000000001,-0.0047018766,-0.005000252800000001,4.499,0,0
-0.0026095084,-0.003088998,-0.009169364000000001,-0.0024641706,-0.0008445708000000001,4.5,0,0
-0.0012282004000000002,0.0008336240000000004,-0.008793912,0.0023210894,0.0041532692,4.501,0,0
-0.0002517044,0.0014482560000000002,-0.007866376,0.0029573034,0.0030331750000000004,4.502,0,0
-2.0119200000000022e-05,0.0019027827400000003,-0.007489651999999999,0.0028431339999999998,0.0030293476,4.503,0,0
0.0007780368,0.0027431227400000003,-0.004073552,0.0037299262,0.0040855136,4.504,0,0
0.0015161142,0.0010983207400000006,0.0030673560000000002,0.0019485621999999997,0.0009501716000000003,4.505,0,0
0.0012858832,-0.00127780526,0.008427790000000001,-0.0020446758,-0.0028017504,4.506,0,0
0.0012925272,-0.0008695052600000001,0.01120105,-0.0030223314,-0.0019528721999999999,4.507,0,0
0.0021889304,-0.0004524159999999999,0.013884758,-0.0026236308000000003,-0.0015231479999999998,4.508,0,0
0.0021591763999999998,-0.002059336,0.011690480000000001,-0.0035661410000000005,-0.0027315820000000006,4.509,0,0
0.001630883,-0.0003708880000000002,0.004563852,-0.0005401830000000001,0.001679518,4.51,0,0
0.0014536536,0.001466946,-0.00017014800000000028,0.002614731,0.0039028400000000007,4.511,0,0
-8.545040000000018e-05,-0.0014166020000000003,-0.003095996,1.9210599999999745e-05,-0.0011012479999999996,4.512,0,0
-0.0025139584000000003,-0.0027560100000000006,-0.005835688,-0.0013606620000000005,-0.002304949999999999,4.513,0,0
-0.0038489164,-0.001214348,-0.005800398,2.953800000000007e-05,-0.0005609639999999995,4.514,0,0
-0.0042205964,-0.0017750832000000003,-0.00379271,-0.0015426668,-0.003383398,4.515,0,0
-0.0053531659999999995,-0.0022206552000000003,-0.0018536779999999997,-0.0029918906,-0.004483565199999999,4.516,0,0
-0.0056265740000000005,0.0021298848,0.0012145619999999998,0.0010812134,0.0017514948000000002,4.517,0,0
-0.0040039042,0.005780216800000001,0.005262101999999999,0.0046076674,0.0048354968,4.518,0,0
-0.0021402322,0.0056977908000000015,0.007237426,0.0043726673999999995,0.0032000347999999994,4.519,0,0
-0.0006412602000000001,0.005648880400000001,0.007149643999999999,0.004750564200000001,0.0037636646,4.52,0,0
0.0007714778000000001,0.004313854400000001,0.006086752,0.004667769400000001,0.0032578097999999994,4.521,0,0
0.0022462578000000005,-0.00022894560000000057,0.003695428,0.0018277254,-0.0008904882000000003,4.522,0,0
0.003160284,-0.004693261600000001,0.0004645560000000003,-0.0006638822000000001,-0.0035357902,4.523,0,0
0.0043918920000000005,-0.0049831816,-0.001475098,-0.00017442020000000018,-0.0018023062000000003,4.524,0,0
0.005663108,-0.004450736,-0.002513548,-0.0006331358000000001,-0.0023888660000000003,4.525,0,0
0.005282851000000001,-0.0032563832000000003,-0.005170628,-0.0009376134000000001,-0.0019066240000000002,4.526,0,0
0.003634079000000001,0.0008166567999999999,-0.006065836,0.0025431866000000004,0.0035825139999999998,4.527,0,0
0.001624029,0.0021808267999999997,-0.004458438,0.0029794362000000003,0.0033658779999999997,4.528,0,0
-0.0013962470000000004,4.244799999999875e-06,-0.004506514,-0.0003794298,-0.001049562,4.529,0,0
-0.0041152110000000006,-0.0009411452000000003,-0.00490857,-0.0007864721999999998,-0.00018255199999999973,4.53,0,0
-0.0035846,-0.0009969548000000003,-0.0038931900000000004,-0.0007141374,-0.00012635519999999988,4.531,0,0
-0.0012225019999999999,-0.0023404248000000005,-0.0041452500000000005,-0.0034701814000000003,-0.0050411832,4.532,0,0
0.0014909399999999996,-0.00048342480000000015,-0.0068831560000000005,-0.0038340054000000003,-0.0043986666,4.533,0,0
0.004975396,0.0050364112,-0.008157032000000002,0.00023823259999999988,0.0018394134,4.534,0,0
0.006661546,0.0063008152000000005,-0.007400676000000001,0.0021025286000000004,0.0027933974,4.535,0,0
0.005477064,0.004071100000000001,-0.004786436000000001,0.0015245100000000002,0.0011893786,4.536,0,0
0.004001078,0.003076632,0.002360348,0.0018184100000000006,0.0024036906,4.537,0,0
0.0013899660000000003,-3.593000000000064e-05,0.010162908000000002,0.0008248120000000001,0.0012787360000000004,4.538,0,0
-0.002868048,-0.005770290000000001,0.013693158,-0.0022946800000000003,-0.003032602,4.539,0,0
-0.004776444,-0.006977718000000001,0.014282322,-0.0037670988000000002,-0.003607912,4.54,0,0
-0.004236851999999999,-0.004420728,0.012963008000000002,-0.0022978848,-0.0005510180000000001,4.541,0,0
-0.004090384,-0.003919942,0.007246822,-0.0026029968,-0.0010745440000000002,4.542,0,0
-0.0033799062000000003,-0.0010641219999999998,0.0005798799999999998,-0.0013371726,0.0009795900000000002,4.543,0,0
-0.0008420082000000002,0.004404118,-0.0007413820000000003,0.0029921014,0.005896768,4.544,0,0
0.0009869578,0.005522998,-0.0008211278000000003,0.0023406002,0.0028945280000000004,4.545,0,0
0.0010417614,0.004402388,-0.004256453800000001,-0.0008080098000000004,-0.000943724,4.546,0,0
0.0011028402,0.0054276160000000006,-0.0071476278,-8.154060000000051e-05,0.0002886740000000004,4.547,0,0
0.0011072154,0.0029465340000000007,-0.0085254458,-0.0004334468000000006,-0.0014335840000000001,4.548,0,0
0.00033130399999999993,-0.004752026,-0.012050333799999998,-0.0037945048000000005,-0.00552342,4.549,0,0
-0.000540955,-0.006868666,-0.01473302,-0.0021719468000000004,-0.0022237280000000003,4.55,0,0
-0.00046350540000000004,-0.003415126,-0.012557604000000002,0.0024979132,0.0028415920000000004,4.551,0,0
-0.0009881922,-0.0029186460000000004,-0.008193036,0.00303015,0.0024063414000000003,4.552,0,0
-0.0024173912,-0.0013032540000000002,-0.0006922359999999997,0.0027920840000000002,0.0024566694000000004,4.553,0,0
-0.0036242998,0.004063094,0.010006124000000002,0.0035094600000000003,0.0030907144000000006,4.554,0,0
-0.0047793488,0.00515689,0.016841524,0.0011385599999999998,-0.00018163759999999946,4.555,0,0
-0.004958726,0.0017936739999999999,0.0177912666,-0.00274966,-0.0043667136,4.556,0,0
-0.0036892820000000003,0.0002520580000000001,0.0152411686,-0.0033236138000000003,-0.0035029269999999994,4.557,0,0
-0.0010886079999999998,-0.0014744240000000002,0.008760818600000003,-0.0025758298000000002,-0.0021754469999999996,4.558,0,0
0.00152617,-0.004894532,-0.0011999413999999992,-0.0035032178000000006,-0.0029629439999999995,4.559,0,0
0.003944853999999999,-0.004058672,-0.0080795614,-0.0005665157999999999,0.002024236,4.56,0,0
0.005097184,-0.0015305580000000004,-0.0079690884,0.0035403842000000007,0.0058880320000000005,4.561,0,0
0.004395995600000001,-0.0012654702000000004,-0.006033040399999999,0.00170428,0.0018119200000000003,4.562,0,0
0.0036121075999999996,0.0019735278000000004,-0.004287334799999999,3.0134000000000237e-05,0.0004898960000000003,4.563,0,0
0.0026272815999999997,0.0079642878,-0.00021825479999999916,0.0009328318000000004,0.00202687,4.564,0,0
0.001497539,0.011086483800000001,0.0048932652,-0.0012718541999999998,-0.0014291619999999999,4.565,0,0
0.000987931,0.0126062058,0.007194153600000001,-0.0044264802,-0.0039693998000000005,4.566,0,0
0.0019893554,0.013885394000000002,0.0071984056,-0.0020262262,0.0008658262,4.567,0,0
0.0026840574000000002,0.008149996000000001,0.007414572,0.0010189258000000002,0.0036648222000000004,4.568,0,0
0.0016661034,-0.002410204,0.0059155924,0.0005440500000000001,0.0016888562000000004,4.569,0,0
-0.00039218399999999985,-0.010620683999999998,0.0016915203999999999,0.0007666120000000001,0.0015401302000000005,4.57,0,0
-0.0031295100000000003,-0.017018464,-0.0024633616,0.00095046,0.00069407,4.571,0,0
-0.006779902000000001,-0.02082734,-0.0046937436,-0.001547602,-0.002969716,4.572,0,0
-0.010521376,-0.018211736,-0.006303997600000001,-0.004066838,-0.004935669199999999,4.573,0,0
-0.012050758000000002,-0.0113044066,-0.0066685220000000005,-0.0028292100000000004,-0.0026421012,4.574,0,0
-0.010780784000000002,-0.0061728186,-0.004862770200000001,-0.0020043900000000004,-0.0023909812,4.575,0,0
-0.005812864000000001,-0.0009802786,-0.0039939462,-0.0019462239999999999,-0.0020419552,4.576,0,0
0.002079076,0.006695921400000001,-0.0023223542,0.0026288920000000003,0.0031856248,4.577,0,0
0.008955576,0.0111595774,0.0014032978,0.005087756000000001,0.003755252,4.578,0,0
0.012824276,0.010060844000000001,0.0026956958,0.002232660000000001,1.6304000000000405e-05,4.579,0,0
0.013767228000000001,0.007873188000000001,0.0025407560000000004,0.0018209352000000004,0.0010053440000000002,4.58,0,0
0.0109946004,0.004622876000000001,0.003970344000000001,0.0026049012000000007,0.002123346,4.581,0,0
0.005518742399999999,-0.0009399380000000003,0.0036928880000000005,-0.0003664015999999997,-0.001848364,4.582,0,0
0.0007810243999999998,-0.0037989700000000005,0.00046767999999999994,-0.0015775855999999998,-0.002269626,4.583,0,0
-0.0012309116,-0.0010806599999999998,-3.260600000000013e-05,0.0024053724000000004,0.0027203339999999996,4.584,0,0
-0.0016290388,0.00209606,0.001220192,0.0042958552,0.0032646399999999996,4.585,0,0
-0.0012124311999999998,0.0036684840000000005,-0.0004359040000000002,0.0030347472,0.0010599479999999998,4.586,0,0
-0.00015924720000000002,0.0041544688,-0.0025917080000000007,0.002801008,0.0011873699999999999,4.587,0,0
-0.00011921719999999998,0.0021832488,-0.003792836000000001,0.0018171799999999994,-0.00027985800000000045,4.588,0,0
-0.0015532372000000001,-0.0005376651999999997,-0.007299024000000001,-0.0015015580000000003,-0.0042518700000000005,4.589,0,0
-0.0028457620000000004,-0.001962025,-0.011933062000000001,-0.003656914,-0.004895178000000001,4.59,0,0
-0.0035783460000000005,-0.0026486748,-0.013483756000000001,-0.00226846,-0.0022712360000000003,4.591,0,0
-0.004895224000000001,-0.0044281756000000005,-0.013431736000000001,-0.0024345459999999997,-0.002891266,4.592,0,0
-0.0042608792000000005,-0.0029084532,-0.01215942,-0.0016810428,-0.00076347,4.593,0,0
-0.0001478031999999998,0.0013779948,-0.007499240000000001,0.0025772931999999997,0.004693582,4.594,0,0
0.0028052508000000007,0.0013332122,-0.0027491780000000006,0.0026128571999999997,0.002603284,4.595,0,0
0.0025091768000000004,7.559799999999985e-05,0.00046757400000000033,5.277199999999781e-06,-0.0010545160000000001,4.596,0,0
