bandpass 1,bandpass 2,bandpass 3,bandpass 4,bandpass 5,time,onset,mark
0.00024236440000000004,-0.0015948020000000002,-0.0009227908600000001,0.001694062,0.00400858,3.032,1,1
5.289780000000005e-05,-0.0014024640000000002,-0.00149663886,0.0013004080000000003,0.0025543600000000003,3.033,0,0
-0.00036269019999999994,-0.0012327342000000002,-0.0019022268600000002,0.001616616,0.0030533240000000005,3.034,0,0
-0.0008077621999999999,0.00020499980000000004,-0.0010370988600000002,0.0017882206,0.0019845800000000005,3.035,0,0
-0.0022558205999999997,-0.00043391419999999994,-0.00068113886,-0.0002977174000000001,-0.0031194,3.036,0,0
-0.0043382346,-0.0022614682,-0.0010514580000000001,-0.0017004534000000001,-0.00449162428,3.037,0,0
-0.004748792000000001,-0.0026598042,-9.28040000000001e-05,-0.0013975342,-0.0020561782800000003,3.038,0,0
-0.00473948,-0.00366907,0.00033066088,-0.0023892582,-0.0031780802800000004,3.039,0,0
-0.0036404640000000004,-0.002628732,-0.0009175091200000001,-0.0020741360000000003,0.00057725772,3.04,0,0
0.00013800199999999992,0.0015868439999999998,-4.2207120000000006e-05,0.0005621020000000003,0.0077720577199999995,3.041,0,0
0.0034366220000000003,0.0032858979999999998,0.00131721088,0.0004411240000000001,0.004817328,3.042,0,0
0.004484925999999999,0.0026771819999999997,0.00033713487999999985,-0.0008495751999999997,0.0008532219999999998,3.043,0,0
0.0050138464,0.0027510859999999994,0.0009109319999999999,-0.00017531519999999947,0.002078428,3.044,0,0
0.004767063,0.0014024319999999992,0.002789876,-0.0006399999999999998,-0.0014162500000000004,3.045,0,0
0.0025007227800000003,-0.0021652,0.00214539196,-0.0029747999999999997,-0.007600964000000001,3.046,0,0
0.0010733507800000002,-0.00269126,0.00047933396000000004,-0.002362144,-0.0033362540000000003,3.047,0,0
0.00135658878,-0.00034166800000000027,0.0007665839600000002,0.00048642,0.003809326,3.048,0,0
0.00134979598,0.0013693459999999998,0.00043521396000000006,0.0010721760000000002,0.00401039,3.049,0,0
0.00159367138,0.00390187,-0.00103385804,0.0011134180000000001,0.004806462000000001,3.05,0,0
0.0015929710599999999,0.00591116,-0.000612508,0.0022439400000000003,0.006704418,3.051,0,0
-0.0002177229400000002,0.004382820000000001,0.00012612459999999996,0.0019544840000000003,0.003657576,3.052,0,0
-0.0022991869400000005,0.0014394899999999999,-0.0002176994000000001,0.00034763179999999994,-0.0015733520000000003,3.053,0,0
-0.00369181854,-0.0006541779999999998,-0.0006072156000000001,0.0004209897999999999,-0.0009781820000000002,3.054,0,0
-0.00499053054,-0.003289366,1.6168399999999918e-05,0.0012227978,-6.268200000000021e-05,3.055,0,0
-0.005287958000000001,-0.005280462,-0.0006675036,0.0006070195999999999,-0.001873534,3.056,0,0
-0.002886336000000001,-0.002383718,-0.0015673882000000004,0.0022756276,0.003958278000000001,3.057,0,0
0.0009096299999999998,0.0014783340000000004,0.00020974380000000003,0.004305383800000001,0.008165146000000002,3.058,0,0
0.003452338,0.0026049196,0.0009446780000000001,0.0022843398,0.002325964,3.059,0,0
0.0050819640000000004,0.0041358616,-5.420399999999997e-05,0.0006152578000000002,0.0003909079999999999,3.06,0,0
0.005595832,0.0043627496,0.00058141,0.0008391192000000002,0.001982892,3.061,0,0
0.0034158260000000003,0.0006690476000000001,0.0020225780000000006,-0.0010265387999999999,-0.003604884,3.062,0,0
-2.0745999999999655e-05,-0.0031048464000000002,0.00116141,-0.0034050968,-0.007502486000000001,3.063,0,0
-0.0013115790000000002,-0.00247099,0.00011733199999999994,-0.0014212028000000002,-0.0007707260000000002,3.064,0,0
-0.0020430646,-0.0018979980000000001,0.0004973060000000001,0.0009809891999999999,0.0035941159999999996,3.065,0,0
-0.0036054686,-0.002081066,-0.00036195399999999994,0.0007714276000000001,0.002178018,3.066,0,0
-0.0028385246000000005,0.000654494,-0.0013198720000000001,0.0009936915999999999,0.0029501500000000003,3.067,0,0
-0.0009082446000000003,0.0026328820000000005,-0.0008205799999999999,0.0013338637999999999,0.0025696840000000005,3.068,0,0
-0.0007126718000000003,0.0017607780000000004,-0.0005586222000000001,-5.472220000000017e-05,-0.002144096,3.069,0,0
-0.0003119182000000002,0.0008745244000000002,-0.0010585142,-0.0018579742000000002,-0.005676016,3.07,0,0
0.0017644118,0.0026715284000000004,-0.0008297561999999999,-0.0014036878,-0.003480884,3.071,0,0
0.0025499638,0.0035094444000000006,4.8797800000000056e-05,-0.001043901,-0.0035395260000000003,3.072,0,0
0.0010049818000000001,0.0031431224,-0.0010157402,-0.0009074492000000001,-0.002995064,3.073,0,0
0.00034321199999999986,0.0044725044000000005,-0.001288318,0.0016917588,0.004567876,3.074,0,0
-4.289700000000029e-05,0.0037073220000000007,0.0009344679999999999,0.0026326868000000002,0.0050741298,3.075,0,0
-0.0016410330000000003,-0.00037772399999999986,0.0013721834,0.00037453079999999993,-0.0014165581999999993,3.076,0,0
-0.0026015310000000002,-0.003598116,0.0005869473999999999,-0.0006718200000000001,-0.0013901661999999992,3.077,0,0
-0.0028900390000000005,-0.0053978,0.0015186914,-0.001364452,-0.0017033461999999993,3.078,0,0
-0.003288941,-0.00785714,0.0017269313999999998,-0.00421512,-0.0086207742,3.079,0,0
-0.0026466659999999998,-0.0070363054,-0.0007970206,-0.005161616000000001,-0.008619008400000001,3.08,0,0
-2.1264000000000005e-05,-0.0021295054,-0.0018438520000000002,-0.00221678,-0.0003292884000000002,3.081,0,0
0.0016010220000000001,0.0005163466000000006,-0.0015668762,-0.00025560999999999987,0.0019561216,3.082,0,0
0.001488672,0.00039628860000000005,-0.0025032702,1.1412000000000032e-05,0.0008931116000000005,3.083,0,0
0.0014633240000000002,0.00028689060000000035,-0.0025634062,0.000826404,0.0024395936000000005,3.084,0,0
0.0003557380000000001,-0.001214304,-0.0012561508000000002,0.0007649600000000002,0.0006555560000000007,3.085,0,0
-0.002335502,-0.004651642,-0.0008023627999999999,-0.000700684,-0.0045769439999999995,3.086,0,0
-0.003962922,-0.006212078000000001,-0.0012032666,-0.0015059168000000002,-0.005658752,3.087,0,0
-0.00248363,-0.004108396000000001,2.545400000000201e-06,-0.0006683387999999998,-0.002654336,3.088,0,0
-0.0013358460000000001,-0.002903772,0.0006458334000000001,-0.0007646148000000001,-0.0038622699999999997,3.089,0,0
-0.0008820162000000001,-0.001392296,-0.00059829,-6.106799999999995e-05,-0.0005932480000000002,3.09,0,0
0.0022573518,0.0028479220000000006,0.000647278,0.00260621,0.007014112000000001,3.091,0,0
0.0046692918,0.0043121520000000005,0.0030418380000000003,0.0023524844000000003,0.004144384000000001,3.092,0,0
0.0037904838,0.0035331220000000005,0.00240303,0.0005439723999999997,-0.00013549599999999927,3.093,0,0
0.0036645528,0.0046382360000000004,0.0021536866,0.0007290077999999999,0.001757588000000001,3.094,0,0
0.0039529076000000005,0.0044661446,0.0037409626000000002,0.00021401299999999999,-0.0008428559999999995,3.095,0,0
0.0014579716,0.0014352508000000002,0.0026656546,-0.002224753,-0.006972848,3.096,0,0
-0.00026301840000000004,0.0015043308000000002,-0.0001972114,-0.0017443746000000001,-0.0029157540000000004,3.097,0,0
0.0012441136,0.0037074648,-0.0005253352000000001,0.0011246954,0.004466306,3.098,0,0
0.0017919686,0.0030457186000000004,-0.0002938018000000001,0.0019392300000000001,0.004547987999999999,3.099,0,0
0.0008825080000000002,0.00212547,-0.0012906838,0.002074854,0.004566514,3.1,0,0
0.0006373900000000002,0.0018064218000000006,-0.0007445478,0.0022461748,0.0054118154,3.101,0,0
-0.00030727999999999984,-0.0006706302000000001,0.0007362262000000003,0.0006743987999999999,0.001332141399999999,3.102,0,0
-0.00229175,-0.0040145682,0.0006878728000000002,-0.0019636812,-0.0041004806,3.103,0,0
-0.0033445539999999996,-0.004515256,0.0004785068000000002,-0.0027589284,-0.0032934806000000007,3.104,0,0
-0.002543532,-0.0035685476000000002,0.0017556888000000003,-0.00249388024,-0.0015183986000000004,3.105,0,0
-0.00248713,-0.0037362796000000005,0.0014456648000000002,-0.0032588070399999997,-0.0029221160000000006,3.106,0,0
-0.001460758,-0.0012666536,-7.449319999999987e-05,-0.0011304830400000005,0.002961624,3.107,0,0
0.0014616679999999997,0.0020540884,0.0011200440000000002,0.00233857096,0.008410246,3.108,0,0
0.0017373964,0.0011309004,0.0016055360000000003,0.0019702861599999997,0.0034489199999999994,3.109,0,0
0.0006836043999999997,0.00013995200000000005,-0.0005972099999999998,0.0013887239999999996,0.0012312379999999993,3.11,0,0
0.0010334967999999997,0.0007609244000000002,-0.0006781175999999999,0.002627698,0.0031438959999999998,3.111,0,0
0.0003016047999999998,-0.0010977476,0.0003339658000000002,0.001488921,-0.0016711100000000004,3.112,0,0
-0.0020268892,-0.0032954576,-0.0015697462,-0.001200399,-0.006740142,3.113,0,0
-0.0014057936,-0.0007430256,-0.0029435282,-9.503000000000116e-06,-0.0009025420000000005,3.114,0,0
0.0005483724000000001,0.0021728144,-0.0012689202,0.002212079,0.0039023919999999993,3.115,0,0
0.0006681260000000001,0.0022131734000000003,-0.0009353146000000001,0.0017432754,0.001973552,3.116,0,0
0.0010148154000000002,0.0031399254,-0.0017404300000000003,0.0014953303999999997,0.002394402,3.117,0,0
0.0014255182000000003,0.0036256432,-0.0004993040000000001,0.0017824208,0.002699998,3.118,0,0
0.00042698219999999997,0.0013479271999999997,0.000345495,8.770679999999984e-05,-0.001807542,3.119,0,0
-0.0009984298000000002,-0.0005468692,-0.000460985,-0.0020028492,-0.00567004,3.12,0,0
-0.0007140458,-3.538860000000012e-05,-0.000377557,-0.0013176196000000001,-0.003089314,3.121,0,0
-0.00028914120000000004,-0.0005366106000000001,0.000218118,-0.0007735206000000001,-0.0026052299999999996,3.122,0,0
-0.0013027260000000004,-0.0007887360000000002,-0.00215384,-0.001073285,-0.002678588,3.123,0,0
-0.0012367600000000002,0.0021969700000000003,-0.004134213,0.001547591,0.0046828320000000005,3.124,0,0
-0.00107726,0.0029243704,-0.0038492890000000005,0.0033209890000000003,0.006393326,3.125,0,0
-0.0029627880000000005,0.0005260283999999999,-0.005472499000000001,0.0015136110000000002,0.0007318100000000003,3.126,0,0
-0.0032730642000000005,0.0005221404000000001,-0.006508048000000001,0.0009382460000000001,0.0008866519999999997,3.127,0,0
-0.0015592042000000005,0.00033997000000000004,-0.003813304000000001,0.0011215220000000002,0.0010520219999999997,3.128,0,0
-0.0015098122000000002,-0.0038950240000000004,-9.120999999999999e-05,-0.00141826,-0.005725868000000001,3.129,0,0
-0.0014502062000000004,-0.006610256,0.0031987580000000003,-0.0033715240000000003,-0.006936313000000001,3.13,0,0
0.0010051538,-0.004490986,0.007168102000000001,-0.0016238219999999998,0.0008039269999999994,3.131,0,0
0.002691758,-0.0030617999999999995,0.009329844,-0.0004334699999999998,0.003293837,3.132,0,0
0.002965218,-0.0027371754000000007,0.008287698,-0.00095769,0.0016247410000000003,3.133,0,0
0.0038689900000000005,-0.00047374315999999995,0.006096966000000001,-0.00024491779999999993,0.002943611000000001,3.134,0,0
0.0040656504,0.0013289508400000003,0.002736206,0.00022673120000000005,0.001578784000000001,3.135,0,0
0.0028319904000000005,0.0016888208400000003,-0.0011278300000000002,-0.0013315987999999999,-0.003875496,3.136,0,0
0.0010647602,0.0026879988399999997,-0.0036618120000000004,-0.0023465348000000002,-0.0057395499999999995,3.137,0,0
0.00015488959999999997,0.00407714824,-0.0038906900000000005,-0.0012714407999999998,-0.0027695260000000005,3.138,0,0
-6.560399999999992e-06,0.0039278564,-0.0029959520000000005,-0.001715397,-0.003929634,3.139,0,0
0.0002050798,0.0047993464,-0.0031752420000000004,-0.0015665539999999997,-0.0014659940000000004,3.14,0,0
0.0009854158,0.0064620504,-0.002574326,0.0016335440000000002,0.006930226,3.141,0,0
0.00052014,0.0039754024,-0.001479268,0.0022996040000000002,0.005663348,3.142,0,0
-0.0011291574000000001,-0.0005310036000000006,-0.0028728160000000003,0.00067785,0.0014984839999999996,3.143,0,0
-0.0016022268000000003,-0.0028952040000000006,-0.0047745240000000005,0.0012476836,0.003621224,3.144,0,0
-0.0012388274000000002,-0.004827350000000001,-0.002926762,0.0011464384000000002,0.0014159339999999998,3.145,0,0
-0.0015563916000000003,-0.007780682000000001,0.0017649580000000005,-0.0016839736000000003,-0.006325318000000001,3.146,0,0
-0.0011224746000000002,-0.006549681999999999,0.005319936000000001,-0.0020265802,-0.004735292,3.147,0,0
0.0007232473999999999,0.000365078,0.008576706,0.0006541578000000001,0.0021889279999999997,3.148,0,0
0.0011600968,0.004884438,0.010970304,0.0013791382,0.0020994819999999997,3.149,0,0
-0.0003986292,0.0042165399999999995,0.009423535799999999,0.0008212954,0.0013787399999999998,3.15,0,0
-0.0014412230000000002,0.0019611920000000005,0.005074557800000001,0.0013749632,0.002459584,3.151,0,0
-0.0019819580000000002,-0.00213522,0.0015607538,0.0008155958000000002,-0.00034309000000000054,3.152,0,0
-0.0032312900000000004,-0.007889050000000002,-0.0005440262,-0.0012207382000000001,-0.005028660000000001,3.153,0,0
-0.003949386000000001,-0.010220518000000001,-0.0017170734000000003,-0.0017344724,-0.004671562,3.154,0,0
-0.0029569374000000003,-0.007985412,-0.0011215692,-0.0008194964,-0.0024153079999999997,3.155,0,0
-0.0017979736000000002,-0.004773976,-0.0013562272000000003,-0.0013017001999999999,-0.003616788,3.156,0,0
0.0003023584000000001,0.00041871599999999953,-0.0025417132,-0.00038567220000000006,0.0013532119999999997,3.157,0,0
0.0032311524000000003,0.004800686,-0.0015343292,0.0022982218,0.007100382,3.158,0,0
0.0042206464,0.0044932060000000005,-0.0007399959999999998,0.0015768039999999998,0.0031170579999999994,3.159,0,0
0.0050934558000000005,0.0043473468000000005,-0.001843076,2.3115999999999675e-05,0.0008864919999999989,3.16,0,0
0.005813644000000001,0.0054241488000000004,-0.0013214735999999999,0.00035875999999999963,0.0025424033999999996,3.161,0,0
0.0039090520000000005,0.0036090002000000003,0.00015563440000000012,-0.0009044900000000002,-0.0019911226000000008,3.162,0,0
0.0014604400000000003,0.0010953634,-0.0010521976,-0.0036104620000000005,-0.0073918826,3.163,0,0
0.0012177820000000004,0.0023143154,-0.0030990196,-0.0025094939999999997,-0.0018530025999999996,3.164,0,0
0.0013353100000000001,0.0031091786,-0.0028855316,0.00047477,0.0038843174000000005,3.165,0,0
0.00028187800000000005,0.0014180886,-0.0026583279999999997,0.0008029038,0.0029222320000000003,3.166,0,0
-0.0002504599999999999,0.0007364811999999998,-0.0029790759999999998,0.0008770277999999999,0.003461006,3.167,0,0
-0.0004779039999999999,0.0001116419999999998,-0.0017789059999999998,0.0014515397999999996,0.0038658300000000002,3.168,0,0
-0.0021127200000000002,-0.0018277800000000002,-0.000629452,0.0006075058,-0.00020824199999999998,3.169,0,0
-0.004453792,-0.003312518,-0.0011504380000000002,-0.0010731067,-0.004446304,3.17,0,0
-0.0053767220000000004,-0.0029693024,-0.001657744,-0.0008389585,-0.002588514,3.171,0,0
-0.006002356,-0.0033318364,-0.0007595760000000001,7.343009999999996e-05,-0.0020838840000000003,3.172,0,0
-0.0072219860000000006,-0.0035448424000000004,-0.0014815660000000001,-0.0003082399,-0.0027632080000000005,3.173,0,0
-0.005351132,-0.00016964440000000061,-0.002328572,0.0012454201000000002,0.003839104,3.174,0,0
-0.001432648,0.0028167235999999995,-0.0005585439999999999,0.0028726346,0.006435886,3.175,0,0
0.0006938680000000005,0.003455878,0.0004475140000000003,0.0016027646000000002,0.0014807179999999998,3.176,0,0
0.0032764860000000003,0.006268572,0.0006629180000000004,0.00104163,0.0012713,3.177,0,0
0.006311698000000001,0.008554728000000001,0.0022493360000000002,0.0014085106,0.0015944979999999997,3.178,0,0
0.005549943400000001,0.0046594919999999995,0.0033597780000000003,-0.0007937194000000002,-0.005153332,3.179,0,0
0.0021466613999999995,6.159200000000007e-05,0.002032542,-0.0030285114,-0.0074513324,3.18,0,0
0.0009948763999999997,-0.0006082533999999999,0.000821984,-0.0012466973999999999,-0.0003891923999999997,3.181,0,0
0.0009510443999999999,-0.0022909353999999997,0.00042152399999999994,0.00020824859999999995,0.0026449676000000004,3.182,0,0
0.0004224204,-0.0042625394,-0.0006158960000000001,-6.948399999999997e-05,0.0012365096000000004,3.183,0,0
0.001836285,-0.0024126034,-0.0007751172,0.000923294,0.0021488376000000004,3.184,0,0
0.0039636110000000006,-0.0005948214000000001,0.00035339680000000007,0.0012436340000000002,0.0010273440000000001,3.185,0,0
0.004085118800000001,-0.0014844480000000002,0.0008030457400000001,-0.00034388,-0.003433956,3.186,0,0
0.0030793340000000004,-0.002063894,0.00038286994,-0.0011433940000000003,-0.004689772,3.187,0,0
0.0022136486000000006,-0.0016776258,0.0009992879400000001,-6.745199999999996e-05,-0.0008640779999999999,3.188,0,0
9.529060000000003e-05,-0.0026263238,0.0016501211400000004,-0.00024891240000000003,-0.0009717300000000001,3.189,0,0
-0.0019183614,-0.0018262338,0.00017047113999999982,1.0546800000000016e-05,0.00037774080000000027,3.19,0,0
-0.0016753882000000002,0.0019612602,-0.00010036179999999988,0.0025414628000000002,0.0071603408,3.191,0,0
-0.0022965794,0.0021693462,0.00131835,0.0025685488,0.0053353388,3.192,0,0
-0.004375056,-0.0002636119999999999,0.0005503282,0.00048671080000000006,-0.0001864152000000006,3.193,0,0
-0.004848482,-0.00029247799999999966,-0.00023045579999999996,0.00041258720000000013,0.0009492359999999996,3.194,0,0
-0.004823932,-0.0013144379999999998,0.0010356722000000001,0.00023373000000000035,-0.00044919280000000066,3.195,0,0
-0.005957872,-0.004704234,0.0008053942,-0.00206209,-0.007396020800000001,3.196,0,0
-0.005614236000000001,-0.004351894,-0.0020013558,-0.0022594375999999998,-0.0058702228,3.197,0,0
-0.0018893840000000005,-0.00027394799999999977,-0.003013262,0.0003745384,0.0017201972000000002,3.198,0,0
0.001954132,0.0016769020000000003,-0.0028990344,0.0011635904,0.002221912,3.199,0,0
0.004204908,0.0026637880000000003,-0.0042586664,0.0006591844000000001,0.0010075039999999998,3.2,0,0
0.006407372000000001,0.004646342,-0.0045517044,0.0008881344000000001,0.002065514,3.201,0,0
0.007464012,0.005141708000000001,-0.0029585688000000002,-0.00011803000000000009,-0.0005641460000000006,3.202,0,0
0.005608378000000001,0.0034981082,-0.0020290894,-0.0023868640000000003,-0.00563558,3.203,0,0
0.0024087140000000006,0.0022213202000000002,-0.0015072509999999998,-0.0030598506,-0.00521398,3.204,0,0
0.00018979600000000032,0.0014464742,0.0016657070000000002,-0.0023081086000000003,-0.001970294,3.205,0,0
-0.00209487,-0.00046145180000000004,0.004188055,-0.0030927046,-0.0029227240000000002,3.206,0,0
-0.0027841934,0.0007227942,0.0038371674000000004,-0.0019365406000000003,0.0017975959999999998,3.207,0,0
-0.0012981334,0.002935208,0.005159124000000001,0.0012054754,0.00858423,3.208,0,0
-0.0008919354000000003,0.0016245600000000002,0.00671012,0.0009173079999999999,0.005074818,3.209,0,0
-0.0009680734,0.00038780399999999984,0.004345108000000001,0.00010648199999999997,0.0022405319999999995,3.21,0,0
-0.0005482014000000001,-0.0009733260000000005,0.0018773780000000003,0.001590902,0.0039980580000000005,3.211,0,0
-0.0014433460000000003,-0.005413392,0.0015957980000000003,0.00136899,-0.000329462,3.212,0,0
-0.00363545,-0.009158394,-0.0002255819999999999,-0.0011206100000000002,-0.006542864000000001,3.213,0,0
-0.0034693650000000003,-0.0072809500000000004,-0.0031458479999999997,-0.00023587800000000002,-0.001966124,3.214,0,0
-0.0013846970000000003,-0.003937892,-0.003298442,0.0021825539999999997,0.0037846560000000004,3.215,0,0
-0.0006955126000000001,-0.001803594,-0.002229312,0.001861108,0.00272761,3.216,0,0
-0.0011059286,0.0008481024000000001,-0.0017843563999999999,0.0014480019999999999,0.0028843640000000004,3.217,0,0
-0.0020218026,0.0023050824,-4.146040000000003e-05,0.0018669028,0.0030389980000000007,3.218,0,0
-0.0043163016,0.0004339744000000001,0.0016918656,0.0006789968,-0.0011939020000000002,3.219,0,0
-0.006690517600000001,-0.0031580116,0.0017578436,-0.0011696588000000001,-0.00550305,3.22,0,0
-0.005547008,-0.0042886616,0.0017207096000000002,-0.00038492880000000015,-0.003743154,3.221,0,0
-0.0009846919999999997,-0.0031455359999999996,0.0023772380000000003,0.0003972272,-0.00253512,3.222,0,0
0.004251908,-0.00028779400000000007,0.000640546,-0.00022558760000000012,-0.003155058,3.223,0,0
0.009759368000000001,0.005289820000000001,-0.0012544160000000002,0.0020009764,0.0031943020000000004,3.224,0,0
0.012627880000000001,0.009205832,9.732799999999993e-05,0.004194734,0.0065207500000000005,3.225,0,0
0.010069680000000001,0.009659648000000002,0.00017276599999999998,0.0024219720000000005,0.0015375220000000008,3.226,0,0
0.005214847999999999,0.008537459200000002,-0.0011716820000000003,0.0016845280000000002,0.0010097760000000006,3.227,0,0
0.001583292,0.0046939932,-5.032800000000009e-05,0.0025167220000000003,0.0021539972000000004,3.228,0,0
-0.0014005366000000002,-0.0012158487999999997,0.0013169036000000001,0.00034810400000000034,-0.0036549948000000002,3.229,0,0
-0.003115303940000001,-0.0048258368,-0.00020889839999999998,-0.001891658,-0.006230084800000001,3.23,0,0
-0.0013816799400000002,-0.0049931687999999995,-0.0011342504,-0.000190154,0.0009417151999999997,3.231,0,0
0.00065084006,-0.005154702,-0.00034709699999999993,0.001096708,0.004469493200000001,3.232,0,0
0.00106884206,-0.004536541999999999,-0.0008694610000000001,8.945800000000005e-05,0.0025451180000000007,3.233,0,0
0.0015790266599999998,-0.0024215912,-0.0017494466000000002,-0.0003264199999999998,0.0030339800000000004,3.234,0,0
0.00193386,-0.0012114592000000003,-0.0017426866,-0.001100668,0.0018132080000000013,3.235,0,0
0.0007702519999999999,-0.0012534352000000003,-0.0024951966,-0.003096702,-0.0031765659999999996,3.236,0,0
-0.0003297600000000001,-0.0008025212000000003,-0.00414192,-0.004360878,-0.005455818,3.237,0,0
-0.0005430180000000001,0.0008280887999999999,-0.004446498000000001,-0.003374422,-0.0021487940000000003,3.238,0,0
-0.0018705120000000002,0.0007192915999999999,-0.0029683100000000005,-0.002641236,-0.002122848,3.239,0,0
-0.0029347419999999997,0.0007491115999999998,-0.0020659120000000005,-0.0018957220000000003,-0.0008249999999999999,3.24,0,0
-0.0021406138000000003,0.0038273336,-0.00022050400000000006,0.0009359980000000002,0.006797834000000001,3.241,0,0
-0.0021197658,0.0048195976,0.003052816,0.0019423940000000003,0.006496877200000001,3.242,0,0
-0.0035878498,0.0027804636,0.0034901212,0.000500372,0.0012531931999999997,3.243,0,0
-0.004213101800000001,0.0024493320000000002,0.0025243606000000004,0.00040814599999999975,0.0019320231999999998,3.244,0,0
-0.004880025800000001,0.0017062460000000005,0.0028146526,0.00012550599999999984,0.00030177520000000007,3.245,0,0
-0.00591042,-0.001593646,0.0025027966,-0.002478894,-0.007310396800000001,3.246,0,0
-0.005265544400000001,-0.002246198,0.0008420346000000001,-0.00340986,-0.007000202000000001,3.247,0,0
-0.0024069884000000007,0.00011514599999999956,0.0010454794,-0.001369178,0.0005031379999999993,3.248,0,0
0.0010529616000000002,0.000834288,0.002220216,-0.00022941399999999994,0.0018344599999999996,3.249,0,0
0.0040688336,0.00142024,0.0015667300000000003,-2.8673999999999855e-05,0.0010176419999999996,3.25,0,0
0.005691557600000001,0.0018956020000000001,0.0010607360000000003,0.0005015200000000002,0.00232776,3.251,0,0
0.004936146000000001,-0.0006808420000000001,0.0010164704000000004,-0.00010063399999999973,0.00011255799999999937,3.252,0,0
0.0026309600000000008,-0.004578736,4.046840000000024e-05,-0.001683962,-0.004872516,3.253,0,0
-0.00023127399999999985,-0.006380907999999999,-0.0015983156,-0.002125916,-0.00517844,3.254,0,0
-0.0019015254,-0.005650692,-0.0019591496,-0.001049858,-0.0019765960000000006,3.255,0,0
-0.0024101494,-0.005466461800000001,-0.0022477036000000004,-0.000862514,-0.0032464599999999996,3.256,0,0
-0.0009895394,-0.0029940498,-0.00391664,0.00035484800000000006,-0.0003114039999999997,3.257,0,0
0.0028644066,0.0027559502000000006,-0.003486462,0.0033145300000000004,0.006015990000000001,3.258,0,0
0.0047593546,0.0045933322,-0.001915332,0.0031155480000000005,0.002641906000000001,3.259,0,0
0.0037412439999999995,0.0034980142000000003,-0.002212254,0.001406522,-0.0008686179999999998,3.26,0,0
0.003321868,0.0041115660000000005,-0.0015998774000000001,0.001600177,0.001573736000000001,3.261,0,0
0.002381804,0.0026628180000000004,0.0005215066,0.0006782730000000001,-0.001182252,3.262,0,0
-0.0009779100000000002,-0.001956986,0.00031155859999999996,-0.0021758050000000003,-0.007236328,3.263,0,0
-0.002301114000000001,-0.00242946074,-0.0006696374000000001,-0.0021356936000000003,-0.002641264,3.264,0,0
-0.0004181880000000001,-0.00028982674000000005,0.0016898466000000003,-2.681759999999993e-05,0.004114596,3.265,0,0
0.00024727600000000005,-0.0002911127399999999,0.0036332760000000004,0.00023878140000000009,0.003063378,3.266,0,0
0.00030792080000000005,0.00176786926,0.0034374340000000005,0.0002974494000000001,0.0028311079999999997,3.267,0,0
0.0014356528000000002,0.005080711260000001,0.004299354,0.0008334032000000001,0.0036348159999999995,3.268,0,0
0.0019482108,0.006047862,0.004552078,0.0001933318000000001,5.029999999999922e-05,3.269,0,0
0.0016535028000000001,0.0060284200000000005,0.0023019779999999997,-0.0011608541999999999,-0.004493538,3.27,0,0
0.0018628308,0.006675640000000001,0.0004607596,-0.0009016461999999999,-0.0029655019999999996,3.271,0,0
0.0024785540000000004,0.005666518000000001,0.0009770936,0.0001934298,-0.0011916378,3.272,0,0
0.0011106900000000003,0.0018351960000000005,0.00025983559999999997,0.00019861600000000004,-0.0020391098,3.273,0,0
-0.0004408139999999999,-0.0008222099999999997,-0.0008834404,0.00211498,0.0040968822000000005,3.274,0,0
-0.0013671859999999998,-0.00364161,0.00035501559999999996,0.0044270939999999995,0.0082866002,3.275,0,0
-0.004538706,-0.008366796,0.0003506500000000001,0.0033009080000000004,0.003245126200000002,3.276,0,0
-0.007712468000000001,-0.010791682,-0.001276128,0.002021824,0.001552500000000001,3.277,0,0
-0.008036664,-0.009736228000000001,-0.001148226,0.0017962720000000002,0.001980720000000001,3.278,0,0
-0.007440818000000001,-0.008853048,-0.000479652,-0.000529876,-0.0047457,3.279,0,0
-0.007200726400000001,-0.0074326866,-0.0016130880000000002,-0.0031161680000000003,-0.009058621999999999,3.28,0,0
-0.0032100844000000003,-0.0020304166000000004,-0.00201668,-0.001643042,-0.002026701999999999,3.281,0,0
0.0025813156,0.0024491834,-0.0009832390000000001,0.0002723280000000002,0.002947178,3.282,0,0
0.005677129600000001,0.0030531894,-0.001182543,0.00019366200000000026,0.0018418960000000002,3.283,0,0
0.0075504936,0.0031659254,-0.001914173,0.0006133620000000003,0.0026932960000000004,3.284,0,0
0.008272306,0.002957798000000001,-0.001799239,0.0006792700000000003,0.002115912,3.285,0,0
0.006507066,0.00044093400000000025,-0.001934931,-0.001070822,-0.0027390920000000003,3.286,0,0
0.002988022,-0.0019509780000000001,-0.002813062,-0.002557202,-0.00576314,3.287,0,0
0.0005831840000000002,-0.0007591060000000001,-0.0017387700000000002,-0.0016918200000000001,-0.0025530720000000004,3.288,0,0
-0.001103646,0.00027661799999999996,0.0011455699999999998,-0.0015301639999999999,-0.0020897180000000004,3.289,0,0
-0.002673196,0.000922476,0.00132191,-0.0015933039999999998,-0.00149825,3.29,0,0
-0.002389159334,0.00406817,0.001270338,0.0010180300000000003,0.0060952540000000005,3.291,0,0
-0.001711427334,0.005183888,0.003172276,0.0022253160000000006,0.006977082000000001,3.292,0,0
-0.0025407673339999997,0.0035735980000000003,0.002304654,0.0007733560000000002,0.001777136,3.293,0,0
-0.0032083473340000002,0.003505356000000001,0.00013340400000000005,0.0009080480000000002,0.0027474058000000008,3.294,0,0
-0.002146388934,0.002967369800000001,0.0005694800000000001,0.0011029140000000004,0.0023871118000000006,3.295,0,0
-0.0012413936000000001,-4.505019999999989e-05,0.0008669481999999999,-0.001354232,-0.0052491442,3.296,0,0
-0.0006603156,-0.0012512938000000002,-0.0007113698,-0.002503022,-0.0057725962,3.297,0,0
0.0016049644,0.00017227219999999986,-0.000642315,-0.000503042,0.0020500837999999997,3.298,0,0
0.0034548344,-0.0001131478000000001,0.000763683,0.0005551500000000002,0.003488316,3.299,0,0
0.00338808296,-0.0012967516,0.0011559630000000003,0.00027790400000000015,0.0019120279999999996,3.3,0,0
0.0030050749599999996,-0.0009548472000000001,0.0013556766,0.0008710390000000002,0.0029014539999999995,3.301,0,0
0.00235080076,-0.0009651486000000001,0.0017480570000000001,0.000762457,0.0005600039999999996,3.302,0,0
0.0011473547600000002,-0.0022267926,0.0014718682000000002,-0.0010386730000000002,-0.004702368,3.303,0,0
0.0001871247600000001,-0.0026567146000000003,-0.00012011379999999998,-0.0018725062000000004,-0.005453452000000001,3.304,0,0
-8.293219999999993e-05,-0.0017235506000000001,-0.0010909698,-0.0006946062000000001,-0.002359458,3.305,0,0
-0.0015163302000000003,-0.0019098830000000002,-0.0016179215999999998,-0.0009869432000000002,-0.003475142,3.306,0,0
-0.0030895440000000005,-0.0002826339999999999,-0.0029391,-0.0006015876000000002,-0.0003019320000000002,3.307,0,0
-0.002496042,0.0036156459999999997,-0.0023289446000000005,0.0024765964,0.00712866,3.308,0,0
-0.0023632168,0.0040284462,-0.0005120326000000001,0.0026812736,0.004622084,3.309,0,0
-0.0035183348,0.0027254122000000005,-0.00010195460000000022,0.0008062035999999999,0.0007055299999999998,3.31,0,0
-0.0033553408000000003,0.0024784802000000004,0.0011124674,0.0010945370000000002,0.0026777571999999994,3.311,0,0
-0.0018237678,0.0005746761999999995,0.0031339274000000005,0.0005800814,-0.0003817028000000003,3.312,0,0
-0.0014371478,-0.0025545838000000003,0.0023529640000000004,-0.0022678766,-0.007348088800000001,3.313,0,0
-0.0010574550000000001,-0.0016749479999999999,5.356399999999998e-05,-0.0022909106000000004,-0.003475804800000001,3.314,0,0
0.000929711,0.001122834,-0.0005478240000000001,0.0002992413999999999,0.0040347352,3.315,0,0
0.002311405,0.001659577,-0.0013564032,0.000720828,0.0038385820000000005,3.316,0,0
0.0026079400000000004,0.001814081,-0.0027204452000000002,0.0003442540000000001,0.003370094,3.317,0,0
0.002879602,0.001166687,-0.0023703332,0.0008771078000000002,0.003875376000000001,3.318,0,0
0.003068052,-0.0008944650000000001,-0.0015034866,0.00025270980000000016,-6.721199999999965e-05,3.319,0,0
0.0021807260000000005,-0.0024188090000000005,-0.0015934746,-0.0015178102,-0.005440178,3.32,0,0
0.0017124284000000001,-0.001590044,-0.0012254714,-0.0016285308,-0.004460212000000001,3.321,0,0
0.0024204624,-0.0012784688,0.0007555666,-0.0006603524,-0.0025862980000000003,3.322,0,0
0.0012546349999999998,-0.0027910288000000004,0.0010639896,-0.0013102522,-0.004297734,3.323,0,0
2.6926999999999832e-05,-0.0012381668000000002,0.00013748899999999975,-0.00011891219999999995,0.001191334,3.324,0,0
0.0010006849999999999,0.0007900072,0.0014424569999999999,0.0024322898,0.00622462,3.325,0,0
0.0008632603999999998,-0.0009835268000000002,0.0018304289999999997,0.0019391584,0.0014952940000000003,3.326,0,0
-0.00044646560000000004,-0.00104162,0.0002610189999999999,0.001085028,-6.956200000000001e-05,3.327,0,0
-5.1146199999999975e-05,0.0017456400000000001,0.000655386,0.0014867400000000003,0.0015016980000000005,3.328,0,0
-0.0003374942000000001,0.0009484360000000002,0.0018211065999999998,-4.6461999999999936e-05,-0.004033528,3.329,0,0
-0.0024063462000000002,-0.0007760933999999999,0.0005122946,-0.0029564260000000003,-0.008678938,3.33,0,0
-0.0025394142,0.0015170046000000002,-0.0006417934,-0.002178376,-0.002438658,3.331,0,0
-0.0013794222,0.0024505226000000003,0.00017072059999999995,-8.044800000000011e-05,0.002497344,3.332,0,0
-0.0010067602000000003,2.2006000000001497e-06,0.0005305626,-5.3672000000000105e-05,0.000977004,3.333,0,0
-0.00034553420000000017,-0.0015423574000000002,0.0005320396,0.000420342,0.0011030039999999999,3.334,0,0
0.00047426779999999995,-0.003048406,0.0015637556000000002,0.0010869304,0.0005432700000000004,3.335,0,0
-0.00031550800000000026,-0.005994510000000001,0.0020125116,-0.0002586896000000001,-0.00429835,3.336,0,0
-0.0015599020000000002,-0.006890627800000001,0.0005234475999999999,-0.0019212036,-0.007783178,3.337,0,0
-0.00133804,-0.0038630918,-0.0008741604,-0.0011702896000000001,-0.0044425919999999995,3.338,0,0
-0.0015486980000000003,-0.0011979038,-0.0010044130600000002,-0.0011138276000000004,-0.0033241800000000004,3.339,0,0
-0.0030622860000000004,-0.00035248379999999985,-0.0029110110600000004,-0.0016343480000000003,-0.002842016,3.34,0,0
-0.0033048680000000007,0.0017931342000000001,-0.004737341060000001,0.0008836599999999999,0.004980884000000001,3.341,0,0
-0.003346944000000001,0.002193294,-0.0035573670600000003,0.0024330899999999997,0.007024710000000002,3.342,0,0
-0.003952513,0.0008092065999999999,-0.003555733060000001,0.0009273059999999999,0.0018707840000000003,3.343,0,0
-0.0011780970000000012,0.0021668566,-0.004220302,0.0008251719999999999,0.0025184664000000015,3.344,0,0
0.002690245,0.0033630346,-0.0024102260000000006,0.0014663998,0.003323956000000001,3.345,0,0
0.0040730589999999995,0.0020158026,-0.0004609828000000002,-0.0006549702,-0.0030871299999999996,3.346,0,0
0.005127110999999998,0.0016557672000000001,0.00041211319999999994,-0.0019939752000000003,-0.004149406,3.347,0,0
0.006338819999999999,0.0029609326,0.0021821892000000002,0.00028009280000000007,0.003910614,3.348,0,0
0.005432628,0.0022018606,0.0036561832,0.0016608028,0.0065942655999999995,3.349,0,0
0.0035202398000000004,0.0010243366,0.0038352332,0.001204723,0.004780824,3.35,0,0
0.0030537698000000003,0.0015598106000000002,0.003946514,0.0016334142000000002,0.005907830200000001,3.351,0,0
0.0027088578000000006,0.001202834,0.0031330380000000003,0.0014415111999999998,0.0047289542,3.352,0,0
0.0015267118000000003,-0.000829518,0.0016057200000000002,-0.0005124848000000001,-0.0005328338,3.353,0,0
0.00032537860000000007,-0.0019377938000000004,-4.476600000000001e-05,-0.0014081089999999998,-0.0021527257999999997,3.354,0,0
0.0004965058000000001,-0.0010703875999999999,-6.192199999999995e-05,-0.00013547100000000007,0.0008562922000000001,3.355,0,0
0.0004961338,-0.0016477476000000002,0.001391964,-0.0001663988,-0.0007251079999999999,3.356,0,0
1.8332000000000027e-05,-0.0004996536000000001,0.001049715,0.00024138379999999994,0.0009258480000000002,3.357,0,0
0.000832488,0.0031474204,0.001685059,0.0030447178,0.007864616000000001,3.358,0,0
0.00011271519999999995,0.0025934362,0.004063073,0.0032998320000000004,0.005459384,3.359,0,0
-0.0030365258000000003,0.0006949599999999997,0.003699225,0.0016411859999999998,0.0006759980000000006,3.36,0,0
-0.0062248258,0.001078056,0.0023324110000000004,0.0019364963999999997,0.0020707100000000008,3.361,0,0
-0.00899862,-0.0009332860000000004,0.0026625480000000003,0.00162397,-0.0003848219999999993,3.362,0,0
-0.011625396,-0.004931756000000001,0.001679704,-0.0011620360000000002,-0.007325362,3.363,0,0
-0.010616682,-0.003901588,-0.000984944,-0.0014760356000000003,-0.004631977999999999,3.364,0,0
-0.0037113619999999997,0.0008449620000000003,-0.0021419440000000002,0.0010513504,0.0029937419999999998,3.365,0,0
0.0038789580000000022,0.003504118,-0.003096742,0.0017550946000000002,0.0037022939999999996,3.366,0,0
0.008213458000000002,0.004510048400000001,-0.004952472,0.0014788664000000003,0.003342231999999999,3.367,0,0
0.009788976000000001,0.004908224400000001,-0.0057734299999999995,0.0017787164000000002,0.003796054,3.368,0,0
0.008195552000000002,0.0034532124000000003,-0.006003176,0.000806014,0.00025097399999999886,3.369,0,0
0.003255290000000001,0.0006813147999999999,-0.006033176,-0.001348326,-0.004626372,3.37,0,0
-0.0016000079999999998,-0.0005999451999999999,-0.005123422000000001,-0.0017971700000000003,-0.004353091999999999,3.371,0,0
-0.0037045880000000004,-2.890160000000011e-05,-0.0032901220000000004,-0.001196001,-0.002596536,3.372,0,0
-0.00367883316,0.0011041084,-0.0025729620000000003,-0.002049649,-0.004116257999999999,3.373,0,0
-0.0005067611599999999,0.0048955244,-0.00329903,-0.0010436448,0.0007262020000000002,3.374,0,0
0.0033552608399999998,0.006794382000000002,-0.0021839734,0.0013371732000000002,0.006035548000000001,3.375,0,0
0.00432674084,0.0026350420000000006,0.0009236046,0.00030653920000000006,0.001459184000000001,3.376,0,0
0.00458160084,-0.0001519839999999991,0.0040582286,-0.0009431918000000001,-0.0010756000000000003,3.377,0,0
0.0047448080000000005,-0.0006518131999999995,0.0074871746,-0.00010715780000000009,0.0007214140000000001,3.378,0,0
0.00258125,-0.0044174591999999995,0.010882098599999999,-0.00112239,-0.0037868520000000003,3.379,0,0
-0.0003069314,-0.0075813951999999995,0.0106252144,-0.003633936000000001,-0.00945429,3.38,0,0
-0.0008083674,-0.0046683372,0.006602058400000001,-0.0028035380000000004,-0.0037288699999999996,3.381,0,0
-0.0008410314,-0.0020839072,0.0032722964000000006,-0.0006216419999999999,0.00231421,3.382,0,0
-0.0024300534,-0.002879454,0.0005036116000000002,-0.0005652280000000003,0.0009560520000000006,3.383,0,0
-0.0036225234,-0.0026282740000000003,-0.0022253364,-0.000598724,0.0010555480000000008,3.384,0,0
-0.0037603479999999997,-0.002102272,-0.0028676587999999998,-0.00010844639999999981,0.0012084460000000004,3.385,0,0
-0.004212962,-0.002553236,-0.0029998628,-0.0010210424,-0.002978474,3.386,0,0
-0.004521372,-0.00239605,-0.0048043208,-0.0025283404000000006,-0.0066811194,3.387,0,0
-0.0030093212,9.781400000000032e-05,-0.0061565660000000005,-0.0017214484000000003,-0.004098337400000001,3.388,0,0
-0.0007405632,0.0021768580000000003,-0.005541838,-0.0009042194000000001,-0.0032852074,3.389,0,0
0.00025999280000000007,0.0032883620000000004,-0.006626628000000001,-0.0012807550000000002,-0.0033810674,3.39,0,0
0.0018947388000000003,0.006663488,-0.006827070000000001,0.000972599,0.0038229126000000006,3.391,0,0
0.0028702368000000002,0.007938038000000001,-0.0026068699999999994,0.002915089,0.006446778000000001,3.392,0,0
0.0006659260000000003,0.005399866,0.0007799140000000003,0.0014994170000000003,0.0018281800000000004,3.393,0,0
-0.001541146,0.0035202160000000005,0.002819976,0.00117761,0.002425636000000001,3.394,0,0
-0.0028006180000000004,0.0007737260000000002,0.005752816000000001,0.0016180550000000002,0.003543898600000001,3.395,0,0
-0.00467328,-0.004440574000000001,0.0067164294,-0.0005119630000000002,-0.0029544313999999997,3.396,0,0
-0.005423464,-0.0070648080000000005,0.003854757400000001,-0.0020334770000000005,-0.0049554633999999995,3.397,0,0
-0.0030185380000000003,-0.005192222,0.0010105373999999999,0.0005061349999999998,0.0034752166,3.398,0,0
0.0002627739999999997,-0.002949218,-0.0003959908000000001,0.002776981,0.007514840599999999,3.399,0,0
0.003431536,-0.0005362832000000001,-0.0020564468000000002,0.0026766859999999997,0.006380464,3.4,0,0
0.007035820000000001,0.0021282768,-0.0024297182,0.003337874,0.008191768,3.401,0,0
0.009105582000000001,0.0022539188,-0.0007321662000000005,0.0034167696,0.007416778,3.402,0,0
0.008072002000000002,-0.0004657492000000002,0.0012442778,0.0011772656,0.0016050880000000004,3.403,0,0
0.004562812,-0.0030903272000000004,0.00188446,-0.0007749472000000001,-0.0021288540000000003,3.404,0,0
0.0007597580000000001,-0.0030648200000000007,0.0031426960000000004,-0.0009032192000000001,-0.002772014,3.405,0,0
-0.002774446,-0.0029303352000000006,0.0043793980000000005,-0.0028320552,-0.009192448,3.406,0,0
-0.004673326,-0.0015889232000000004,0.0026566079999999995,-0.0049633908,-0.013813546,3.407,0,0
-0.003607174,0.0011793548000000004,0.001701303,-0.0041135244,-0.012096418000000001,3.408,0,0
-0.0028831779999999997,-0.0007458992,0.002492411,-0.0049625056,-0.016597795999999998,3.409,0,0
-0.0033938280000000006,-0.0049265012,0.001517167,-0.0070777276,-0.020819502,3.41,0,0
-0.0027607400000000002,-0.00621156,0.00037947100000000015,-0.0058690116,-0.016001638,3.411,0,0
-0.0024049058000000004,-0.007649666000000001,0.0005368610000000002,-0.0043392036,-0.012886056,3.412,0,0
-0.0035348578000000005,-0.010295616,-0.0007014139999999998,-0.005500474,-0.014594392000000001,3.413,0,0
-0.0029166718000000003,-0.007858382,-0.002992682,-0.0045032116,-0.007762292000000001,3.414,0,0
-6.653379999999997e-05,-0.001612802,-0.0029865819999999998,-0.0005458816,0.0038336480000000003,3.415,0,0
0.0011803982000000003,9.59680000000001e-05,-0.002448156,0.0013693624,0.007790644000000001,3.416,0,0
0.001393202,-0.000383792,-0.0023808319999999994,0.0020289626000000002,0.008969674,3.417,0,0
0.002948778,0.0011464678000000002,-0.0008823560000000002,0.0030172086,0.009818886200000002,3.418,0,0
0.0034903340000000003,0.0004694237999999999,0.00053923,0.0023098242,0.0060173282,3.419,0,0
0.001754686,-0.0030506262000000004,0.0006937506,0.00029689419999999987,0.0002626344,3.42,0,0
0.000596885,-0.0030545942000000004,0.0007869406000000001,-0.0003064477999999999,-5.982559999999923e-05,3.421,0,0
0.00018862019999999993,-0.0004927222000000006,0.0020209086000000003,0.000283044,0.0023755104,3.422,0,0
-0.0016410838,-0.00037606420000000035,0.0019596386000000003,0.00012039060000000007,0.0018741502000000003,3.423,0,0
-0.002056701,0.0019123337999999998,0.00041471260000000023,0.0018855946,0.006605888200000002,3.424,0,0
0.00022389300000000018,0.0060850238,0.0006632786000000001,0.005002194600000001,0.012890742000000002,3.425,0,0
0.0016323360000000003,0.0067972938,0.0005628686000000002,0.0052066246,0.011045068000000002,3.426,0,0
0.0029709268000000003,0.0073915898,-0.0015419934,0.005107532600000001,0.010867218000000001,3.427,0,0
0.0057863948000000005,0.010071574,-0.0019099592,0.00656054,0.014417504000000001,3.428,0,0
0.006157588,0.009483108,-0.0004167712000000001,0.005934260000000001,0.011580708,3.429,0,0
0.0037638820000000005,0.005692934,-0.0010756318000000003,0.0036024400000000006,0.006023246,3.43,0,0
0.0027328720000000003,0.004997576,-0.0024484318000000003,0.003942625999999999,0.0087472,3.431,0,0
0.002101096,0.005126078,-0.0018233458,0.005055608,0.011839742,3.432,0,0
9.890000000000018e-05,0.002866874,-0.001577772,0.004085536,0.008485656000000001,3.433,0,0
-0.001594816,0.0008896940000000003,-0.002333504,0.0030073,0.005994472,3.434,0,0
-0.002400322,0.00019427600000000017,-0.0017749758,0.0016517759999999998,0.0032744140000000007,3.435,0,0
-0.004137172000000001,-0.002014424,-0.000456672,-0.0013204260000000004,-0.0037115859999999994,3.436,0,0
-0.006360704,-0.005493158,-0.00064804,-0.004342224,-0.010032498,3.437,0,0
-0.006719542,-0.00643633,-0.001319008,-0.005166036000000001,-0.009224364,3.438,0,0
-0.0051632064,-0.005710955999999999,-0.0004756320000000001,-0.005240376,-0.008494492,3.439,0,0
-0.0036808954,-0.00464265,-0.00044432080000000006,-0.005709150000000001,-0.009253352,3.44,0,0
-0.0013085333999999999,-0.0014096100000000002,-0.0009351346000000002,-0.0036002560000000005,-0.002827352,3.441,0,0
0.0025483686000000003,0.002201036,0.0005175633999999999,-0.00098525,0.00167038,3.442,0,0
0.004274452600000001,0.00306044,0.0007794294,-0.0008491320000000001,0.00013009999999999953,3.443,0,0
0.00407187,0.00381728,-0.0003594326000000001,0.0002621679999999999,0.0031842240000000003,3.444,0,0
0.003713045,0.004712550000000001,0.00095625,0.0025979640000000003,0.007268664,3.445,0,0
0.0026347318000000002,0.0032160774000000005,0.0029604239999999997,0.0022337662000000004,0.003753134,3.446,0,0
0.0009326118000000001,0.0019910814,0.002704274,0.0007780048000000002,0.001099098,3.447,0,0
0.0005108998,0.0032291894000000005,0.002858954,0.0023756588000000004,0.005794250000000001,3.448,0,0
0.0014575148000000003,0.0038599454,0.003972012,0.0036402788000000005,0.007225354000000001,3.449,0,0
0.0021196028000000002,0.0028804734000000003,0.003000642,0.0024366288,0.003960814,3.45,0,0
0.002043464,0.00253352,0.001082098,0.0016605985999999999,0.001952784,3.451,0,0
0.0011247540000000004,0.0009473020000000001,0.0006754460000000001,0.0006507120000000001,-0.0018799000000000008,3.452,0,0
-0.00020380999999999985,-0.002627094,0.000565482,-0.0023515880000000004,-0.00932904,3.453,0,0
-0.001588706,-0.004419128,-0.000670644,-0.004778538000000001,-0.014046076000000001,3.454,0,0
-0.0023205,-0.0036921452000000005,-0.0012991386,-0.004554415200000001,-0.012449702,3.455,0,0
-0.00292504,-0.0037678172,-0.0009812826,-0.004879023200000001,-0.012696022,3.456,0,0
-0.0031628900000000002,-0.0027782682,-0.0020769766,-0.004563665200000001,-0.010624246,3.457,0,0
-0.001940112,0.0009594118,-0.0023104426,-0.0013102912,-0.0023687660000000013,3.458,0,0
-0.001437006,0.0013884817999999998,-0.0005035986,0.00038493480000000014,-0.00030278400000000066,3.459,0,0
-0.0012643160000000001,-0.0004308490000000003,-0.000535404,1.820600000000021e-05,-0.001349268000000001,3.46,0,0
0.0006408060000000001,0.000271857,-0.0011652400000000001,0.0013839560000000004,0.0031329439999999995,3.461,0,0
0.001997756,-0.0004855640000000002,0.00015157400000000008,0.0022973890000000004,0.004727502,3.462,0,0
0.0014878724000000002,-0.004056524000000001,0.000677108,0.0004467929999999999,-0.00017533599999999995,3.463,0,0
0.00149238368,-0.004286288000000001,-0.000634948,0.00018985699999999987,0.0010716199999999997,3.464,0,0
0.00243187568,-0.001215674,-0.0005060024000000001,0.0025495450000000003,0.00744431,3.465,0,0
0.0015570790800000004,-0.000889174,0.0006131156,0.0031620190000000003,0.007258092000000001,3.466,0,0
-0.0005339449199999999,-0.0009200079999999998,0.0005067416,0.0023441140000000004,0.004599458000000001,3.467,0,0
-0.00210488332,0.0009937410000000002,0.0007894816000000001,0.0021669540000000004,0.0035990320000000003,3.468,0,0
-0.0040927246,0.0009926310000000001,0.0019147696000000002,0.0006287060000000004,-0.00116357,3.469,0,0
-0.0065916006,-0.001147967,0.0019437758,-0.0024493720000000004,-0.008113210000000001,3.47,0,0
-0.007377104000000001,-0.0021025609999999998,0.0010688058000000002,-0.003703872,-0.009182836000000002,3.471,0,0
-0.004724424,-0.0015911046,0.0009531724000000001,-0.002765032,-0.006937094000000001,3.472,0,0
-0.0013032499999999995,-0.0016534330000000002,0.00027631840000000014,-0.0026269500000000003,-0.007880910000000001,3.473,0,0
0.0021784480000000004,0.000635477,-0.0016187716,-0.0014934500000000001,-0.003757818,3.474,0,0
0.006175054000000001,0.0037339570000000004,-0.0017731714,0.001205118,0.0028100020000000002,3.475,0,0
0.007504416000000001,0.0032162710000000006,-0.0013899074,0.001231486,0.0011696460000000003,3.476,0,0
0.005339116000000001,0.0021323286000000004,-0.0027154740000000003,0.00018680599999999986,0.0007043620000000003,3.477,0,0
0.0022975700000000005,0.0022508140000000003,-0.0029736420000000003,0.0007905039999999999,0.004771244000000001,3.478,0,0
-0.00012099000000000018,0.0005902500000000002,-0.002131388,0.00037646599999999983,0.003254908000000001,3.479,0,0
-0.002365686,-0.0016947984,-0.0028521760000000005,-0.0014918400000000004,-0.0011288631999999998,3.48,0,0
-0.002751002,7.480559999999982e-05,-0.004264256,-0.0006543880000000002,0.0030390448000000006,3.481,0,0
-0.0005068039999999996,0.0030348015999999995,-0.0034267180000000005,0.001418522,0.008286086800000002,3.482,0,0
0.0015794320000000004,0.0026167637999999997,-0.0024097320000000004,0.0010967158,0.006533400800000001,3.483,0,0
0.0020954700000000003,0.0012203417999999996,-0.00227543,0.0006349538,0.0051048368,3.484,0,0
0.001940588,0.0005482361999999993,0.00023255,0.0009205648000000001,0.00364805,3.485,0,0
0.0011137179999999999,-0.0013002898000000005,0.0032973940000000004,-0.0003611552000000001,-0.00202369,3.486,0,0
-0.00072002,-0.0034024578000000005,0.0038563580000000003,-0.0022937012,-0.007383256,3.487,0,0
-0.0012044479999999999,-0.0027538880000000003,0.0034112989600000006,-0.0020301814000000004,-0.0064028060000000005,3.488,0,0
0.00038720200000000034,-0.0005886460000000002,0.00456430496,-0.0013124552000000002,-0.005086984000000001,3.489,0,0
0.0013509140000000004,0.000364112,0.00381491096,-0.0015985602000000005,-0.005421274,3.49,0,0
0.0024706840000000003,0.002211948,0.00190425396,0.00015239979999999995,0.0008517459999999996,3.491,0,0
0.004099382,0.003894208,0.0029961339600000003,0.0023356938,0.004891372,3.492,0,0
0.0032389640000000004,0.003088184,0.0030182473999999996,0.0017468462,0.0017078659999999997,3.493,0,0
0.0008101499999999999,0.001881534,0.0009219914,0.0011973239999999996,0.0022420068000000002,3.494,0,0
-0.001373916,0.00028684399999999986,-0.00012737059999999982,0.0016205248600000004,0.004185266799999999,3.495,0,0
-0.003817436,-0.0024938700000000005,-0.0005343755999999999,0.00033871886,-0.00045722120000000013,3.496,0,0
-0.005815624000000001,-0.004370138000000001,-0.0024555456,-0.00103814674,-0.0032306712,3.497,0,0
-0.005172110000000001,-0.0034453080000000002,-0.0029319540000000005,0.00056352126,0.002685788800000001,3.498,0,0
-0.0031790560000000004,-0.0031281804,-0.0010095800000000004,0.0023577452600000003,0.005907234000000001,3.499,0,0
-0.0016080628,-0.0034413024000000004,0.00039103399999999974,0.0024815492000000005,0.004269972,3.5,0,0
0.0005897412000000001,-0.0019077444,0.000953668,0.0025835772,0.0040551960000000005,3.501,0,0
0.0023131532,-0.0010266884000000001,0.001063044,0.0021910588,0.0022577080000000006,3.502,0,0
0.0019349816,-0.0018244764000000001,0.0004004599999999996,0.0003980148000000001,-0.003964372000000001,3.503,0,0
0.00028143960000000007,-0.00167591122,-0.002369308,-0.0013810272,-0.007172125200000001,3.504,0,0
-0.0003400695999999997,-0.00024064461999999997,-0.004623144000000001,-0.0017490680000000003,-0.003725055200000001,3.505,0,0
-0.0017008016,0.0006729933800000001,-0.005413504,-0.000726286,0.0013291087999999997,3.506,0,0
-0.0037563396000000002,0.0017809493800000002,-0.0031900360000000007,0.0010290680000000002,0.0058567268,3.507,0,0
-0.0030944140000000006,0.0008344733800000003,0.002683624,-7.129800000000002e-05,0.0026568267999999996,3.508,0,0
-0.0014676160000000006,-0.0018136294,0.005468814000000001,-0.0033167060000000004,-0.004973060000000001,3.509,0,0
-0.0009710662000000001,-0.0017467715999999998,0.004862842,-0.0033470440000000004,-0.004925180000000001,3.51,0,0
-0.0015437982000000002,-0.0024589098,0.004839436000000001,-0.002087852,-0.00268268,3.511,0,0
-0.0025273882000000003,-0.0055943618,0.002739114,-0.0023495879999999997,-0.0032415600000000005,3.512,0,0
-0.0031135318000000004,-0.0048475338,-0.002497734,-0.0007574434000000002,0.0010586240000000004,3.513,0,0
-0.0012338238000000005,0.00013342619999999993,-0.00438659,0.0026767125999999997,0.007569906,3.514,0,0
0.0021496544,0.0037368498000000003,-0.003096644,0.0032319086,0.005790282000000001,3.515,0,0
0.0051482864,0.007925584,-0.002833384,0.0023635746,0.002322962,3.516,0,0
0.008061454400000001,0.014307068000000003,-0.001834582,0.0034146866000000003,0.0040923420000000005,3.517,0,0
0.008471202,0.01654341,0.0007388260000000002,0.0035548623400000006,0.003377857999999999,3.518,0,0
0.005160986,0.012460268,0.0029094760000000002,0.00102846634,-0.0028659440000000005,3.519,0,0
0.0010067300000000004,0.006572708000000002,0.0032548758000000007,-0.0018857956600000004,-0.008122,3.52,0,0
1.0685999999999877e-05,0.0012603860000000014,0.004077397800000001,-0.00394480166,-0.010028950000000002,3.521,0,0
0.0005805159999999999,-0.004600744,0.0043234258,-0.005999671660000001,-0.011549470000000001,3.522,0,0
0.0014281720000000001,-0.006883958,0.0024091912000000003,-0.004983478000000001,-0.0053377500000000005,3.523,0,0
0.0034373600000000004,-0.005928152000000001,0.0026226112000000005,-0.0011661140000000004,0.0038439739999999996,3.524,0,0
0.003775008,-0.007966952000000001,0.0034583854,-0.0007722540000000004,0.0012893740000000002,3.525,0,0
0.0018292739999999997,-0.00984599,0.0006353893999999994,-0.0019854740000000005,-0.0037267160000000006,3.526,0,0
0.00036304799999999977,-0.008005916000000002,-0.0029169446000000005,-0.0011336760000000008,-0.0022761760000000004,3.527,0,0
-0.00041844200000000015,-0.006053416000000001,-0.004751068000000001,-0.0006356320000000006,-0.0016907760000000015,3.528,0,0
-0.0020157480000000004,-0.0038082460000000012,-0.007717584000000001,-0.0009648499999999998,-0.002437638,3.529,0,0
-0.0027046820000000004,0.0011527080000000001,-0.010403378000000001,0.0010236499999999996,0.003405233999999999,3.53,0,0
-0.0030560860000000004,0.004293248800000001,-0.009209756000000001,0.0033799560000000004,0.008239862,3.531,0,0
-0.005267258,0.0036922436,-0.0073236180000000005,0.002890208,0.005013458,3.532,0,0
-0.00747921,0.0031838856000000002,-0.005087002,0.0024582980000000003,0.0038160380000000008,3.533,0,0
-0.007958620000000001,0.0032934296,8.188999999999983e-05,0.0031543560000000005,0.005921196,3.534,0,0
-0.007033886,0.0026116738,0.005093338,0.002580138,0.003599064,3.535,0,0
-0.004615512,0.001278357,0.007502304,0.00018145199999999992,-0.0025522440000000004,3.536,0,0
-0.0014675399999999998,1.6570199999999674e-05,0.008744654,-0.0016902220000000001,-0.0056990800000000005,3.537,0,0
0.0008049460000000001,-0.0016812818000000005,0.008644596,-0.0024253580000000003,-0.007308594000000001,3.538,0,0
0.0021102960000000002,-0.0039962318000000005,0.0049858538,-0.0029674060000000006,-0.008014334000000001,3.539,0,0
0.003177164,-0.004196704000000001,0.0015473918000000004,-0.0009415080000000006,-0.0003581540000000007,3.54,0,0
0.0029342660000000005,-0.004617418000000001,0.0020637998,0.0015950320000000001,0.0048018240000000005,3.541,0,0
0.000965874,-0.00677343,0.0025896938,0.00039970599999999967,-0.0006354159999999998,3.542,0,0
0.0006033958000000002,-0.0050877200000000004,0.0013553858000000002,-0.0012965660000000003,-0.0034644099999999994,3.543,0,0
0.0022552898000000004,-0.001411608,0.0010422819999999998,-0.0008786420000000004,-0.00154827,3.544,0,0
0.0032871718000000005,0.00045757400000000096,0.0009623099999999999,-0.0010746000000000004,-0.0027916900000000008,3.545,0,0
0.0036777898,0.0032266200000000004,-0.001112694,-0.0014230112000000001,-0.0028507620000000006,3.546,0,0
0.0042730698,0.00708833,-0.002777326,0.0009847948,0.0037472359999999984,3.547,0,0
0.0035289599999999994,0.007574654,-0.0023442999999999997,0.0027117648,0.0058491939999999985,3.548,0,0
0.0014491579999999997,0.0063005840000000006,-0.0023099,0.0017787148000000003,0.0025067020000000004,3.549,0,0
0.00041799199999999984,0.0067974360000000005,-0.003103254,0.0020824308000000004,0.003299382,3.55,0,0
0.0002661419999999997,0.006186606,-0.0028865920000000003,0.0031136640000000004,0.004754934000000001,3.551,0,0
-8.558000000000014e-05,0.0032755360000000003,-0.002597754,0.0018883160000000001,0.0010984759999999993,3.552,0,0
-0.0007547640000000002,-0.000919164000000001,-0.003610348,-0.00040670599999999995,-0.0041795339999999995,3.553,0,0
-0.001217854,-0.0046946340000000005,-0.00399499,-0.0013282399999999998,-0.00511220978,3.554,0,0
-0.001673646,-0.007647152,-0.0023210840000000006,-0.0024281420000000003,-0.006336249779999999,3.555,0,0
-0.001882654,-0.008031829200000002,-0.001515312,-0.0032067600000000003,-0.00449580778,3.556,0,0
-4.530000000000007e-05,-0.0042471772000000005,0.00014754599999999992,-0.000710844,0.00429205222,3.557,0,0
0.001264557,-0.0025889412,0.004470521999999999,0.0006692660000000001,0.005579392219999999,3.558,0,0
-0.0005553910000000001,-0.0039533212,0.005495109999999999,-0.0014603900000000002,-0.0007818399999999998,3.559,0,0
-0.0022014490000000003,-0.0034686392000000004,0.003222261999999999,-0.002491468,-0.00175655,3.56,0,0
-0.0023820713999999996,-0.0031418900000000005,0.002157595999999999,-0.0019462380000000003,-0.0008172700000000001,3.561,0,0
-0.0031758524,-0.004785622,0.0006890299999999994,-0.002541714,-0.0036822079999999993,3.562,0,0
-0.0034430833999999997,-0.0035832030000000005,-0.0026133420000000003,-0.00222678,-0.0016279880000000001,3.563,0,0
-0.0013119662,0.001419497,-0.002775443,0.0007079880000000001,0.0053570200000000005,3.564,0,0
0.00047230180000000006,0.0038615330000000003,-0.000680733,0.0024192040000000003,0.005656904000000001,3.565,0,0
0.0013017542,0.004932943,-0.000524399,0.0023694640000000004,0.0031720740000000004,3.566,0,0
0.0026497992000000005,0.007640503,0.000348331,0.0034242400000000003,0.005059832,3.567,0,0
0.0033163492,0.008018118000000001,0.0024512270000000003,0.004374724,0.00532506,3.568,0,0
0.002520746,0.004896606,0.00328927,0.0028962020000000005,0.0003532520000000001,3.569,0,0
0.00110247,0.002258794,0.003118061,0.0009206819999999997,-0.0032801820000000004,3.57,0,0
-6.02424000000002e-05,0.0017255340000000004,0.0033875056000000005,0.00037125399999999995,-0.0029116079999999996,3.571,0,0
-0.0018499824000000002,-0.0001781580000000001,0.0027697352000000002,-0.0010529280000000003,-0.004454658,3.572,0,0
-0.0026344764,-0.0008795220000000003,0.0006291172000000001,-0.0014265759999999997,-0.000701746,3.573,0,0
-0.0014476904000000003,-0.00012533400000000006,-3.390799999999981e-06,0.0011010640000000001,0.007083674,3.574,0,0
-0.0016121643999999998,-0.003462802,0.0002584702,0.0007628220000000005,0.0037521740000000005,3.575,0,0
-0.0025908199999999998,-0.00759227,-0.0008909864000000002,-0.002131844,-0.00273773,3.576,0,0
-0.00091592,-0.007750210000000001,-0.0016596640000000004,-0.0025111223999999994,-0.0026205980000000005,3.577,0,0
0.0017097840000000002,-0.006178898,-0.00132827,-0.0026390763999999995,-0.0042500340000000015,3.578,0,0
0.0026534700000000002,-0.004621084000000001,-0.0017856392,-0.0043615504,-0.008137456000000001,3.579,0,0
0.0033441879999999997,-0.00033774000000000033,-0.0029629172000000007,-0.0035936344,-0.0033712420000000004,3.58,0,0
0.003851664,0.004395984,-0.0024325032,-0.0004892644000000001,0.003160484,3.581,0,0
0.0018706099999999995,0.005356748000000001,-0.0023077512000000003,0.00044255399999999995,0.0021753320000000003,3.582,0,0
-0.0014733440000000001,0.005231746000000001,-0.003909671200000001,0.0007528040000000001,0.002255778,3.583,0,0
-0.0031347820000000005,0.005787380000000001,-0.0044651660000000004,0.0021985219999999996,0.0051162000000000004,3.584,0,0
-0.0037277820000000002,0.004188279999999999,-0.003910350000000001,0.002186596,0.0039255060000000005,3.585,0,0
-0.00425326,0.0011594440000000004,-0.004002052000000001,0.00036983399999999966,-0.0005678599999999999,3.586,0,0
-0.003129452,-0.0005177019999999999,-0.003997898000000001,-0.0006401360000000002,-0.0015228559999999997,3.587,0,0
-0.0009324380000000001,-0.002208636,-0.0008401759999999998,-0.0004598240000000004,-0.0010838219999999995,3.588,0,0
0.00021953800000000002,-0.0038828459999999997,0.0019976740000000005,-0.0007007200000000003,-0.00202057,3.589,0,0
0.003004072,-0.001528356,0.0029799400000000004,0.0015357139999999997,0.0042756700000000005,3.59,0,0
0.00653907,0.0011403160000000002,0.005692554000000001,0.004259222,0.009337824000000002,3.591,0,0
0.006157731800000001,-0.0008253499999999999,0.0071652420000000005,0.0026178199999999994,0.0032693500000000007,3.592,0,0
0.0045800698,-0.0011696679999999996,0.0039031260000000007,0.0002692559999999996,-0.0009350739999999997,3.593,0,0
0.0043376358000000005,0.0013115980000000006,0.0006531539999999995,-0.00019360000000000048,1.1094000000000121e-05,3.594,0,0
0.0025799682000000007,0.0014688860000000006,0.0005031999999999999,-0.0013164900000000002,-0.002719792,3.595,0,0
-0.0003587598,0.0011862400000000007,-0.0006521920000000002,-0.0025706158,-0.004592890600000002,3.596,0,0
-0.0011115196,0.004347790000000001,-0.0014526270000000004,-0.0003386118000000001,0.0026098394,3.597,0,0
-0.0007062866000000001,0.006493402,0.000931739,0.0024103482000000006,0.007235079399999999,3.598,0,0
-0.0015354926,0.00511188,0.0025003490000000002,0.0025869142,0.0049730270000000005,3.599,0,0
-0.0021519670000000003,0.00504787,0.00182367,0.0029832521999999997,0.005909273,3.6,0,0
-0.0013911530000000002,0.005728164,0.00203507,0.00404969,0.0076042476,3.601,0,0
-0.0010911929999999999,0.004218326,0.002612893,0.003282918,0.0045275776,3.602,0,0
-0.001341746,0.0015973739999999995,0.0017993694,0.0013501619999999998,0.0006956635999999996,3.603,0,0
-0.000490794,0.0006376199999999997,0.0011920698,0.0013366440000000001,0.0017734060000000002,3.604,0,0
0.00063007,-0.0004298770000000005,0.0013751280000000002,0.001226264,0.0010595719999999997,3.605,0,0
0.0005776486,-0.001382659,-0.0004421879999999998,0.000474002,0.0009305439999999997,3.606,0,0
0.0010602582000000002,0.0004366029999999999,-0.0021681139999999996,0.0028284040000000005,0.008323324,3.607,0,0
0.0012488932000000001,-7.392999999999853e-06,-0.0011486203999999996,0.004513662,0.008535964,3.608,0,0
-0.0008823248000000001,-0.003020737,-0.0015894407999999995,0.001851096,-0.0002505859999999988,3.609,0,0
-0.0024192008,-0.00412041,-0.003398554,-0.0002717799999999997,-0.0038142059999999997,3.61,0,0
-0.0021433854,-0.0050520980000000005,-0.003059634,-0.0008737788000000003,-0.0058705,3.611,0,0
-0.0013147150000000002,-0.00588318,-0.002473306,-0.0034996187999999998,-0.012842876000000001,3.612,0,0
-0.00010011200000000007,-0.0027582699999999993,-0.003961732000000001,-0.0052923928,-0.013803282000000002,3.613,0,0
0.0011510679999999999,0.0012117540000000002,-0.003679734,-0.0031392747,-0.0062368108,3.614,0,0
0.00042416199999999985,0.0010320800000000003,-0.000887288,-0.0014206987,-0.0039777328,3.615,0,0
-0.0022608180000000004,-2.4227999999999403e-05,0.00043993600000000015,-0.0013483291000000001,-0.0045421308,3.616,0,0
-0.004260936,0.00031092000000000055,0.0010539272000000001,9.352489999999998e-05,-0.0005793948000000007,3.617,0,0
-0.004907318000000001,0.00014683000000000057,0.0025098592,0.0013020689,0.0017303051999999998,3.618,0,0
-0.0046179356,-0.0003048259999999996,0.0031584892,0.0005511648000000001,-0.0009419660000000005,3.619,0,0
-0.0031024202000000003,0.0008512729200000004,0.0019036736,-0.00013527519999999987,-0.0024980200000000005,3.62,0,0
0.0002070698000000001,0.00261815892,0.0012981196000000001,0.00010446819999999999,-0.0005906940000000002,3.621,0,0
0.0026812898,0.00106957092,0.0014133504,-0.0010624758,-0.002828534,3.622,0,0
0.0029038658,-0.0010783350800000003,-0.0007159175999999999,-0.0013326304000000001,-0.0010314540000000007,3.623,0,0
0.0044547254,-0.00053747508,-0.0020774956,0.0010430756000000003,0.006292446,3.624,0,0
0.005914082,-0.0021718980000000002,-0.0017365028,0.0002817736000000001,0.0027060160000000003,3.625,0,0
0.004396312,-0.0052173340000000006,-0.0028605628000000004,-0.0030374065999999996,-0.005350359999999999,3.626,0,0
0.0033086860000000004,-0.003783392,-0.0040280488000000005,-0.0038739186,-0.0064767819999999995,3.627,0,0
0.00357104,-0.0008282939999999998,-0.0031186288000000003,-0.00470452,-0.009729909999999998,3.628,0,0
0.001876368,-0.0002547099999999998,-0.0017599647999999998,-0.007514550000000001,-0.01709691,3.629,0,0
-0.0009163400000000001,0.0016927420000000001,-0.0017878856000000001,-0.007310326000000001,-0.01394122,3.63,0,0
-0.0022703820000000005,0.003952302,-0.0004731836000000002,-0.0036063960000000004,-0.0053312360000000005,3.631,0,0
-0.004849910000000001,0.0012768480000000001,0.0025014344,-0.001985498,-0.003886182,3.632,0,0
-0.008872614000000001,-0.003351392,0.004426962400000001,-0.0016254740000000004,-0.001884512,3.633,0,0
-0.010068450000000001,-0.0057866260000000004,0.0048548964,0.0005114560000000002,0.003638608,3.634,0,0
-0.008124976,-0.0071724779999999995,0.004954418,0.0016934200000000002,0.004710244000000001,3.635,0,0
-0.005224134,-0.007186242000000001,0.004178128,0.0005367600000000001,0.0020531860000000002,3.636,0,0
-0.0021195740000000004,-0.004087658,0.001436712,0.00041919000000000017,0.003220522,3.637,0,0
0.002244332,-8.287400000000014e-05,-0.000494986,0.0017109199999999999,0.00507488,3.638,0,0
0.00568234,0.001857834,-0.002141248,0.001268178,0.0035461680000000006,3.639,0,0
0.006202354,0.004067656,-0.0039457780000000005,0.002195442,0.008653222,3.64,0,0
0.005915072,0.005565326000000001,-0.0030991480000000004,0.0046142660000000005,0.012979836000000002,3.641,0,0
0.004884444,0.0019951420000000005,-0.00164745,0.0029775599999999998,0.004969748,3.642,0,0
0.002451888,-0.0024886419999999997,-0.0012452822,0.000318034,-0.0015298719999999998,3.643,0,0
-0.00029841200000000007,-0.004664094000000001,0.0008595918000000001,-0.00040143599999999986,-0.0027768338,3.644,0,0
-0.0021503420000000004,-0.0075505120000000005,0.0033990738000000006,-0.0018932920000000002,-0.0085560358,3.645,0,0
-0.003513342,-0.00991396,0.0029214952000000006,-0.0039252340000000005,-0.0129437398,3.646,0,0
-0.002199228,-0.00644061,0.0017702452,-0.002505259,-0.006131017800000001,3.647,0,0
0.001941162,-0.0009274100000000005,0.0019255042,0.00023686500000000006,0.00011620219999999978,3.648,0,0
0.004497158,0.0017602179999999998,0.0009669042,0.000486108,4.511599999999962e-05,3.649,0,0
0.006055332,0.00584237,-0.0003220138,0.0009895160000000002,0.002555026,3.65,0,0
0.00723939,0.009648472,0.0004984087999999999,0.00204703,0.005361958,3.651,0,0
0.005358444000000001,0.007963074,0.0018160348,0.0015567150000000002,0.003556131999999999,3.652,0,0
0.00046755400000000023,0.0037478300000000006,0.00199766,0.00034384100000000006,0.0011560599999999998,3.653,0,0
-0.0032902039999999997,0.0019347460000000002,0.001725322,0.0008597799999999999,0.00356788,3.654,0,0
-0.004465886,9.281400000000009e-05,0.00205038958,0.0012225720000000001,0.004115406,3.655,0,0
-0.004589748,-0.001744304,0.0007064135799999998,0.0007752900000000001,0.0036897880000000003,3.656,0,0
-0.0021010520000000004,0.0012517240000000003,-0.00115500042,0.0030281540000000003,0.010682952,3.657,0,0
0.0009598699999999996,0.0037002759999999997,-0.00039185641999999994,0.0042735180000000005,0.012078832,3.658,0,0
0.0006507919999999999,0.0012679579999999996,-0.0003393374199999999,0.0017693980000000004,0.0035925520000000006,3.659,0,0
-0.0006384000000000001,-5.761200000000029e-05,-0.001557699,-3.232999999999947e-05,-2.3259999999999557e-05,3.66,0,0
-0.001150914,-0.0004701799999999999,-0.0012576809999999999,-0.0007687739999999997,-0.0013248628000000003,3.661,0,0
-0.0029588614000000003,-0.003228626,-0.000872083,-0.003380646,-0.008397308800000001,3.662,0,0
-0.004295334,-0.003564374,-0.002790693,-0.00526983,-0.010868414800000002,3.663,0,0
-0.001556894,0.00028969599999999977,-0.003562886,-0.0031516288,-0.0035311628000000003,3.664,0,0
0.0018867379999999998,0.0021220600000000003,-0.0023518180000000003,-0.0012639107999999999,-0.00020798280000000027,3.665,0,0
0.002609026,0.001407082,-0.002471514,-0.0013199628,-0.0012245680000000003,3.666,0,0
0.0028372621999999998,0.0017552079999999999,-0.00276591,-8.267479999999987e-05,0.00156913,3.667,0,0
0.0033289187999999996,0.001642026,-0.00187934,0.0014222932,0.0034143040000000004,3.668,0,0
0.0024218608,0.0004000900000000001,-0.0008755680000000001,0.001004326,0.001039122,3.669,0,0
0.0004877488,-0.0005570888,-0.0005332440000000001,0.0005754340000000001,5.895200000000003e-05,3.67,0,0
-4.2903800000000035e-05,-3.5734199999999953e-05,0.0005911240000000001,0.0021422480000000002,0.00380749,3.671,0,0
-0.00030285420000000004,-0.0002873261999999999,0.00167008,0.002582328,0.003673182,3.672,0,0
-0.0009677322000000001,-0.00032248619999999993,0.0003774100000000001,0.002745668,0.005140996,3.673,0,0
-4.8620200000000155e-05,0.0021186798,-0.0004993700000000001,0.005303384,0.012815706,3.674,0,0
0.00025894179999999995,0.0019789912000000003,0.0004784660000000001,0.005275686200000001,0.010496256,3.675,0,0
-0.0009165036000000002,0.0006159945999999999,0.00031636200000000005,0.0022340662000000008,0.001966175999999999,3.676,0,0
-0.00120515,0.0012975545999999998,0.0002122194000000001,0.0009820822000000003,-4.0450000000000793e-05,3.677,0,0
-0.0013517840000000004,-0.00010882140000000018,0.0025922054000000003,-4.9787799999999435e-05,-0.0037665840000000008,3.678,0,0
-0.0030510900000000002,-0.0040696074,0.0038159054000000006,-0.0031016658000000003,-0.012648724000000002,3.679,0,0
-0.00381918,-0.004511214,0.0019606294,-0.0039011220000000004,-0.01167962,3.68,0,0
-0.0018635960000000003,-0.0016332240000000006,0.0011767654000000001,-0.0014104920000000002,-0.00330268,3.681,0,0
-0.00027983800000000014,-0.0004740259999999998,0.0012477360000000002,-0.000519494,-0.001666455999999999,3.682,0,0
0.0001863313999999999,0.0007660779999999999,-0.000311736,-0.0005190280000000002,-0.0007853799999999998,3.683,0,0
0.0014386045999999998,0.00354244,-0.00070678,0.0004044478,0.0029140420000000004,3.684,0,0
0.0027423586,0.005065058000000001,0.00028622,0.0003772437999999999,0.0025439399999999997,3.685,0,0
0.0022492406,0.0036099792,-4.1443999999999964e-05,-0.0007459222000000002,-0.0011572,3.686,0,0
0.0011165956000000002,0.0018503551999999998,-0.000492442,-0.0010229282,-0.0007869279999999999,3.687,0,0
0.0012093864000000001,0.0014933471999999998,0.0002723980000000001,-0.00014127820000000017,0.0017392740000000003,3.688,0,0
0.0011638534000000002,-1.6942800000000206e-05,-0.00011810759999999999,-0.00023211240000000017,0.0003642420000000002,3.689,0,0
0.0009059794,-8.042800000000044e-06,-0.0013434156000000004,0.0012219936,0.004965098,3.69,0,0
0.0012863854,0.001325738,-4.8327600000000015e-05,0.0039196076,0.011039558000000001,3.691,0,0
0.0010367943999999999,8.144599999999978e-05,0.0012087424,0.0029487476,0.005358384,3.692,0,0
0.0004054041999999999,-0.0008387240000000001,-7.752560000000015e-05,0.0005595735999999998,-0.00012197000000000032,3.693,0,0
0.0004898837999999999,-0.0003215458360000002,-0.00031625800000000003,3.03619999999996e-05,-0.0001260600000000009,3.694,0,0
9.717179999999998e-05,-0.0020475618360000004,0.0005327681999999999,-0.0018302340000000005,-0.00604978,3.695,0,0
-0.0013519382,-0.004637623836000001,-0.0005170678000000001,-0.005349350000000001,-0.0132694,3.696,0,0
-0.0018224562000000001,-0.003177971036,-0.0019453318,-0.004941452000000001,-0.008342186,3.697,0,0
-0.0012073534000000001,-0.0009005550359999998,-0.0008916524000000002,-0.0024895460000000005,-0.0016120459999999994,3.698,0,0
-0.0016949592,-0.0008398020000000002,5.960960000000006e-05,-0.0021253918000000006,-0.0017819227999999999,3.699,0,0
-0.0023162932,0.00029930600000000005,-0.0002985385999999999,-0.0010723672400000002,0.0003207732000000003,3.7,0,0
-0.0014260371999999999,0.0026272780000000003,0.0005739234000000002,0.00092941076,0.0039062652,3.701,0,0
-0.0005101832,0.0030726712,0.0016627334000000001,0.0009211727599999999,0.0023415931999999995,3.702,0,0
-0.00056682,0.002010529,0.0016528046000000001,1.7738759999999998e-05,-0.0009695548000000002,3.703,0,0
-7.447219999999995e-05,0.0023475277999999997,0.0013290926,0.00083386056,0.0009760539999999999,3.704,0,0
0.0009733998000000001,0.0020891480000000003,0.0018472986,0.001440008,0.002308028,3.705,0,0
0.0005891383999999999,0.00036735600000000005,0.0005973986000000001,0.00079225106,0.001385616,3.706,0,0
0.0008385784000000001,0.0014966880000000001,-0.0014274574000000002,0.00263039106,0.007424634000000001,3.707,0,0
0.0017221824000000002,0.0025971782,-0.001283094,0.00464975306,0.009855742,3.708,0,0
7.634660000000013e-05,-1.7057800000000282e-05,-0.0021957340000000004,0.0027064630600000003,0.00264145,3.709,0,0
-0.0021298914,-0.0014842100000000006,-0.004637514000000001,0.0009628330600000002,-0.0005265399999999985,3.71,0,0
-0.0020823907999999998,-0.0011071312000000004,-0.005658308,0.0010561638000000002,-0.0015348399999999987,3.711,0,0
-0.0013307007999999998,-0.0029127932,-0.005327714000000001,-0.0008365462000000001,-0.00869506,3.712,0,0
-0.0012348228000000003,-0.0042496312,-0.006718054000000001,-0.0031168482000000003,-0.012289050000000001,3.713,0,0
0.0010103312000000002,-0.0014423132000000003,-0.006851576000000002,-0.0014263782,-0.0053578060000000005,3.714,0,0
0.0038129512000000003,0.0002613667999999999,-0.0030264280000000003,0.0007351838000000001,-0.0012092060000000004,3.715,0,0
0.0034093920000000002,-0.0010913960000000001,-0.000465334,0.000502583,-0.0018714720000000003,3.716,0,0
0.0017257400000000003,-0.0013732440000000002,0.00023463600000000014,0.00091053558,0.0006197953999999999,3.717,0,0
0.0006482618000000002,-0.0010838942,0.003267728,0.00164541558,0.0019264974000000002,3.718,0,0
-0.0005383862,-0.0019465262000000001,0.00584402,0.0006313715799999999,-0.0008153466000000002,3.719,0,0
-0.0015166592,-0.0015868882000000003,0.005081594,-0.0006859644200000001,-0.0021526166,3.72,0,0
-0.0008342352,0.0016523998000000002,0.006189368000000001,-0.00013858742000000013,0.0013727894,3.721,0,0
-0.0006181292,0.0026360418000000003,0.008034006,-7.759580000000003e-05,0.00183807,3.722,0,0
-0.001407461,0.002184282,0.005341567999999999,-0.00018444360000000008,0.00331814,3.723,0,0
-0.000530567,0.004100058,0.0033612060000000003,0.0021515384,0.01039116,3.724,0,0
-6.035999999999997e-05,0.0028624520000000006,0.0036347400000000005,0.0025805352,0.008614664,3.725,0,0
-0.0008581320000000002,-0.0008819779999999998,0.0012889560000000002,0.00015468320000000015,0.0007780239999999987,3.726,0,0
3.261599999999996e-05,-0.0009736619999999999,-0.00066129,-0.000616117,-0.0009783340000000008,3.727,0,0
0.001853508,-0.0009250739999999999,0.0006513700000000001,-0.0012180251999999998,-0.003490450000000001,3.728,0,0
0.001968646,-0.0034658060000000005,0.0011049360000000002,-0.0038895012,-0.011463630000000002,3.729,0,0
0.0015509319999999999,-0.00328413,-0.0005775820000000001,-0.004358944,-0.011010486000000002,3.73,0,0
0.0025067279999999997,-0.00016752400000000006,-0.000485392,-0.0013932100000000002,-0.0019940060000000004,3.731,0,0
0.0024478620000000003,0.001100268,0.00029788000000000004,0.00013789199999999992,0.0004958019999999996,3.732,0,0
0.0008890299999999999,0.001917892,-0.0006523939999999999,0.00014121199999999993,0.0006349559999999997,3.733,0,0
0.00024693739999999994,0.004050706,-0.0009425758,0.0008870387999999999,0.003785528,3.734,0,0
-0.0002962126000000001,0.004337252,0.00019434820000000007,0.0007424668000000001,0.003022389999999999,3.735,0,0
-0.0020549786,0.002413514,-9.210380000000001e-05,-0.0010394152,-0.0016580240000000001,3.736,0,0
-0.0027779864000000002,0.0011765699999999996,-0.0014597398,-0.0018671665199999998,-0.002007988,3.737,0,0
-0.0016724984,0.0008007561999999997,-0.0008285197999999998,-0.00075452652,0.0006784219999999998,3.738,0,0
-0.0018777378000000003,-0.0023285158,-0.0006073519999999999,-0.0007105721200000001,-0.0009652100000000002,3.739,0,0
-0.001442988,-0.0039087358,-0.002007638,0.00028423388000000006,0.00268951,3.74,0,0
0.0007413000000000001,-0.0018745738,-0.0007869839999999997,0.00305650188,0.009258904000000002,3.741,0,0
0.0003895038000000001,-0.0024890698000000003,0.00118445,0.0024219352,0.00501243,3.742,0,0
-0.0009519902000000001,-0.002838796,2.775600000000009e-05,0.0002745511999999997,-9.957999999999972e-05,3.743,0,0
-0.0002051642,-0.00030099200000000036,-0.0007593299999999999,0.00039056619999999954,0.0005787768000000007,3.744,0,0
0.00010993559999999998,0.00010671599999999997,-0.00010175960000000003,-0.0005757938000000002,-0.0033687231999999998,3.745,0,0
-0.0010837223999999998,-0.00274895,-0.0019558116,-0.0034076978000000006,-0.0098689032,3.746,0,0
-0.0013587444,-0.0029258440000000004,-0.0053385296,-0.0027432174,-0.005570291200000001,3.747,0,0
-0.0008179424,-0.0017803920000000002,-0.006253721600000001,-9.560939999999989e-05,0.0011204087999999997,3.748,0,0
-0.0011818562,-0.002627872,-0.006692277600000001,7.469240000000009e-05,0.0007523039999999996,3.749,0,0
-0.0019344018,-0.002299948,-0.007687880000000001,0.00019885640000000016,0.0014595900000000002,3.75,0,0
-0.0021571338,-0.001570048,-0.006529670800000002,0.0011094528000000002,0.003198184,3.751,0,0
-0.0018994118,-0.001655588,-0.004323928800000001,6.432400000000145e-06,0.00041231800000000006,3.752,0,0
-0.0015058710000000002,-0.0014414820000000002,-0.0024438430000000002,-0.0018920096,-0.003516616,3.753,0,0
-0.0006529792000000001,0.0001029220000000003,0.0009575729999999998,-0.0017394636000000003,-0.0019201840000000001,3.754,0,0
0.0011946708,0.0010165796000000003,0.005814789000000001,-0.0011116276000000002,-0.0005385100000000002,3.755,0,0
0.0025505568,0.0013649976000000004,0.007462491800000001,-0.0014111660000000002,-0.0020101880000000004,3.756,0,0
0.0041308628,0.004011803600000001,0.007584686,0.0008704800000000001,0.0037899659999999996,3.757,0,0
0.005533138,0.0048880016000000005,0.0094290302,0.003496494,0.0080599,3.758,0,0
0.004112746,0.0022351236000000005,0.008282610200000002,0.002066948,0.0026559559999999992,3.759,0,0
0.0022326979999999995,0.0015311640000000007,0.004326732200000001,0.0009084240000000002,0.00041391799999999966,3.76,0,0
0.0015702923999999997,0.002063058000000001,0.0029065728,0.0013428036000000003,0.0010741019999999993,3.761,0,0
-0.00013412360000000025,-0.000724456,0.0028946724,-0.0005468624000000001,-0.004783432000000001,3.762,0,0
-0.0024354176000000007,-0.0028562851999999997,0.0006194364,-0.0031760924000000003,-0.008975512000000001,3.763,0,0
-0.0022438016000000008,-0.0005123211999999999,-0.0014298176,-0.0016338644,-0.002309772,3.764,0,0
-0.0011776676,0.0012658107999999999,-0.0014092596000000002,0.0005107336,0.0025468260000000007,3.765,0,0
-0.0010757240000000001,0.0012290922599999998,-0.0018439922,0.0003002665999999999,0.0015991840000000005,3.766,0,0
-0.00017545400000000013,0.0021961662599999997,-0.002014184,0.0009007070000000002,0.0031012560000000006,3.767,0,0
0.00123262,0.00248874866,-0.0004682,0.0016267006000000002,0.003302900000000001,3.768,0,0
0.00153289768,0.00113904066,0.0007389040000000001,0.0006061866000000003,-0.0013672399999999996,3.769,0,0
0.00032404767999999994,0.00029674066000000005,0.00044757399999999995,-0.0007899214,-0.0046782360000000005,3.77,0,0
-0.0008680403200000002,0.0004064722000000001,0.0005346832000000001,-0.00015729200000000007,-0.0018268320000000002,3.771,0,0
-0.0017685923200000003,-0.0010455498,0.0007260088,8.851619999999992e-05,-0.001969308,3.772,0,0
-0.0028932183200000004,-0.0023010269999999998,-0.0017549512,1.0261000000000056e-05,-0.0016587140000000002,3.773,0,0
-0.0022830440000000006,-0.0009054109999999996,-0.0032803712000000003,0.002492101,0.0061898859999999995,3.774,0,0
-0.000702062,-0.0012752125999999997,-0.0019966992000000003,0.0035573090000000003,0.007159914,3.775,0,0
-5.1847999999999955e-05,-0.0031357056,-0.0021711704,0.0017848490000000002,0.001696511999999999,3.776,0,0
4.2705999999999886e-05,-0.0023011296,-0.002523872,0.0012967884,0.002321500799999999,3.777,0,0
-0.000612348,-0.0014527036,-0.0006759980000000002,0.0010792840000000004,0.002062458799999999,3.778,0,0
-0.00203206,-0.0025398376000000003,5.452799999999998e-05,-0.001704974,-0.004814751200000001,3.779,0,0
-0.0025521039999999995,-0.0012724960000000003,-0.0019599300000000004,-0.003145408,-0.0052944128,3.78,0,0
0.0001763180000000004,0.00347119,-0.001743385,-0.001044016,0.0019623472,3.781,0,0
0.0041068680000000005,0.005907896000000001,0.00041125899999999976,-0.00016866199999999987,0.0034474064000000002,3.782,0,0
0.005620668,0.005534186,0.000946601,-0.0006458039999999999,0.0015220304000000003,3.783,0,0
0.00542342,0.0056639522,0.0020209190000000004,0.000169712,0.0023704324000000006,3.784,0,0
0.004607924,0.0039102562,0.0039348790000000005,0.000180714,0.0006502540000000001,3.785,0,0
0.0015973079999999995,-0.0006968077999999995,0.003672846,-0.0017080139999999999,-0.004918126,3.786,0,0
-0.0022414080000000003,-0.0032632118,0.0010422920000000002,-0.002607934,-0.006377917,3.787,0,0
-0.002527389,-0.0021082138,-0.0003570519999999999,-0.0015182519999999999,-0.0032659609999999995,3.788,0,0
-0.0013379111999999999,-0.0025823680000000003,-0.001210486,-0.0018721739999999999,-0.004482991000000001,3.789,0,0
-0.0007961635999999999,-0.0029491260000000003,-0.0030669060000000003,-0.0014737297999999999,-0.0015914770000000004,3.79,0,0
0.00041596639999999995,-0.0003506799999999999,-0.002400738,0.0014814662000000001,0.006106803,3.791,0,0
0.0006436523999999999,0.00010864320000000006,-0.0004031080000000001,0.0016242510000000002,0.0038883640000000005,3.792,0,0
-3.0182600000000113e-05,-0.0014616788000000002,-0.0006245200000000003,3.691300000000018e-05,-0.00012129200000000027,3.793,0,0
-0.0005539844000000001,-0.0013242648,-0.0002828198000000001,0.0005717648000000002,0.00202989,3.794,0,0
-0.001082386,-0.0005104325999999999,0.0017392421999999999,0.00023755860000000006,-0.00012980200000000037,3.795,0,0
-0.0015368428000000001,-0.0012871766000000003,0.0013578205999999998,-0.0020757094,-0.00657373,3.796,0,0
-0.0014523254,-0.0008282798,-0.0003349234,-0.0013983822000000002,-0.002996316000000001,3.797,0,0
-0.0009980688,0.0008360102000000001,0.0002963174,0.0011874498,0.004732063999999999,3.798,0,0
-0.0013928868000000001,0.00015710020000000004,0.0003094184,0.001312312,0.004536336,3.799,0,0
-0.0013611508,-0.00127639,-0.0013863756000000002,0.001149892,0.003410204,3.8,0,0
-0.00017000400000000008,-0.0017763040000000003,-0.001579742,0.0016165712,0.004023354,3.801,0,0
0.0009478885999999998,-0.002390124,-0.001391064,0.0004598771999999999,0.0002469200000000003,3.802,0,0
0.0008947099999999998,-0.00382102,-0.0026751188,-0.0017186428,-0.005480575999999999,3.803,0,0
0.00038438800000000005,-0.0034489200000000003,-0.00310211,-0.0017930008000000002,-0.004944634,3.804,0,0
-0.000251266,-0.0014478800000000001,-0.0018959720000000001,-0.0010036248000000001,-0.0030377934,3.805,0,0
-0.0031691,-0.0012301416000000001,-0.0020330680000000003,-0.001836406,-0.0042720214,3.806,0,0
-0.005087180000000001,0.0006924043999999999,-0.0011570240000000002,-0.00028778599999999984,0.0013181385999999997,3.807,0,0
-0.0033698040000000005,0.004382590400000001,0.002730562,0.002463808,0.0065012746,3.808,0,0
-0.0009541659999999998,0.004855196600000001,0.004049368,0.0013413259999999999,0.0015883765999999992,3.809,0,0
0.001245772,0.0041482006,0.002933484,0.0002539339999999998,-2.3724000000001008e-05,3.81,0,0
0.003561616,0.0043202794,0.0037379780000000003,0.0012539180000000001,0.0027321100000000003,3.811,0,0
0.0043646074000000005,0.0022460234,0.004098526,-0.00023099200000000007,-0.0019113120000000003,3.812,0,0
0.0030884112,-0.0006435403999999999,0.0017086680000000002,-0.002753846,-0.006704094000000001,3.813,0,0
0.0022138112,0.0003531694,0.000577835,-0.0013023080000000003,-0.0002500540000000004,3.814,0,0
0.0017943872000000002,0.0014416674,0.0020831910000000003,0.000755912,0.004565204000000001,3.815,0,0
0.0011220592000000002,0.0002508421999999999,0.0021538770000000002,8.487399999999992e-05,0.0018088380000000003,3.816,0,0
0.0013275656000000004,-0.00010190580000000006,0.0005369950000000001,0.0002323379999999999,0.001900694,3.817,0,0
0.0019784098000000003,-0.0007889140000000002,-0.00040847699999999986,0.001158704,0.0021172199999999995,3.818,0,0
0.0020133358,-0.003167476,-0.001463444,-5.1972000000000064e-05,-0.00267234,3.819,0,0
0.0015419438,-0.00461884,-0.003973804,-0.0017929299999999999,-0.00635762,3.82,0,0
0.0018506618,-0.0030528260000000002,-0.0057997940000000005,-0.0008060299999999999,-0.00387337,3.821,0,0
0.0016258000000000002,-0.0017199740000000002,-0.0050627120000000005,-0.0001220739999999999,-0.0038587320000000006,3.822,0,0
-0.00045022599999999997,-0.0007935396000000001,-0.00555498,-0.0007900219999999998,-0.0037361340000000008,3.823,0,0
-0.001166422,0.0029839704000000004,-0.005125338,0.0015768400000000001,0.004250026,3.824,0,0
-0.0014528594,0.005176760400000001,-0.0004215600000000001,0.0031912680000000006,0.00659442,3.825,0,0
-0.0032894394,0.003478270400000001,0.002476984,0.0012592340000000004,0.0019467080000000001,3.826,0,0
-0.0039643234,0.0025060204000000004,0.00306186,0.000788258,0.0028742500000000005,3.827,0,0
-0.0032951094,0.0015719880000000003,0.0056653020000000005,0.0013106530000000002,0.0032570057999999997,3.828,0,0
-0.0037889314000000003,-0.0018790880000000005,0.006930782000000001,-0.0007846190000000001,-0.0034008482,3.829,0,0
-0.004450504000000001,-0.0035561162,0.0039112698,-0.0019540620000000003,-0.0043693502,3.83,0,0
-0.0029182148,-0.0014919442,0.0023290778000000004,0.0003971599999999999,0.0036348698000000005,3.831,0,0
-0.0013615628,-3.495219999999984e-05,0.0022417417999999996,0.001837172,0.0062382158,3.832,0,0
-0.0007575593999999999,0.0006128783999999999,0.00047860780000000004,0.0015633522,0.004386798000000001,3.833,0,0
-4.1822799999999914e-05,0.0010453324,-0.00021428300000000004,0.0019094659999999999,0.004805466,3.834,0,0
0.0006911177400000001,-0.00028985139999999996,0.0002445832,0.001553033,0.001963566,3.835,0,0
0.0009879445400000002,-0.0027362034,-0.0005309048000000001,-0.000634409,-0.004693354,3.836,0,0
0.00102879654,-0.004508157400000001,-0.0018886748000000002,-0.002175485,-0.007031394000000001,3.837,0,0
0.00201686714,-0.0035760120000000004,-0.0014296002,-0.0017647042,-0.004191442000000001,3.838,0,0
0.0027693705400000006,-0.001018138,-0.0014908534,-0.0025569300000000002,-0.005528016,3.839,0,0
0.0027890284,0.0028081160000000007,-0.0036747014,-0.0021685156000000004,-0.0031861100000000007,3.84,0,0
0.0029616224,0.006657176000000001,-0.0032090534,0.0015036263999999998,0.00483755,3.841,0,0
0.0018416724000000005,0.0068035080000000015,-0.0013986174000000001,0.0022345784000000002,0.003423952,3.842,0,0
3.486639999999996e-05,0.005109580000000001,-0.002663566,0.0008989204,-0.0005013000000000001,3.843,0,0
4.352840000000006e-05,0.002925200000000001,-0.002526582,0.001913103,0.002021902,3.844,0,0
0.00020338460000000007,-0.0016357599999999996,0.0004429640000000001,0.0016852325999999998,0.0008977779999999997,3.845,0,0
-0.0009250434000000001,-0.00600586,0.0008945536000000002,-0.0013343133999999999,-0.0050353640000000005,3.846,0,0
-0.0008231833999999999,-0.006127481999999999,-0.0005962103999999999,-0.0014819854,-0.0017732740000000005,3.847,0,0
0.00027100060000000007,-0.0045113079999999995,0.0003729042,0.0011119926,0.005636866,3.848,0,0
0.00016502660000000002,-0.004250145199999999,0.0014598102,0.001532814,0.0055676499999999995,3.849,0,0
9.236040000000013e-05,-0.0026161172000000003,0.0006276681999999999,0.000982006,0.004193996,3.85,0,0
0.00043151840000000007,-0.00020527520000000006,0.0005265409999999998,0.000931858,0.0037897459999999997,3.851,0,0
4.88404e-05,0.00023941879999999998,0.001339665,-0.00018123599999999988,-0.0007989460000000005,3.852,0,0
-0.0009943176,3.322479999999994e-05,0.0012390724,-0.002371464,-0.007035134,3.853,0,0
-0.0019438116000000001,0.0014670999999999998,-0.00034511560000000005,-0.0030665996,-0.007201682000000001,3.854,0,0
-0.0018614728000000001,0.00369722,-0.0010020096,-0.0020945666,-0.0051344688,3.855,0,0
-0.0019065588,0.0045337500000000005,-0.001410658,-0.0021640286,-0.0064378968000000005,3.856,0,0
-0.0011314146,0.0067262400000000005,-0.0014214726000000002,-0.0009668626,-0.0013146367999999995,3.857,0,0
0.0009908814,0.008501042,0.0013234494000000001,0.0015322054000000002,0.005000951200000001,3.858,0,0
0.0012507178,0.005776784,0.0032538114000000003,0.0012780410000000002,0.0015930132000000004,3.859,0,0
0.0005342445999999999,0.002220831999999999,0.0031831894000000005,0.0007204219999999999,0.00039330599999999995,3.86,0,0
0.0014275226000000003,-0.00012736000000000084,0.004025801400000001,0.001859752,0.0037485080000000002,3.861,0,0
0.0016425984000000005,-0.004280092,0.0040909860000000004,0.001174972,0.0005522479999999998,3.862,0,0
0.00012400180000000005,-0.00810158,0.0013329480000000002,-0.0009335560000000001,-0.003984896600000001,3.863,0,0
0.00019169320000000006,-0.00632521,-0.000724,0.000302498,0.0019259233999999997,3.864,0,0
0.0016238072,-0.0031440700000000005,-4.599400000000005e-05,0.002373038,0.0073448774,3.865,0,0
0.0016034892000000001,-0.0015524600000000003,0.00042447400000000004,0.0020256928000000002,0.0050304534,3.866,0,0
0.0009212592,0.001023328,0.00030211659999999994,0.0019790168,0.0042199894,3.867,0,0
0.0011679339999999998,0.0023684763999999997,0.0014602546,0.0020177448000000004,0.0035555379999999996,3.868,0,0
0.0011281511999999998,0.0010979044,0.0023913665999999996,0.0003628828,-0.0019989820000000007,3.869,0,0
0.0005752072,0.0006979283999999999,0.0008772626000000002,-0.0018798092000000001,-0.007324560000000001,3.87,0,0
0.00039166520000000004,0.0005289503999999998,-0.0008723674,-0.002273488,-0.005824766,3.871,0,0
0.00013741519999999996,-0.0025282976,-0.0012036746000000003,-0.002520202,-0.005467778,3.872,0,0
-0.0009304430000000001,-0.004230506,-0.0037894766,-0.0032967280000000005,-0.005953826000000001,3.873,0,0
-0.001347118,-0.0021552839999999995,-0.0061254586000000005,-0.0012232260000000004,0.001621534,3.874,0,0
-0.0009603760000000001,-0.0020820259999999994,-0.004726060000000001,0.0006385619999999999,0.005183672,3.875,0,0
-0.0014738035999999999,-0.0030818479999999994,-0.0047056680000000005,-0.00019204800000000022,0.0011134399999999994,3.876,0,0
-0.0013945716,5.768000000000006e-05,-0.005878731400000001,-1.2660000000000926e-06,0.0022182831999999998,3.877,0,0
-0.0001234316,0.0027454800000000002,-0.0033121514000000007,0.001029192,0.0038089891999999997,3.878,0,0
0.0007885924000000001,0.0013427866000000003,-4.447940000000018e-05,-0.00020631640000000006,-0.0021126168000000006,3.879,0,0
0.00047025240000000013,0.0007101846000000002,-8.67186000000001e-05,-0.0011189344000000004,-0.0038534088000000007,3.88,0,0
0.0009536840000000002,0.0029352186,0.0008797785999999999,0.0013827256000000002,0.003663431200000001,3.881,0,0
0.0016605200000000002,0.0031677626,0.0034311666000000005,0.0032885516,0.006541624000000001,3.882,0,0
0.0004023100000000001,0.0012883306,0.0038020686,0.0028573036000000005,0.004606668000000001,3.883,0,0
-0.0014070360000000002,0.0005012119999999998,0.0036989126,0.0023267239999999996,0.004761666,3.884,0,0
-0.0032193920000000006,-0.0014074200000000006,0.0045394772,0.0014343240000000003,0.0022341600000000007,3.885,0,0
-0.005265084000000001,-0.004926924000000001,0.0042574492,-0.0011316260000000002,-0.0042285,3.886,0,0
-0.006362006000000001,-0.006549584,0.0024247671999999996,-0.0033275400000000004,-0.007756924,3.887,0,0
-0.005158444,-0.0054097836,0.0012175799999999998,-0.0028655212000000003,-0.006104050000000001,3.888,0,0
-0.004278634,-0.004927793600000001,0.0001840818599999999,-0.0030457952,-0.007471302000000001,3.889,0,0
-0.0027334358,-0.0017113056000000006,-0.00203475814,-0.0031141592,-0.005549576200000001,3.89,0,0
0.0023444762,0.0056635944,-0.00237569534,-0.00035899520000000026,0.0032372838,3.891,0,0
0.0056678622,0.0087114224,-0.00085829934,0.0009966688,0.0041493784,3.892,0,0
0.0054368908,0.0087500438,-0.00113336414,0.00027601200000000007,0.0014161983999999989,3.893,0,0
0.0058837054,0.010663211799999999,-0.0011575219999999998,0.0010150062000000002,0.0047204303999999996,3.894,0,0
0.005589012400000001,0.0093381458,0.0006163780000000001,0.0009122522,0.004038354599999999,3.895,0,0
0.0018768124000000002,0.0030583897999999997,0.0010766362,-0.0016465318000000002,-0.0030194434000000003,3.896,0,0
-0.0008043556000000001,-0.0002709342000000001,6.274640000000003e-05,-0.0019895898000000006,-0.0014000879999999999,3.897,0,0
0.0003547238,0.00045773800000000007,0.0005382784,0.00029200220000000004,0.005718972000000001,3.898,0,0
0.0013659852000000002,-0.0004653359999999999,0.0008731084000000001,0.00103864,0.005684056000000001,3.899,0,0
9.966200000000014e-05,-0.0022362560000000003,-0.0005919676000000001,0.001038272,0.004291624000000001,3.9,0,0
-0.0009923460000000003,-0.00342828,-0.0014090458,0.0017077400000000001,0.004404196,3.901,0,0
-0.0010588640000000003,-0.005026256000000001,-0.001544176,0.0007990159999999998,0.00019200999999999984,3.902,0,0
-0.0019765879999999996,-0.006826098000000001,-0.002409898,-0.001832854,-0.00649283,3.903,0,0
-0.0027119652,-0.007085946000000001,-0.002981016,-0.00292596,-0.008347102,3.904,0,0
-0.0011857496000000003,-0.005464813999999999,-0.0015101199999999998,-0.0021348993999999997,-0.007211282000000001,3.905,0,0
0.00011007700000000004,-0.003447204800000001,-0.0010752860000000002,-0.0026858634,-0.009173956,3.906,0,0
0.0005082121999999999,0.0009421032,-0.002045064,-0.0013728873999999999,-0.00491948,3.907,0,0
0.0016446262,0.0048071512,-0.0007237260000000001,0.0019690766,0.0025786800000000003,3.908,0,0
0.0015460962000000001,0.0034552831999999996,0.000538148,0.0016388646,0.0011471760000000006,3.909,0,0
0.00044708460000000014,0.0015636752000000001,5.738400000000014e-05,0.000890662,0.0006091139999999998,3.91,0,0
0.0004580478000000002,0.0017850882000000003,0.0011267760000000001,0.0023534240000000002,0.0045135439999999995,3.911,0,0
0.0003310584000000002,-0.00019541580000000003,0.0030806180000000002,0.0015684544,0.001871812,3.912,0,0
-0.0007901396,-0.0027641438,0.0022642426000000003,-0.0007965450000000001,-0.0034810924,3.913,0,0
-0.0001924944,-0.0002816378000000002,0.0007422425999999999,0.000597125,0.0014834876000000001,3.914,0,0
0.0016527956,0.0025980842,0.0012222446,0.0029848390000000004,0.007108009600000001,3.915,0,0
0.0016680684000000001,0.0018693020000000002,0.0013530106000000002,0.002549313,0.005187323600000001,3.916,0,0
0.0010530246,0.0011760100000000001,0.0008809886000000001,0.0020865106,0.0041350996,3.917,0,0
0.0005080106,7.28640000000005e-05,0.00145758,0.0019501779999999997,0.003344144,3.918,0,0
-0.0006421094000000001,-0.0025538,0.0013253360000000003,0.00013314200000000016,-0.001916336,3.919,0,0
-0.0019467514000000002,-0.0043799,-1.6889999999999982e-05,-0.00242296,-0.007471594000000001,3.92,0,0
-0.00204672,-0.00409329,-0.0008185244,-0.0028284262000000003,-0.006251206,3.921,0,0
-0.0013989129,-0.0037783339999999995,-0.0008161123999999998,-0.0026657782000000002,-0.005408938,3.922,0,0
-0.0012818309,-0.0033312,-0.0019879444000000003,-0.0033850742,-0.006484058000000001,3.923,0,0
0.0004877831,0.0008743100000000001,-0.0025899484,-0.0009871562000000002,0.0007080819999999996,3.924,0,0
0.0018465331,0.003904678,-0.0008261704,0.0015713538000000002,0.00527392,3.925,0,0
0.0001084930999999999,0.0023345320000000003,-0.00047073000000000004,0.00065908,0.0010814079999999994,3.926,0,0
-0.00136461,0.001967504,-0.0011471080000000002,0.0007123180000000003,0.0018600819999999997,3.927,0,0
-0.0018080219999999998,0.0018558319999999998,0.00011407599999999996,0.0018349300000000002,0.004447706,3.928,0,0
-0.003576676,-0.0022171920000000006,0.0013846012,0.0001783340000000001,-0.0010521060000000001,3.929,0,0
-0.00508224,-0.0053508520000000006,0.0001063452,-0.001626535,-0.004002675999999999,3.93,0,0
-0.0027778180000000005,-0.002390876,-0.0006122328,0.00037286700000000003,0.0030820240000000005,3.931,0,0
0.001228362,0.0009286040000000002,0.00023198720000000014,0.0018604770000000001,0.0062502220000000015,3.932,0,0
0.004026606,0.002484362,-0.00012257759999999998,0.0009639810000000001,0.0037235820000000005,3.933,0,0
0.005991728000000001,0.00542318,-0.0003720488,0.00047331300000000027,0.0036166340000000014,3.934,0,0
0.007147428,0.0067222340000000005,0.0008906192,-0.0002050979999999997,0.002130552000000001,3.935,0,0
0.006185052000000001,0.003990026000000001,0.0019785372,-0.002186002,-0.003659288,3.936,0,0
0.003199194,0.0008341639999999999,0.001619594,-0.0037537760000000003,-0.0073537,3.937,0,0
0.0009001972000000002,-0.00019002779999999984,0.0017574748,-0.0030282660000000004,-0.005047834,3.938,0,0
-0.0015495948,-0.0030761798000000003,0.0023765368,-0.002654576,-0.006024484,3.939,0,0
-0.004107466800000001,-0.0045256478,0.00045443480000000014,-0.0020924702,-0.0054309879999999994,3.94,0,0
-0.0045645548000000005,-0.0012739918000000002,-0.0009103932000000001,0.0010301418,0.0024238920000000004,3.941,0,0
-0.0051653108000000005,-0.0003936744000000002,0.00046685400000000005,0.0024775498,0.0033709960000000002,3.942,0,0
-0.005834464000000001,-0.0012539406000000003,0.0002841928000000002,0.0012874538,-0.0005326339999999997,3.943,0,0
-0.003931794000000001,0.0010767034,-0.0007130611999999999,0.0017149786,0.0018712180000000009,3.944,0,0
-0.0014739440000000003,0.0029027854,0.00045193100000000003,0.0022387028000000002,0.0021573440000000003,3.945,0,0
-0.0006478760000000001,0.0015463414,0.0007919550000000001,-9.680920000000007e-05,-0.0043133,3.946,0,0
0.0010908239999999998,0.003662326,-0.0017666449999999998,-0.0009617624000000003,-0.00346112,3.947,0,0
0.003920574,0.008403558000000002,-0.0030701078,0.0016227616000000001,0.00421428,3.948,0,0
0.0038754320000000003,0.006399836,-0.0029166238000000004,0.0025223248,0.0051532999999999995,3.949,0,0
0.00204086,0.0008107280000000001,-0.0040091680000000005,0.0016602928000000001,0.0032125300000000003,3.95,0,0
0.0017444259999999999,-0.001046982,-0.004145192,0.0017415587999999999,0.00353349,3.951,0,0
0.001154411,-0.004259888000000001,-0.002433604,0.0009551000000000001,0.0005561579999999993,3.952,0,0
-0.0013816890000000002,-0.010658708000000001,-0.0013420874000000002,-0.0012854520000000003,-0.005033686000000001,3.953,0,0
-0.0022750498,-0.010977758,-0.00039141939999999987,-0.0022772000000000005,-0.005786178,3.954,0,0
0.00016468020000000002,-0.006067216,0.0029560326,-0.0015181720000000004,-0.0032451159999999997,3.955,0,0
0.0018273641999999998,-0.0045674988,0.0044805806,-0.002033636,-0.004808772,3.956,0,0
0.0027687112,-0.0018335428,0.0023879106000000002,-0.0014288502000000002,-0.0009563580000000003,3.957,0,0
0.0044306112,0.0039419772,0.0024765663800000006,0.0015451557999999997,0.006266146000000001,3.958,0,0
0.003710516,0.0041951272,0.00227681038,0.0017222515999999997,0.003668732000000001,3.959,0,0
0.0009524860000000002,0.0026617072,-0.0015342816199999999,0.0004508735999999994,0.0016084780000000004,3.96,0,0
-0.0013436140000000001,0.004028248,-0.00269051002,0.0012711787999999996,0.004799128000000001,3.961,0,0
-0.0036386359999999998,0.0025947706000000004,-0.00015566001999999988,0.0008002249999999997,0.0020479880000000006,3.962,0,0
-0.005792993999999999,-0.0013257033999999998,0.0010915576000000001,-0.001979263,-0.0037925218000000004,3.963,0,0
-0.005278224000000001,-0.0009786593999999997,0.0014573116000000002,-0.0012174307999999999,0.0006995422000000001,3.964,0,0
-0.002830982,0.0006627126000000002,0.0032271296,0.0017803852,0.006847294200000001,3.965,0,0
-0.0011967780000000001,-0.0009306734,0.0040601,0.0018402242000000002,0.005287528200000001,3.966,0,0
3.660599999999999e-05,-0.0016647580000000001,0.0029972122000000005,0.0016862561999999998,0.004048774200000001,3.967,0,0
0.0012762720000000002,-0.0013524140000000001,0.0017898392,0.0020738981999999994,0.0032003040000000006,3.968,0,0
0.0014358145999999999,-0.0020521260000000005,0.0009197598000000001,0.0002132741999999999,-0.002134656,3.969,0,0
3.351059999999993e-05,-0.002807654,0.0003580444,-0.0021049618,-0.007786854,3.97,0,0
-0.0013813314,-0.0020803980000000002,-0.00012547160000000003,-0.0018754499999999999,-0.0068436980000000005,3.971,0,0
-0.0020223794000000005,-0.0015554186,5.1541e-05,-0.0012094439999999998,-0.005918194,3.972,0,0
-0.0025161322000000004,-0.001495842,-0.001104114,-0.001780912,-0.007346294,3.973,0,0
-0.0011631928,0.0024906420000000004,-0.0028948906,0.00010278999999999996,-0.0008631940000000003,3.974,0,0
0.0008408071999999999,0.005640836,-0.0022744152,0.002039532,0.004044384,3.975,0,0
0.0014840552,0.00458818,-0.0019589932,0.00055707,0.0002775239999999999,3.976,0,0
0.0028600972,0.0045886572,-0.0028179600000000004,-5.794800000000005e-05,0.0011770679999999994,3.977,0,0
0.003979002000000001,0.004469172600000001,-0.0014057440000000002,0.0007665842600000002,0.004351752,3.978,0,0
0.0025284172000000003,0.0005978065999999998,0.0006450082000000002,-0.0008323197399999998,-0.00046643400000000016,3.979,0,0
0.0008781432,-0.0030310534000000003,-0.0005696777999999999,-0.00268638374,-0.00366442,3.98,0,0
0.0017576772000000005,-0.0011617854,-0.0021898138,-0.00045065573999999975,0.0034238600000000004,3.981,0,0
0.0031669832000000005,0.0014379100000000001,-0.0014075463999999997,0.00176981426,0.007083952000000001,3.982,0,0
0.003354053200000001,0.0017347058,-0.0009261063999999999,0.0016538288,0.004758670000000001,3.983,0,0
0.002913304000000001,0.0016298018000000004,-0.0013662685999999997,0.0019514308000000001,0.004982592000000001,3.984,0,0
0.0020731360000000006,0.0006260178000000003,-0.0013825525999999998,0.0019702788000000005,0.003556196000000001,3.985,0,0
0.0005353080000000002,-0.0019690821999999997,-0.0017307426000000002,0.00014048079999999974,-0.002356884,3.986,0,0
-0.0022109,-0.0043210048,-0.003322822,-0.0019123492,-0.006402060000000001,3.987,0,0
-0.0037017700000000005,-0.0031772826000000002,-0.004184247,-0.001506468,-0.004242162000000001,3.988,0,0
-0.0030214216000000005,-0.0015582046000000003,-0.0011905509999999998,-0.0011035756,-0.004776442000000001,3.989,0,0
-0.0022839716000000003,-0.0002393066000000002,0.0019490730000000004,-0.0014473175999999998,-0.004544030000000001,3.99,0,0
-0.0011306746000000003,0.0022730694,0.004474433,0.0004781264000000001,0.0029739700000000003,3.991,0,0
-0.00041581319999999997,0.002063933,0.008119855,0.0016303104000000002,0.004454102000000001,3.992,0,0
-0.0012398372000000002,-0.0005906310000000001,0.008164592799999999,6.722040000000013e-05,0.0005235819999999999,3.993,0,0
-0.0017335676000000003,-0.0009360914,0.004708158800000001,3.559940000000011e-05,0.002710906,3.994,0,0
-0.0010482996000000001,-0.0004382529999999999,0.0026006047999999993,0.0007642758000000001,0.003782796,3.995,0,0
-0.0008925026000000003,-0.0019231830000000002,0.0014878900399999998,-0.0011202082000000002,-0.0021121460000000005,3.996,0,0
-0.0004075340000000001,-0.001092178,-0.0010637319600000001,-0.0015934942,-0.0017524860000000004,3.997,0,0
0.002424374,0.002704246,-0.00117022496,0.0015556718,0.0059654140000000005,3.998,0,0
0.004087980000000001,0.0034154224000000006,0.0005462350400000001,0.0026094444,0.006873116,3.999,0,0
0.0037406268,0.0028256520000000005,0.00016803564000000007,0.00148615,0.0036646159999999994,4.0,0,0
0.0037953928,0.005255814,-6.50495999999999e-05,0.0014742940000000006,0.0029735539999999998,4.001,0,0
0.0027842508000000005,0.006186898000000001,0.0007464664,0.000333524,-0.00044984199999999956,4.002,0,0
-0.0005010672000000001,0.0037974137999999998,0.0004451826000000001,-0.0025014500000000005,-0.007147842000000001,4.003,0,0
-0.0036559632,0.0033952478,-0.0011114874000000001,-0.0037073338,-0.008576204,4.004,0,0
-0.005007478000000001,0.0044342358,-0.0010224112,-0.0024075318000000004,-0.004727192000000001,4.005,0,0
-0.006821182000000002,0.0005899938000000001,-0.0011485452,-0.0023962598000000002,-0.005341310000000001,4.006,0,0
-0.00792929,-0.0037346562000000003,-0.0030794432000000004,-0.0021288698,-0.002296288,4.007,0,0
-0.005594780000000001,-0.004274292,-0.0027238332000000002,0.0003835501999999997,0.005235552,4.008,0,0
-0.0012031359999999996,-0.005845588,-0.0017546732000000003,0.0003981825999999998,0.0030398460000000006,4.009,0,0
0.002495742,-0.007188354,-0.0029896059999999997,-0.0011126914000000004,-0.0005490259999999993,4.01,0,0
0.00455891,-0.005654976000000001,-0.0028370724,-9.288540000000015e-05,0.0019457880000000008,4.011,0,0
0.005140274000000001,-0.004344602,-0.0009583923999999997,0.0006648301999999998,-0.0002360379999999996,4.012,0,0
0.003326620000000001,-0.004833888,-0.0012442024,-0.0010598390000000001,-0.006299448000000001,4.013,0,0
0.00047900799999999973,-0.0035767176,-0.0020638363999999996,-0.00034043560000000003,-0.002304902,4.014,0,0
-0.000637142,-0.0007755715999999994,-0.0004281524000000001,0.0025959244000000005,0.004739238,4.015,0,0
-0.00018139399999999987,0.0003556444000000006,0.000334824,0.0029812104000000003,0.0040071686,4.016,0,0
0.0007130082000000002,0.0015247860000000004,-0.0002690780000000001,0.0025456208,0.0030956325999999994,4.017,0,0
0.0021283742000000002,0.0029370800000000003,0.0005076379999999999,0.002283204,0.0029028605999999995,4.018,0,0
0.0028729622000000007,0.0014010296,0.001717384,0.00042303200000000005,-0.0020221994000000007,4.019,0,0
0.0017796166000000001,-0.0018738804000000002,0.001873424,-0.002146952,-0.0081506834,4.02,0,0
0.000854185,-0.0026509180000000004,0.002129044,-0.0029056140000000004,-0.0079070932,4.021,0,0
0.0011044350000000002,-0.0023522522000000005,0.00315174,-0.0025696,-0.006088893200000001,4.022,0,0
0.0005556490000000001,-0.0029788722,0.002136704,-0.0029972680000000004,-0.0071469512,4.023,0,0
0.0004900850000000001,3.831799999999986e-06,-0.00015631000000000022,-0.0009001520000000001,-0.0009890911999999997,4.024,0,0
0.0010336846000000002,0.0036085318,-0.0008720020000000002,0.0019436079999999999,0.0050231328,4.025,0,0
-6.563579999999992e-05,0.0027639514000000003,-0.0021299860000000004,0.0009225179999999998,0.0015303599999999993,4.026,0,0
-0.0011410399999999998,0.0021288080000000003,-0.004516422000000001,0.00015339399999999984,0.0007403880000000002,4.027,0,0
-0.001177594,0.0026464254000000006,-0.004656110000000001,0.001276994,0.00305503,4.028,0,0
-0.0018927660000000002,0.0007008654000000003,-0.0032224686000000002,4.5051999999999744e-05,-0.0013611220000000006,4.029,0,0
-0.003092824,-0.0016231321999999999,-0.0033948766,-0.0019229268,-0.005226846,4.03,0,0
-0.0022995618,-1.4490199999999992e-05,-0.0035478926,0.00025374320000000003,0.0020010740000000003,4.031,0,0
-0.0007900078,0.0013722418,-0.0004062566,0.0027677092,0.007813406,4.032,0,0
-0.0005739600000000001,0.00030551640000000006,0.0031555014000000004,0.0023139568,0.006073802,4.033,0,0
-0.0007263780000000001,-8.924159999999987e-05,0.004504548000000001,0.0018655747999999999,0.005593136000000001,4.034,0,0
-0.0009036020000000001,0.0001107262000000001,0.005623474,0.0013264115999999998,0.003911364,4.035,0,0
-0.0009745110000000001,0.0005951122000000002,0.0061710034,-0.0003017504000000002,-0.0023794360000000004,4.036,0,0
-0.0010905709999999998,0.0012665262,0.0043752434,-0.0016615883999999998,-0.00685267404,4.037,0,0
-0.0014886087999999998,0.0020666513999999998,0.0017541654,-0.0018035800000000002,-0.00489965804,4.038,0,0
-0.0011936508,0.0014427233999999998,0.0008328714000000001,-0.002494296,-0.00535218004,4.039,0,0
9.197320000000004e-05,0.0004268751999999998,-0.0005197566000000001,-0.00292859,-0.00500182804,4.04,0,0
0.0018603540000000003,0.0009356211999999998,-0.001012068,-0.0006894259999999999,0.003414631960000001,4.041,0,0
0.003066132,0.0009502132000000002,0.0005056440000000001,0.0007420220000000004,0.00573709,4.042,0,0
0.003053436,0.0008210199999999999,0.0002327882,0.0003187040000000004,0.0017178360000000008,4.043,0,0
0.0022311099999999997,0.0023477986000000005,-0.0005930817999999998,0.0013965020000000004,0.003707047,4.044,0,0
0.0006911579999999997,0.0029265346000000004,0.00046468820000000017,0.0022341540000000003,0.004731797,4.045,0,0
-0.002162118,-0.0004130954000000002,0.0012172422,-3.5271999999999983e-05,-0.0022426810000000003,4.046,0,0
-0.005266556,-0.0036470474,-8.293919999999997e-05,-0.0018736182,-0.004258597000000001,4.047,0,0
-0.004800746800000001,-0.0034143659400000005,9.265940000000002e-05,7.164179999999995e-05,0.0031768630000000003,4.048,0,0
-0.0020371748000000004,-0.003518887340000001,0.0015748254,0.0017139798000000003,0.005841232,4.049,0,0
0.0007618632000000001,-0.003928433340000001,0.0012167206,0.0015265538,0.003785894,4.05,0,0
0.0045969672,-0.0019305693400000004,0.0007300186,0.001991702800000001,0.0038738,4.051,0,0
0.007463261200000001,-0.0003952157400000001,0.001026318,0.0017992290000000007,0.0017379920000000007,4.052,0,0
0.007180184,-0.0011562232000000001,0.0003137512,-0.0002899849999999999,-0.0043450680000000005,4.053,0,0
0.004801118,-0.0013258206000000001,-0.0014768008000000002,-0.002171699,-0.007525096000000001,4.054,0,0
0.002572832,-0.00022004259999999998,-0.001948586,-0.0017892032000000001,-0.005541221200000001,4.055,0,0
-0.0001223362,-0.00035311860000000007,-0.0019977040000000003,-0.0020738702000000003,-0.006716069200000001,4.056,0,0
-0.0024836802000000003,0.0007801518,-0.0035273620000000005,-0.0020613962,-0.004336649200000001,4.057,0,0
-0.0025519202,0.0036492058000000003,-0.0029493768000000004,0.0013063578000000005,0.0040775308000000005,4.058,0,0
-0.0026874742,0.0038381300000000004,-0.0007861668000000003,0.0029056758000000006,0.0043218528,4.059,0,0
-0.0040584722000000005,0.003147426,-0.0008831808000000001,0.0019205600000000004,0.0017863100000000006,4.06,0,0
-0.004547594,0.0035473860000000005,-0.0010051188,0.0023105854000000006,0.0045329540000000005,4.061,0,0
-0.0038396196,0.002273436,0.0002586590000000001,0.0017475774000000003,0.0027623860000000004,4.062,0,0
-0.0033562220000000003,-0.00029148999999999993,-0.0003369202,-0.0018630706,-0.004559566,4.063,0,0
-0.001663736,-0.00021122439999999993,-0.0027294042,-0.0033800186000000005,-0.00314049,4.064,0,0
0.0013507360000000002,0.0005824236,-0.0031029202000000004,-0.0014906085999999998,0.00332453,4.065,0,0
0.0019102300000000004,-0.0015026784,-0.0032774102,-0.0008976079999999999,0.0035743720000000006,4.066,0,0
0.0005978796000000001,-0.0028718164000000003,-0.004151692,-0.0007660700000000001,0.003206418000000001,4.067,0,0
-0.00030027799999999974,-0.0025522346000000002,-0.002503588,0.000663016,0.004455567800000001,4.068,0,0
-0.0017074579999999998,-0.0037974882,-1.680600000000007e-05,0.001103278,0.0019749498000000004,4.069,0,0
-0.002251632,-0.0045566062000000004,0.0006993492,-0.0002427900000000001,-0.0030086082000000004,4.07,0,0
-4.479600000000016e-05,-0.0016719662000000005,0.0009320072000000002,-0.0003956560000000001,-0.0037319626000000003,4.071,0,0
0.0025617339999999995,0.0010914177999999997,0.0020331202000000003,0.00045941800000000007,-0.0031680266,4.072,0,0
0.0029214,0.0010141715999999997,0.0021134102000000005,-0.00078665,-0.0058393044,4.073,0,0
0.0034979250399999997,0.0037709796,0.0016928782000000002,-5.8473999999999874e-05,-0.0017260763999999997,4.074,0,0
0.00390685104,0.0072325836,0.0033861290000000003,0.002294646,0.0035593816000000006,4.075,0,0
0.0007943230399999999,0.0046358916,0.005020791,0.0011572660000000001,-0.0002550299999999994,4.076,0,0
-0.0018348009600000002,0.0014364475999999998,0.0046453200000000005,0.0003215480000000003,-0.0013626199999999993,4.077,0,0
-0.00089289496,0.0013573120000000003,0.0038290700000000004,0.00174916,0.0014306140000000006,4.078,0,0
-8.39660000000001e-05,-0.0011389040000000003,0.0032977420000000006,0.0007055520000000001,-0.0026515700000000002,4.079,0,0
-0.0011524660799999999,-0.005304970000000001,0.0016544488,-0.002271764,-0.007413666000000001,4.08,0,0
-0.00032391568,-0.004015154,-1.2889199999999938e-05,-0.0014201860000000001,-0.001002746,4.081,0,0
0.00215556232,-0.0009378599999999998,0.0007642188000000002,0.000554288,0.004953094,4.082,0,0
0.00241061032,-0.0009238260000000001,0.0010535888,-0.00023392200000000007,0.0032992560000000004,4.083,0,0
0.00193636632,-0.000444796,4.4280000000007647e-07,-0.00025792400000000003,0.0034548000000000005,4.084,0,0
0.0016779824,-0.0001411199999999999,0.00010309798200000004,0.000752355,0.003716932000000001,4.085,0,0
0.00028728999999999994,-0.001818792,0.0002693779819999999,-0.00027353900000000005,-0.0010281780000000003,4.086,0,0
-0.00117748,-0.00241065,-0.0009195900180000001,-0.0021936610000000004,-0.0051492000000000005,4.087,0,0
-0.0018795398000000002,-0.0003660219999999997,-0.0017563100180000002,-0.001856736,-0.0024516440000000002,4.088,0,0
-0.0030438658000000005,0.0006012579999999999,-0.000870772018,-0.001604434,-0.0021178380000000004,4.089,0,0
-0.0042727958000000005,0.0009294500000000001,-0.001643594,-0.002117759,-0.00290872,4.09,0,0
-0.0029636258000000004,0.003905530000000001,-0.0026015660000000005,0.000499579,0.00418375,4.091,0,0
-0.0005796098000000001,0.005267542,-0.001258084,0.0026061670000000004,0.006542532,4.092,0,0
0.0011191600000000001,0.0036088848,-0.0009373681999999999,0.0014696519999999997,0.0013335200000000004,4.093,0,0
0.003531652,0.0042866448,-0.0012426109999999998,0.0018333678,0.0014089820000000002,4.094,0,0
0.0056012480000000005,0.0048946388,0.0004213729999999999,0.0026146138000000003,0.002050862,4.095,0,0
0.004972682000000001,0.0010813808000000001,0.002025705,0.0003165498,-0.004470346,4.096,0,0
0.0022405600000000004,-0.0023500332,0.0011901788000000001,-0.0011080842000000001,-0.00618917,4.097,0,0
0.0001852960000000001,-0.0027071179999999997,0.000950282,0.0011603858,0.0018675700000000003,4.098,0,0
-0.001102312,-0.003264502,0.0013342108,0.0025603559999999997,0.005979462,4.099,0,0
-0.0016970937200000002,-0.0030279919999999997,-0.0003745832,0.001711264,0.004661744000000001,4.1,0,0
-0.00112738772,-0.0007519460000000002,-0.0026891692,0.0008069799999999997,0.004612860000000001,4.101,0,0
-0.0013719137200000002,-0.0010658440000000003,-0.003908473000000001,-0.0002992160000000006,0.002599726,4.102,0,0
-0.00277116172,-0.0036904980000000004,-0.005709636000000001,-0.0023385160000000006,-0.0034420660000000006,4.103,0,0
-0.00367977172,-0.004626609,-0.008060434000000002,-0.004106670000000001,-0.006783797,4.104,0,0
-0.0033215559999999994,-0.003580963,-0.007964342000000001,-0.0031525540000000006,-0.004585285000000001,4.105,0,0
-0.0029565727999999996,-0.003029547,-0.0059857396000000005,-0.0021211920000000005,-0.005180353,4.106,0,0
-0.0023597788,-0.0013295610000000002,-0.004364603600000001,-0.0013984360000000003,-0.0031127670000000002,4.107,0,0
8.253120000000012e-05,0.003081149,-0.0013353796,0.001259716,0.004418185,4.108,0,0
0.0014796732000000002,0.003435532,0.0022891104000000006,0.0021841,0.003515872,4.109,0,0
0.0007059592000000002,0.0008813240000000002,0.0025394584,0.0009443539999999999,-0.00020579599999999984,4.11,0,0
0.0008379220000000002,0.0007503300000000002,0.0029687560000000008,0.0014275701999999996,0.0022697679999999997,4.111,0,0
0.0013072494,0.00013387399999999997,0.005603628000000001,0.0017299589999999999,0.0003464939999999993,4.112,0,0
0.0003456574,-0.002365196,0.0058515600000000004,-0.0005635150000000001,-0.00662699,4.113,0,0
-0.00031069380000000007,-0.001984484,0.004401604400000001,-0.0013898010000000002,-0.004320094,4.114,0,0
0.0003739202,0.0005025100000000001,0.006243594400000002,0.00023059699999999992,0.0028866860000000003,4.115,0,0
0.00039702019999999995,-0.00020792800000000002,0.0077500124000000024,0.0005344448,0.003414368000000001,4.116,0,0
0.0002101147999999999,-0.0006919059999999999,0.005632022400000001,0.00012709199999999993,0.0031477400000000004,4.117,0,0
0.0008195188,0.0004095294,0.0049515124,0.0008527539999999998,0.004791756000000001,4.118,0,0
0.00099936,-0.0005534566,0.005023764,0.0009140615999999999,0.002313898,4.119,0,0
0.000435368,-0.0023319026000000005,0.0029247960000000008,-3.0392400000000018e-05,-0.00234985,4.12,0,0
-0.00043995000000000015,-0.0017876286,0.00011605799999999983,0.0001847436,-0.0019975500000000003,4.121,0,0
-0.0006006220000000001,-0.0002780476,-0.0009403660000000001,0.0005933378,0.00011678999999999992,4.122,0,0
-0.0008246136000000002,-0.0004598248,-0.002134496,-0.00044231819999999994,-0.0018949820000000001,4.123,0,0
-0.0006190856000000003,0.0014898592000000001,-0.004217412,0.0006710862000000001,0.0021954640000000003,4.124,0,0
0.0009393263999999999,0.004532207200000001,-0.003272388,0.0023420922,0.007763412000000001,4.125,0,0
0.0014301816,0.0037971112000000002,-0.001658218,-0.00018835579999999992,0.0021716060000000013,4.126,0,0
0.0008560995999999997,0.0031462662,-0.002187832,-0.002359324,-0.0018674599999999987,4.127,0,0
0.0006192169999999998,0.003946794,-0.001992016,-0.0017801619999999998,-0.0006193519999999999,4.128,0,0
0.00025271919999999984,0.0025576711999999997,-0.0005453500000000002,-0.0030546040000000003,-0.005515294,4.129,0,0
-0.0005855628000000001,0.0004485972,-0.0010661380000000001,-0.0050165240000000005,-0.011101741999999998,4.13,0,0
0.00016383799999999992,0.0019252272000000003,-0.002227078,-0.0025859200000000002,-0.004328282000000001,4.131,0,0
0.002160792,0.0034097792000000004,-0.0008523080000000001,0.0009005260000000002,0.0033267979999999993,4.132,0,0
0.0024585662,0.0013233712,0.0002699059999999999,0.0009252160000000002,0.0026722819999999998,4.133,0,0
0.002004312,-0.00011909400000000014,-3.981200000000007e-05,0.0006027620000000004,0.002907684,4.134,0,0
0.002056306,-0.0007078891999999999,0.00018920739999999989,0.0012731440000000004,0.003034507999999999,4.135,0,0
0.0018213940000000003,-0.0021233712000000003,0.0006815803999999999,0.00014182600000000028,-0.0018315720000000007,4.136,0,0
0.000355054,-0.0034707072000000005,-7.770700000000005e-05,-0.001531908,-0.006197014000000001,4.137,0,0
-0.00125992,-0.0034400152,-0.0011314570000000002,-0.00078754,-0.0033860900000000005,4.138,0,0
-0.0023699339999999998,-0.0038340772000000005,-0.000541731,-0.0002546916,-0.0019639140000000006,4.139,0,0
-0.004364624,-0.00523938,-0.0014104744000000002,-0.0012595436000000001,-0.002846576,4.14,0,0
-0.005434504,-0.0037260520000000005,-0.0028547174000000002,0.0005783483999999999,0.004101464000000001,4.141,0,0
-0.005334106,-0.001953766,-0.0017547920000000002,0.0026579184,0.007474686000000001,4.142,0,0
-0.004977438,-0.001590546,-0.0010228300000000002,0.0012574744000000003,0.00225423,4.143,0,0
-0.0025245439999999997,0.0005330259999999998,-0.0012106940000000004,0.0009884860000000002,0.002144604,4.144,0,0
0.0009097900000000002,0.0027659860000000002,0.0002722679999999999,0.00198903,0.003541375599999999,4.145,0,0
0.002615982,0.001968324,0.0018139940000000002,0.00018089599999999994,-0.0025414324000000007,4.146,0,0
0.003552914,0.0015960500000000001,0.00025006400000000004,-0.0016352650000000001,-0.005251768400000001,4.147,0,0
0.0053712840000000005,0.004660559999999999,-0.000670074,0.0005757290000000001,0.0020709715999999998,4.148,0,0
0.005090588,0.005660498,0.00039291,0.002567783,0.0056036816,4.149,0,0
0.0025591620000000002,0.0045576720000000005,-0.0002519694,0.0023490029999999997,0.004011662000000001,4.15,0,0
0.0009587199999999999,0.0044239612,-0.0012122554,0.002584951,0.0048151620000000004,4.151,0,0
-0.00019902000000000006,0.0031283952000000005,-0.00023664340000000006,0.0022488599999999997,0.003511,4.152,0,0
-0.0016761260000000004,-6.144279999999993e-05,8.53599999999999e-05,-2.5723999999999973e-05,-0.0021164620000000004,4.153,0,0
-0.0021523420000000007,-0.0023536608,-0.001210184,-0.002259504,-0.005637594000000001,4.154,0,0
-0.0009788480000000003,-0.0021311838,-0.0005261185999999998,-0.0021404862,-0.00343604,4.155,0,0
-0.000657344,-0.003006239,0.0009084794000000002,-0.0021657022,-0.004684992000000001,4.156,0,0
-0.000370684,-0.0034513490000000003,5.060140000000008e-05,-0.0021541501999999997,-0.0045794880000000005,4.157,0,0
0.0014410380000000002,-0.0008986570000000002,0.0004094064000000001,0.0005118738,0.0024258540000000003,4.158,0,0
0.0013114668000000001,-0.0004922049999999999,0.0024503644,0.0017228118,0.0020977620000000004,4.159,0,0
-0.0005845492000000001,-0.002550744,0.0018922006000000001,0.0005982380000000001,-0.002111438,4.16,0,0
-0.0010777012,-0.0022397320000000004,0.001154843,0.0009974184,0.0004026359999999994,4.161,0,0
-0.0014932612000000001,-0.001964614,0.002568663,0.0005118504000000001,-0.0003073260000000008,4.162,0,0
-0.0030310092000000004,-0.003953628000000001,0.0022364242000000004,-0.0024999076,-0.007641366,4.163,0,0
-0.0023697560000000006,-0.0027828540000000004,0.00029780620000000003,-0.0032745034000000004,-0.006370690000000001,4.164,0,0
0.000507062,0.0003489999999999999,0.0006216280000000002,-0.0010316774000000005,0.0014249500000000008,4.165,0,0
0.0016712300000000001,-3.258399999999989e-05,0.0013850436,-9.28678e-05,0.002255432000000001,4.166,0,0
0.0016231840000000002,-0.0008640759999999999,0.0003832738,0.00028999620000000017,0.0019371380000000006,4.167,0,0
0.0015353819999999996,-0.0005780482,0.0004511571999999999,0.0018240362000000003,0.004037654799999999,4.168,0,0
0.0001866779999999999,-0.0022074762000000004,0.0013116072,0.00186813,0.0014373628,4.169,0,0
-0.000841888,-0.0035853402000000003,0.0006193752000000001,-0.00017637800000000015,-0.0048792772000000005,4.17,0,0
0.0001728719999999999,-0.0015569182,-0.0007616268000000001,-0.0012864584000000002,-0.0062955882000000005,4.171,0,0
0.0020218560000000003,0.0009196518000000003,-0.0007311736000000001,-0.0010885364000000001,-0.0045884182,4.172,0,0
0.0022053700000000003,0.0005137000000000002,-0.0008889206000000001,-0.0026907004,-0.0071001350000000005,4.173,0,0
0.0019259799999999999,0.0015744496000000005,-0.0024988086,-0.0025378156,-0.003148713,4.174,0,0
0.001613274,0.0034325896000000004,-0.0021270552,7.51924000000001e-05,0.0045946070000000006,4.175,0,0
-0.0009580860000000001,0.0011353076,-0.0015402086000000001,-0.0003385631999999999,0.0025440020000000005,4.176,0,0
-0.0032795800000000007,-0.0012863964000000001,-0.0035108760000000004,-0.0014318911999999999,3.7762000000000646e-05,4.177,0,0
-0.002444412,-0.00026828640000000004,-0.004670634,2.437800000000263e-06,0.0031352100000000007,4.178,0,0
-0.0006561259999999999,-0.00010370399999999998,-0.004309892,-0.00039141499999999983,-0.0003835679999999995,4.179,0,0
-0.0008395403999999999,-0.0010618740000000002,-0.0051913714,-0.002811043,-0.0063540900000000015,4.18,0,0
0.0006472515999999999,0.001304528,-0.00555859,-0.0017507350000000002,-0.0018803700000000001,4.181,0,0
