bandpass 1,bandpass 2,bandpass 3,bandpass 4,bandpass 5,time,onset,mark
-0.003539228,-0.000316514,-0.0014329665999999997,0.002843128,0.00211566,4.248,0,0
-0.004599638,-0.000884954,-0.0010922305999999998,0.0018942799999999997,0.001852006,4.249,0,0
-0.003521998,-0.00045393600000000005,-0.0005295105999999998,0.00166366,0.002090524,4.25,0,0
-0.0022222119999999995,3.1847600000000024e-05,0.0029253274000000003,-0.00012785200000000002,0.000706818,4.251,0,0
-0.0015615339999999994,-0.0017143384,0.003640138,-0.0019678960000000002,-0.000774846,4.252,0,0
0.0013109840000000003,-0.001255344,0.003671858,-0.0001731660000000002,-0.00020709800000000007,4.253,0,0
0.002161104,-0.0004781280000000001,0.006242062,0.000516468,-0.0007396760000000001,4.254,0,0
-0.000869412,-0.001768838,0.006628958000000001,-0.002577352,-0.0033905940000000002,4.255,0,0
-0.0014575656,-0.0009995396,0.004622458000000001,-0.003858072,-0.004044726,4.256,0,0
-8.19359999999986e-06,0.0020889304000000003,0.003932122000000001,-0.0035826412,-0.0033172000000000006,4.257,0,0
-0.00021895560000000016,0.0035135700000000006,0.0025134320000000003,-0.005538799200000001,-0.0037236596000000005,4.258,0,0
0.0008578064000000003,0.004237042000000001,-0.001747922,-0.005933437200000001,-0.0029138187000000005,4.259,0,0
0.0038893484,0.004768108,-0.004332706,-0.0018983212000000002,0.0002724813,4.26,0,0
0.003972020000000001,0.0029111420000000002,-0.004800196,0.0009558248,0.0018415093000000002,4.261,0,0
0.0024248219999999997,-7.702800000000025e-05,-0.0059576080000000005,0.001460146,0.0016683335,4.262,0,0
0.0024438420000000003,-0.0015505926000000001,-0.005750320000000001,0.0035390680000000002,0.0025137591,4.263,0,0
0.0012768260000000002,-0.0028808965999999997,-0.0038989740000000004,0.005187926000000001,0.0027003702,4.264,0,0
-0.001662,-0.0051512706000000005,-0.0021954414000000004,0.0037941240000000003,0.0012262322,4.265,0,0
-0.002726858,-0.005299862600000001,-0.0011739531999999998,0.0023166128000000003,9.95262e-05,4.266,0,0
-0.0015085000000000003,-0.0031068726000000003,0.0006749828000000001,0.0023799848,0.00030782999999999993,4.267,0,0
-0.002468524,-0.0018806779999999998,0.0021652788,0.0006365046,-0.0003466008000000001,4.268,0,0
-0.0019070200000000004,0.0007261780000000001,0.0013841368,-0.00010367540000000004,-0.00030262679999999996,4.269,0,0
0.00202412,0.005691218,0.0023256342,0.0020739666,0.0012818352,4.27,0,0
0.0017419640000000001,0.006522728,0.004697998,0.0010952458,0.0001654231999999999,4.271,0,0
-0.0008489559999999999,0.0034084919999999995,0.0034739900000000006,-0.0021242882000000003,-0.0019001188000000002,4.272,0,0
-5.3823999999999734e-05,0.0012663839999999997,0.0014895519999999997,-0.0026428420000000003,-0.0017704900000000002,4.273,0,0
0.0004035840000000001,-0.0003092760000000006,0.0016489651999999997,-0.0028816231000000003,-0.001689334,4.274,0,0
-0.0011153540000000003,-0.001060006000000001,-0.0007885608000000004,-0.004929635100000001,-0.0025366058,4.275,0,0
0.0004236219999999999,0.0001859439999999994,-0.0052070408,-0.004193729100000001,-0.0011219154,4.276,0,0
0.0026382439999999997,0.000670318,-0.005238306800000001,-0.0003413590999999999,0.0015125566000000002,4.277,0,0
0.0014343419999999997,-0.00014445199999999978,-0.0036305888,0.0012284649000000002,0.0018542626,4.278,0,0
-0.00035685200000000017,-0.0017480219999999997,-0.00329618,0.0014244500000000003,0.0019076466,4.279,0,0
-0.0015736760000000002,-0.00448115,-0.0003126539999999999,0.0032785100000000005,0.0028073564,4.28,0,0
-0.0025652360000000003,-0.005017530000000001,0.0033513120000000004,0.0038355112000000003,0.00246119,4.281,0,0
-0.002208606,-0.0014233499999999999,0.0039184,0.0017536772000000004,0.0008263160000000001,4.282,0,0
-0.0005984179999999998,0.0021442500000000003,0.002855916,0.0008089388600000001,0.00015338500000000016,4.283,0,0
-1.0571999999999925e-05,0.0028620280000000004,0.002909384,0.00112200486,-9.587319999999997e-05,4.284,0,0
-0.00137769,0.002233716,0.0014719244,-0.00032856634,-0.0015774912,4.285,0,0
-0.001162594,0.0005517500000000004,-0.0009395216,0.00041488046000000007,-0.001166585,4.286,0,0
-0.0009450740000000001,-0.0030865480000000006,0.0006363984,0.0026572644600000002,-9.737899999999998e-05,4.287,0,0
-0.0021178300000000002,-0.007226084000000001,0.0022956523999999997,0.0007509788000000001,-0.001924672,4.288,0,0
0.0003049220000000002,-0.007712154,0.0011304583999999997,-0.0014510412000000002,-0.0032534898000000003,4.289,0,0
0.004480782,-0.005331595999999999,0.0009961159999999998,-0.00100151,-0.00262999,4.29,0,0
0.0049902512,-0.0031988999999999997,0.0018307197999999998,-0.0019611036000000003,-0.0029417248,4.291,0,0
0.0029842472,-0.0007267819999999996,-0.0002600262000000001,-0.0041634456,-0.0030853034,4.292,0,0
0.0022679151999999998,0.0034011040000000003,-0.0024874322000000004,-0.0022273454,-0.00047985539999999987,4.293,0,0
0.0005128941999999997,0.006510686000000002,-0.0014759984000000002,0.0008590066000000001,0.0018978786000000002,4.294,0,0
-0.0018692878,0.0057088826,-0.0008596344000000001,0.0009938566000000002,0.0023210588000000002,4.295,0,0
-0.001094889,0.0045619166,-0.0009308426000000002,0.0017081742,0.0030290374,4.296,0,0
0.0007276950000000001,0.0043979326000000004,0.0006748774000000001,0.0035052302000000003,0.0035131800000000003,4.297,0,0
0.0008786810000000001,0.0030696026,0.0025833274000000004,0.002977074,0.0021241740000000004,4.298,0,0
0.000250866,0.0015840946,0.0022468376000000004,0.0007341020000000003,0.0004553980000000001,4.299,0,0
0.00013384400000000015,0.001185984,0.0012532536000000002,0.00047295580000000033,0.0003842980000000001,4.3,0,0
-0.0016645000000000002,-0.0006802479999999996,0.001673982,-0.00012815979999999982,8.478800000000006e-05,4.301,0,0
-0.002682306,-0.0030987939999999998,-0.0006168480000000001,-0.0017300998,-0.0006868431999999999,4.302,0,0
0.0006559959999999998,-0.003330484,-0.00344669,0.0002879782000000002,0.0009863248,4.303,0,0
0.00326966,-0.0041605465999999995,-0.0025520580000000003,0.0018574562,0.0019454148,4.304,0,0
0.0031098059999999997,-0.0048666846,-0.0030745380000000004,-0.00039931160000000005,0.00017981479999999977,4.305,0,0
0.00393325,-0.0028300318,-0.005789422000000001,-0.001264374,-0.0003170972000000001,4.306,0,0
0.004021849599999999,-0.0010361004,-0.005235292000000001,-0.0008421752000000001,-0.0001288289200000002,4.307,0,0
0.00011747759999999993,-0.0018567044000000002,-0.0034395088000000007,-0.0029986632,-0.00152286292,4.308,0,0
-0.0026928924,-0.0016857798000000002,-0.004678050800000001,-0.0042387952,-0.0021773355200000004,4.309,0,0
-0.0016199504000000003,0.0005814142,-0.0037224660000000007,-0.0015604312000000002,-0.00036744952000000003,4.31,0,0
-0.0026198864000000002,0.0012402454000000002,0.00011004600000000015,0.00026105879999999994,5.050068000000011e-05,4.311,0,0
-0.004804834,0.0017422499999999999,0.0018426200000000001,0.00044718074000000006,-0.0005475803999999999,4.312,0,0
-0.004136138,0.00360012,0.0031178868000000005,0.0015798847400000002,-4.834799999999994e-05,4.313,0,0
-0.0032696800000000005,0.004163328000000001,0.0056528268,0.00207490274,-0.00040078340000000007,4.314,0,0
-0.0035709500000000007,0.0032833548000000003,0.006318044,0.00034667274,-0.0015223354000000002,4.315,0,0
-0.0017555520000000003,0.0032229548000000004,0.00451835,-0.00143433926,-0.001633375,4.316,0,0
0.0029413480000000003,0.0053494948,0.003918796,-0.0014191216,-0.00021695900000000018,4.317,0,0
0.005213954000000001,0.0061958628,0.0037198440000000004,-0.0023818295999999996,0.00033871660000000007,4.318,0,0
0.005193052000000001,0.0035795348000000004,0.0015431819999999997,-0.0024323106,0.0013889666000000004,4.319,0,0
0.00528437,0.0010785979999999992,0.0015206680000000002,0.0009400754000000004,0.0037758286000000004,4.32,0,0
0.002714432,-0.0009152300000000002,0.0038713600000000003,0.0020886514,0.0037903754000000005,4.321,0,0
-0.0008077840000000004,-0.0043451720000000004,0.0034093366,0.00044375700000000035,0.0017800994000000002,4.322,0,0
-0.0018765660000000005,-0.006525484800000001,0.0023093774,0.0009319122000000003,0.0008368433999999999,4.323,0,0
-0.0026839520000000003,-0.0054016668000000006,0.0031380014,0.0011662594000000004,-0.00021940460000000007,4.324,0,0
-0.004475614000000001,-0.0034714748000000007,0.0019592734000000002,-0.0015675186,-0.0027836006,4.325,0,0
-0.003880328,-0.0004991607999999999,-0.0022730966,-0.0018686178,-0.003201958,4.326,0,0
-0.002008498,0.0013926592000000002,-0.0042496372,0.0013052801999999999,-0.001360008,4.327,0,0
-0.002727264,-0.00021895799999999978,-0.004941714,0.002537021,-0.0008320839999999999,4.328,0,0
-0.00370483,-0.0004466019999999996,-0.007312606,0.0023604068,-0.00070938,4.329,0,0
-0.002643616,0.0004294860000000003,-0.0073829920000000005,0.0030853468000000004,0.000315702,4.33,0,0
-0.00052507,-0.0006688459999999997,-0.004522948000000001,0.0025581580000000005,0.0002427900000000001,4.331,0,0
0.0010556760000000002,-0.0010782419999999997,-0.002733409,-0.00027589400000000005,-0.001005568,4.332,0,0
0.0027804,0.00011425600000000013,-0.001981875,-0.0022119160000000004,-0.0010971913999999999,4.333,0,0
0.004959888000000001,0.00024995400000000015,0.000781813,-0.0020569192000000004,-0.00047562539999999995,4.334,0,0
0.00477983,-6.185239999999991e-05,0.0013888940000000001,-0.0029122892000000003,-0.0010606513999999998,4.335,0,0
0.0040076512,0.0004974756000000001,-0.00045204200000000005,-0.0020680672000000003,-0.0001479074,4.336,0,0
0.0019757852000000004,0.0008352936000000002,0.0013363350000000001,0.0012281087999999997,0.0015959866,4.337,0,0
-0.0034564608,0.0007442996000000001,0.0032174870000000006,0.0012188448,0.000419158,4.338,0,0
-0.0064407228,0.0006931236000000003,0.0017265490000000004,-4.1694000000000106e-05,-0.0006558420000000001,4.339,0,0
-0.0042679728,0.0011525020000000001,0.0015395344000000005,0.001284912,8.510599999999994e-05,4.34,0,0
-0.00205407,0.0014100980000000003,0.0032931944000000007,0.001156958,-0.0002263514000000001,4.341,0,0
-2.3264000000000704e-05,0.0014184840000000002,0.0024803404000000003,-0.001437238,-0.0012770518,4.342,0,0
0.0060690959999999995,0.0019778342,0.0005420410000000002,-0.000521662,0.00021429620000000006,4.343,0,0
0.010584596000000002,0.0023946202,0.0009269336,0.0021894059999999996,0.0022237261999999997,4.344,0,0
0.009242642000000002,0.0016260821999999997,0.0010957582,0.0019081599999999999,0.0020251786,4.345,0,0
0.006235797999999999,0.0003510904,-0.00017277380000000004,0.0017463445999999997,0.0017643196,4.346,0,0
0.0027259280000000003,-0.0008248824,-0.0008504866,0.0028254525999999998,0.0018064668,4.347,0,0
-0.002154952,-0.0020403006000000003,-0.0010369552,0.0015340546,0.0004609047999999998,4.348,0,0
-0.007104932000000001,-0.0029206786,-0.0017761738000000003,-0.0013832654,-0.0012168272000000003,4.349,0,0
-0.008718486000000001,-0.0032158386,-0.0018348708000000002,-0.0018837922,-0.0010484376000000001,4.35,0,0
-0.00870898,-0.0032638228000000003,-0.0003062548000000001,-0.0019666628,-0.0009109602000000002,4.351,0,0
-0.007849498000000002,-0.0032369402000000007,-0.0011359080000000001,-0.0032345628,-0.001330383,4.352,0,0
-0.0024232379999999994,-0.0007969782000000003,-0.0021897640000000003,-0.0011657487999999997,0.00021089700000000004,4.353,0,0
0.002355196,0.0020023078000000003,-0.000183082,0.0014042952000000001,0.0008105324000000001,4.354,0,0
0.002357352,0.0023346910000000003,-0.00014973000000000005,-6.325800000000006e-05,-0.0008224335999999999,4.355,0,0
0.0023431279999999994,0.0024914576,-0.0018465620000000002,-0.000987968,-0.0006943345999999999,4.356,0,0
0.0027054279999999997,0.0025868817200000002,-0.0006903460000000001,-0.00020987599999999982,0.0002838434000000001,4.357,0,0
-9.445160000000001e-05,0.0013510583200000003,0.001166628,-0.001722422,-0.0005536824000000001,4.358,0,0
-0.0023149256,-0.00025910448,-0.00012288359999999994,-0.0033375600000000003,-0.0006300058,4.359,0,0
-0.0001906996,-0.00045333568,-0.00015716699999999994,-0.000972234,0.0013473842000000001,4.36,0,0
0.0016308404,-0.00046082588,0.0018209850000000002,0.0012429820000000003,0.0014879682,4.361,0,0
0.0019859284000000002,-0.0008051538,0.0015073220000000002,0.0009770520000000004,0.00026928020000000006,4.362,0,0
0.003155296,-0.0002540184,0.0007630680000000002,0.0012525500000000003,0.0004470140000000001,4.363,0,0
0.004196692,0.0014083264000000002,0.0014888436000000003,0.0013237499999999998,0.00020991400000000006,4.364,0,0
0.0034358208000000003,0.0022093564,0.0014552532000000002,-0.0005664239999999998,-0.00127096,4.365,0,0
0.0013164388000000003,0.0010856219999999998,-0.00022778280000000005,-0.002602156,-0.001994348,4.366,0,0
0.00015447680000000013,0.0004400939999999997,-0.000227884,-0.0021151620000000003,-0.001064924,4.367,0,0
-0.0011608752,-0.00011703400000000021,0.0005291699999999999,-0.001837273,-0.001098148,4.368,0,0
-0.0015295772000000001,-0.0007861480000000001,-0.001256502,-0.0014225134000000002,-0.0011395200000000002,4.369,0,0
0.0001989400000000001,-0.0006174480000000003,-0.0014175842,0.0022248226,0.001209262,4.37,0,0
-6.73939999999997e-05,-0.0009796980000000002,0.0010028878,0.003973480600000001,0.001995082,4.371,0,0
-0.0015508519999999997,-0.0016295760000000002,0.0007138390000000002,0.0024778785999999995,0.00062856,4.372,0,0
-0.0012968752399999995,-0.001315288,-0.0003529369999999999,0.0023649476000000003,0.0009808699999999998,4.373,0,0
-0.0021276312399999995,-0.001850418,0.001286231,0.0019569500000000003,0.001620268,4.374,0,0
-0.00545096324,-0.0032560120000000004,0.0013871670000000001,-0.0013770740000000003,-3.643060000000003e-05,4.375,0,0
-0.0054643832400000005,-0.0023010400000000003,-0.001504203,-0.002718752,-0.00032118800000000003,4.376,0,0
-0.0019674512399999997,-0.00023191399999999995,-0.001728354,-0.00015275599999999999,0.0016917320000000003,4.377,0,0
-0.000893886,-0.000775656,-0.0005591919999999999,0.0010279100000000002,0.0017764380000000002,4.378,0,0
-0.0006555693999999995,-0.002130072,-0.0016201599999999998,0.0006817760000000001,0.001162664,4.379,0,0
0.0016449546000000003,-0.00107216,-0.0014861451,0.0011578279999999996,0.0012321618000000001,4.38,0,0
0.0035452065999999997,0.0006892840000000003,0.00034078889999999994,0.000620274,3.0209200000000077e-05,4.381,0,0
0.0028268526000000006,0.0015820340000000002,0.0004137289,-0.001967612,-0.0018284888000000001,4.382,0,0
0.0021955006,0.00320627,-0.0006784431000000001,-0.0033903220000000003,-0.0021245652,4.383,0,0
0.0027253420000000004,0.005028970000000001,0.00032185889999999993,-0.002515622,-0.0015578852000000002,4.384,0,0
0.00110573,0.00386238,0.000604566,-0.002624498,-0.0018493624000000004,4.385,0,0
0.0007122720000000001,0.002238318,-0.0010904320000000001,-0.0010640120000000002,-0.00024591840000000005,4.386,0,0
0.002314074,0.002248702000000001,-8.213999999999986e-06,0.0027228720000000003,0.0020032616000000003,4.387,0,0
0.0008690900000000001,0.0003209580000000001,0.0020861660000000004,0.0030647344000000005,0.0012309640000000002,4.388,0,0
-0.000485718,-0.0024116500000000004,0.0013487520000000002,0.0017404964000000001,0.000334186,4.389,0,0
0.001915514,-0.00268615,0.0013390300000000002,0.0022285430000000004,0.000918,4.39,0,0
0.0021041140000000002,-0.003077044,0.003217622,0.001204977,-0.00022145000000000004,4.391,0,0
-0.0017645939999999995,-0.00517176,0.001838582,-0.002066243,-0.002258202,4.392,0,0
-0.0018525199999999996,-0.004379812,-0.0013366500000000002,-0.0019721564000000002,-0.001098496,4.393,0,0
-0.0001246859999999994,-0.0013400020000000005,-0.0013171020000000001,0.0006241276000000001,0.0003632679999999999,4.394,0,0
-0.0020975639999999997,0.0002636679999999998,-0.0014155076000000005,0.0007732370000000002,-0.0003045360000000001,4.395,0,0
-0.002915024,0.0026154159999999997,-0.0027332196,0.00032209299999999997,-0.0002407020000000002,4.396,0,0
-0.0004838119999999999,0.005035154000000001,-0.0013257276000000003,0.0009199620000000001,0.00018702879999999987,4.397,0,0
0.00032218199999999996,0.004323686000000001,0.0005439944,4.966999999999927e-06,-0.0010698272000000003,4.398,0,0
-0.0003942064400000001,0.003237831200000001,0.0003974164000000002,-0.0020905010000000003,-0.0022771572,4.399,0,0
0.00103522956,0.004065149200000001,0.000636426,-0.0019923670000000005,-0.0013028712000000002,4.4,0,0
0.00170899156,0.0036167392000000004,0.001929128,-0.0010752050000000003,-0.0003785712,4.401,0,0
0.00046572355999999985,0.0017887632000000004,0.0007399440000000002,-0.0015777280000000002,-0.000492878,4.402,0,0
0.00191976756,0.0013164952,-0.00047812799999999986,0.000588526,0.0011449960000000001,4.403,0,0
0.0026204540000000004,0.0011151028,0.001572464,0.003315096,0.0024401880000000003,4.404,0,0
-0.000903512,-0.0006119671999999999,0.001765236,0.002018932,0.000676858,4.405,0,0
-0.002944288,-0.0018846232000000003,0.00020719800000000002,0.001289822,-0.0001973359999999999,4.406,0,0
-0.003057558,-0.0011194032000000002,0.0011762320000000001,0.00216531,0.00030201999999999985,4.407,0,0
-0.005210850000000001,-0.0012255192,0.0021704648,0.00014634600000000021,-0.00108464,4.408,0,0
-0.006243930000000001,-0.002791594,5.0982800000000036e-05,-0.002772724,-0.0019863048,4.409,0,0
-0.00237628,-0.002824336,-0.0013199892000000002,-0.001453266,0.00017967520000000009,4.41,0,0
0.0012997800000000004,-0.002690298,-0.0012833432000000002,0.00021805800000000014,0.0013987272,4.411,0,0
0.0017617759999999998,-0.00464213,-0.0035300512000000003,-0.00017376079999999996,0.0008504452000000002,4.412,0,0
0.0016502780000000005,-0.005808636000000001,-0.0058063279999999995,0.0003588368,0.0013512832000000003,4.413,0,0
0.001299128,-0.005355238,-0.006563754,0.0005636567999999999,0.000964514,4.414,0,0
-0.00032600400000000007,-0.005408634,-0.007131907999999999,-0.0010868272000000001,-0.0009907380000000001,4.415,0,0
-0.0015883200000000003,-0.0048164160000000004,-0.00751627,-0.0026873892000000006,-0.0018837560000000003,4.416,0,0
0.0004783019999999999,-0.0023475840000000006,-0.005893192,-0.0019114124000000005,-0.001167496,4.417,0,0
0.0026090140000000006,0.0002919479999999999,-0.002414516,-0.0015534620000000002,-0.0012196256000000002,4.418,0,0
0.0037799500000000007,0.002037788,-0.0007959460000000001,-0.0010549530000000002,-0.0007343894,4.419,0,0
0.005967264,0.004008126,0.0016674480000000002,0.0027887149999999998,0.0020519106,4.42,0,0
0.0047159160000000006,0.005068522000000001,0.006503926,0.0050351530000000005,0.0025549806,4.421,0,0
0.0006082320000000002,0.005037478,0.008403042000000001,0.003503669,0.0008203205999999996,4.422,0,0
-0.000623786,0.006472216,0.008028808000000002,0.0028624110000000005,0.0011202681999999999,4.423,0,0
-0.001523322,0.007400152,0.009328434,0.0025935479999999998,0.0012290159999999999,4.424,0,0
-0.004804836000000001,0.004845264,0.0089861,-0.0012140120000000002,-0.000727964,4.425,0,0
-0.005182694000000001,0.0005607319999999991,0.0050429,-0.004079480000000001,-0.0008998776000000001,4.426,0,0
-0.0011259740000000007,-0.002340744,0.003628012,-0.002331732000000001,0.0008683064,4.427,0,0
0.0015018879999999996,-0.004873692000000001,0.00394108,-0.001183912,0.0006939333999999999,4.428,0,0
0.001485696,-0.007198962000000001,0.002299734,-0.0014249820000000004,-0.0004728246,4.429,0,0
0.0015270120000000003,-0.005804548000000001,0.001045832,-0.00033727399999999993,-0.0009029246000000001,4.43,0,0
0.00018419200000000012,-0.001277634,0.00034183200000000014,0.00016853400000000002,-0.001658663,4.431,0,0
-0.0031037899999999995,0.002338718,-0.0021714620000000003,-0.001558682,-0.002671985,4.432,0,0
-0.00573607,0.0034244680000000004,-0.005498412,-0.0022378752,-0.002295476,4.433,0,0
-0.00610557,0.0031750219999999996,-0.006368726,-0.0007787092000000001,-0.0006288000000000002,4.434,0,0
-0.005133956,0.0018674239999999997,-0.00715057,-0.0007292008,-0.00015909360000000017,4.435,0,0
-0.0001294759999999999,0.0004235979999999999,-0.00872961,0.0005597172000000001,0.0010567004,4.436,0,0
0.005992946000000001,-0.00046491000000000045,-0.006295276,0.004125757200000001,0.0034815664000000003,4.437,0,0
0.006978342000000001,-0.00033988200000000033,-0.002337108,0.004329926400000001,0.0031056718000000002,4.438,0,0
0.007266718000000001,0.0011632219999999998,-0.0013194580000000008,0.0024154544,0.0018148638000000002,4.439,0,0
0.0076413812,0.001087398,0.0008221519999999996,0.0024407284000000002,0.0021834334000000004,4.44,0,0
0.0042645272,-0.0007238339999999998,0.0050224499999999995,0.0009057304000000005,0.0010544554000000003,4.441,0,0
-0.0008454608000000001,-0.00194465,0.005661454000000001,-0.0033756296,-0.0016107866,4.442,0,0
-0.0019168108,-0.0022310579999999997,0.003434824,-0.0040892656,-0.001596208,4.443,0,0
-0.0009978928,-0.0022611579999999997,0.0030889520000000003,-0.0018141356000000001,-0.00047465600000000006,4.444,0,0
-0.00198669,-0.0017044319999999999,0.002390072,-0.00148007,-0.001178024,4.445,0,0
-0.002231596,-0.00012774540000000005,0.000275912,-0.001088874,-0.001341366,4.446,0,0
-0.0011757260000000002,0.0010737446,7.205800000000017e-05,0.0008611160000000002,-0.0005828437999999999,4.447,0,0
-0.0009145520000000002,0.0007710147999999998,0.0006219642000000001,0.000918864,-0.0011645257999999999,4.448,0,0
-0.0016800620000000002,-0.0001605912000000002,-0.00014845180000000002,-0.000739188,-0.0018070148,4.449,0,0
-0.0006563357000000001,-6.828520000000025e-05,-0.0009235878,-0.00037266999999999997,-0.0007148287999999999,4.45,0,0
-2.9543700000000115e-05,-0.00037639900000000024,-0.00023845579999999994,0.000489838,0.00029327320000000005,4.451,0,0
-0.0018862877,-0.001634653,-0.0017560817999999999,-0.00023181800000000017,7.808100000000008e-05,4.452,0,0
-0.0020618143,-0.0014151592,-0.003726376,0.0017410300000000002,0.0015327510000000002,4.453,0,0
-0.0015830525,-0.0003142532000000001,-0.0016132960000000004,0.004586772,0.0029942060000000006,4.454,0,0
-0.0022818568,0.00043139880000000005,-0.0005728340000000004,0.0033072060000000005,0.0014822720000000004,4.455,0,0
-0.0007253828,0.0017958940000000001,-0.0022000340000000005,0.002101088,0.0006376480000000003,4.456,0,0
0.0017629452,0.003061794,-0.0013840134000000005,0.002314890400000001,0.001145778,4.457,0,0
0.0016246198000000002,0.0028520462,0.0008039745999999996,-0.0004757075999999997,-0.0001265539999999999,4.458,1,1
0.00151515586,0.0024218910000000002,-0.0005379034000000003,-0.0041466996,-0.0018945900000000002,4.459,0,0
0.0033726938600000004,0.002586887,-0.0012686054000000003,-0.0033983264000000003,-0.000722142,4.46,0,0
0.0032668398599999997,0.002119907,0.0014579706,-0.0019465864000000003,0.000490414,4.461,0,0
0.00117754586,0.000715737,0.002546108,-0.0024261768000000006,-0.000137866,4.462,0,0
0.0011361498599999995,0.0006608594000000001,0.0020888852000000005,-0.0015664048000000002,-0.00017688399999999993,4.463,0,0
0.0009590447999999998,0.0010318726000000003,0.0030518012000000008,-0.0005392848000000002,-0.00023384199999999995,4.464,0,0
-0.0019932692000000003,-0.0010799294,0.0034084410000000003,-0.0015778160000000001,-0.0012910859999999999,4.465,0,0
-0.0037878892,-0.0028609974,0.0008972770000000001,-0.0021911900000000004,-0.001719544,4.466,0,0
-0.0022513612,-0.0021349234,-0.000752967,-0.000391906,-0.00040538399999999995,4.467,0,0
-0.001988023,-0.0020391102,-0.00028919419999999996,0.00022876599999999982,4.114880000000002e-05,4.468,0,0
-0.0020865137999999997,-0.0023064951999999996,-0.0025442662000000004,0.0003439197999999999,0.0002485008,4.469,0,0
0.0011327682000000002,-0.00028211719999999993,-0.004217732,0.0034937898,0.0023496348,4.47,0,0
0.0024345942,0.0010454368000000001,-0.001804026,0.0049522258,0.0025734708,4.471,0,0
0.0012162522000000002,0.0009383442,-0.0012717159999999998,0.0026174238,0.0001362548000000002,4.472,0,0
0.001638466,0.0014662384,-0.0020788039999999996,0.0018418598000000002,-0.00022018999999999972,4.473,0,0
0.001061748,0.0016645774000000003,0.0006420460000000004,0.001547736,0.00024014000000000001,4.474,0,0
-0.002320478,0.0005304674000000003,0.0030348460000000003,-0.001773644,-0.001722704,4.475,0,0
-0.003458516,-0.0005279145999999996,0.0015621749999999998,-0.003993576,-0.00274149,4.476,0,0
-0.001048234,-2.7219999999999783e-05,0.0014396486000000002,-0.002232744,-0.0009367400000000001,4.477,0,0
-0.0005689679999999993,-0.00030635399999999973,0.0027999445999999997,-0.00136039,-0.00017104999999999996,4.478,0,0
-0.0002664519999999996,-0.001257738,0.0015239582,-0.002130206,-0.0009267480000000001,4.479,0,0
0.0025441680000000003,-0.0009408859999999999,0.0002354901999999999,-0.001219736,-0.0003447276,4.48,0,0
0.0035491060000000002,-0.0008630920000000001,0.000347563374,-0.0007428159999999999,0.00028262019999999993,4.481,0,0
0.0017654000000000003,-0.001837358,-0.0010255562260000003,-0.002085912,-0.00016304640000000005,4.482,0,0
0.0013580320000000001,-0.0019910455999999997,-0.003808306226,-0.0020810480000000003,-0.00017322840000000002,4.483,0,0
0.002653888,-0.0011946978,-0.004001853826,7.642799999999991e-05,0.0008407176,4.484,0,0
0.0016714528000000002,-0.0006734798,-0.0035138635460000003,0.0002800779999999999,0.0007148236,4.485,0,0
0.0019072808000000002,0.0011762742,-0.005245533720000001,0.001048452,0.0008219690000000001,4.486,0,0
0.0036292288000000002,0.0029396842,-0.00347539772,0.004564188,0.0024160036,4.487,0,0
0.0010148668000000004,0.0021747518,0.0006641762800000004,0.005061258,0.0014625476000000002,4.488,0,0
-0.0023670312,0.0014921340000000004,0.0009978502800000004,0.0031720440000000006,-0.00033747240000000004,4.489,0,0
-0.0028385540000000005,0.0023842540000000006,0.0014224800000000003,0.0029303020000000005,9.571520000000008e-05,4.49,0,0
-0.004551564,0.002024744,0.0045052700000000005,0.0017279700000000005,-0.00023247600000000002,4.491,0,0
-0.007200448000000001,0.00028774199999999985,0.004658802,-0.0023246,-0.002223574,4.492,0,0
-0.0048135394000000005,0.00020194999999999979,0.0020945600000000005,-0.004048042,-0.0018544310000000001,4.493,0,0
-0.0010501114,0.0005138133999999999,0.0027679720000000005,-0.0024077460000000005,0.0001425510000000001,4.494,0,0
-0.0005797475999999998,-0.0007621606000000002,0.0034284760000000006,-0.0019371780000000001,-0.00022675919999999995,4.495,0,0
0.0005085664000000001,-0.0020685986000000003,0.0012680880000000005,-0.002111526,-0.0009560872,4.496,0,0
0.0028730904,-0.0021362386,0.0005100320000000001,-0.000986318,-0.00046083519999999995,4.497,0,0
0.0032061038,-0.0020253826000000003,0.0008887062000000001,-0.00049232,-0.0008829062,4.498,0,0
0.0020046136000000003,-0.0018650016000000002,-0.0007510978,-0.001509806,-0.0015204366,4.499,0,0
0.0027735838000000003,-0.0007283396000000001,-0.0031356098000000004,-0.001014638,-0.00030816640000000026,4.5,0,0
0.0031972258,0.0001804503999999999,-0.0027001398000000005,0.0004275739999999999,0.0012238036,4.501,0,0
0.0009427418,0.00020138840000000007,-0.0030300578000000003,9.170199999999993e-05,0.0016699116,4.502,0,0
0.0011033798,0.0009590186000000003,-0.004623156000000001,0.002113298,0.0038595816,4.503,0,0
0.0022047720000000007,0.0011613646000000002,-0.00247951,0.005274364,0.0052645719999999995,4.504,0,0
-0.0009089599999999999,-0.00022023939999999992,1.8221999999999813e-05,0.00408861,0.0030176020000000003,4.505,0,0
-0.0036647320000000004,0.0005425066,-1.111800000000012e-05,0.0027298739999999993,0.0014830520000000001,4.506,0,0
-0.0033537540000000005,0.0029647246,0.0013165440000000002,0.003178504,0.0007687780000000003,4.507,0,0
-0.004466538,0.0019757663999999996,0.0034807460000000003,0.00021765200000000004,-0.002013822,4.508,0,0
-0.0056530526,-0.0010810900000000007,0.0023621889999999998,-0.004325570000000001,-0.004478336,4.509,0,0
-0.0027128306000000005,-0.0023156320000000006,0.001144861,-0.004190366,-0.003044994,4.51,0,0
-8.569460000000008e-05,-0.004582906,0.0026454350000000002,-0.002420696,-0.0012955880000000003,4.511,0,0
-0.0009368846,-0.007592064000000001,0.002900555,-0.0024716336,-0.0014454440000000002,4.512,0,0
-0.0007987606000000001,-0.0061812640000000005,0.0019037750000000001,-0.0016905855999999999,-0.001208486,4.513,0,0
0.0013519040000000001,-0.0018284559999999996,0.0023517600000000005,-0.00018580060000000017,-0.0008557,4.514,0,0
0.0023126840000000006,0.0013719720000000004,0.0025696100000000004,-0.0004324926,-0.0017046140000000001,4.515,0,0
0.0027892440000000006,0.0032331820000000002,0.0009765080000000002,-0.0016001666,-0.0027450774,4.516,0,0
0.004884086000000001,0.0041963098800000005,0.00016062900000000002,-0.0009490410000000002,-0.0014630913999999998,4.517,0,0
0.004635656000000001,0.00323351988,0.0007697510000000002,-3.0337000000000018e-05,-3.636339999999979e-05,4.518,0,0
0.00139571,0.00164005008,-0.0016576450000000001,0.00014825679999999999,0.0006619072000000001,4.519,0,0
0.0006670299999999999,0.0016300580800000003,-0.003917095000000001,0.0029400248000000006,0.0031497432,4.52,0,0
-0.0001385418000000001,0.0020302900800000002,-0.002827581,0.005222914800000001,0.0047144146,4.521,0,0
-0.0024975938000000005,0.0025555882,-0.004180062000000001,0.0038012608,0.0034024346000000004,4.522,0,0
-0.0019356829120000005,0.0035573822000000005,-0.00652088,0.0032128251999999995,0.0027178732,4.523,0,0
-0.0008318711120000002,0.003404108,-0.005252812,0.0030020938000000002,0.0024415006000000003,4.524,0,0
-0.0024163751120000005,0.0014989020000000003,-0.0040927739999999995,-0.0006217422000000003,-5.537940000000007e-05,4.525,0,0
-0.0025869593120000003,-0.00010402400000000014,-0.005588398,-0.0036080702,-0.0018575454,4.526,0,0
0.0009435506880000001,8.781000000000001e-05,-0.004528987599999999,-0.0022322602,-0.0007730154000000001,4.527,0,0
0.0028948458000000003,0.00035986000000000004,-0.0008857116,-0.0016035885999999997,-0.00042265200000000003,4.528,0,0
0.002582366,0.00014856200000000009,0.0014581884,-0.002444362,-0.0013640360000000001,4.529,0,0
0.0029269940000000005,-0.0001251440000000001,0.0039852144,-0.001569236,-0.00121706,4.53,0,0
0.0028961114000000004,-0.00025320400000000004,0.0070695804,-0.0010528,-0.001383478,4.531,0,0
0.0011771794000000001,-0.001043731,0.00826121,-0.0022928740000000003,-0.002800784,4.532,0,0
-0.0003245546000000001,-0.002864189,0.0067827842,-0.0026317594,-0.0029879080000000005,4.533,0,0
0.0012172113999999999,-0.002849627,0.0054126482,-0.00045396940000000017,-0.0013835260000000002,4.534,0,0
0.0024380954,-0.0016272950000000002,0.00378428124,0.00042792859999999977,-0.0009549280000000001,4.535,0,0
0.003075424,-0.0010987559999999998,-0.00027218676000000043,0.0012614605999999998,0.00014078799999999987,4.536,0,0
0.004277726000000001,-0.0009753345999999998,-0.00229803876,0.0047606746000000005,0.003115534,4.537,0,0
0.0015158239999999998,-0.0013629406,-0.0016967489600000002,0.00574617,0.003575734,4.538,0,0
-0.0030080080000000004,-0.0016697046,-0.00269457296,0.00354522,0.0024286240000000003,4.539,0,0
-0.004800744000000001,-0.0014017625999999997,-0.0026497274000000007,0.00294337,0.0026172316000000004,4.54,0,0
-0.006996100000000001,-0.0007286336,0.00044521860000000003,0.002234086,0.0016596716000000004,4.541,0,0
-0.010701996000000002,-0.000568512,0.0017822526,-0.0014714120000000005,-0.0014468444,4.542,0,0
-0.010144112,-0.00035608600000000003,0.00030324059999999996,-0.0031713620000000005,-0.0022224424,4.543,0,0
-0.0051634160000000005,-0.00014081,0.0008469366,-0.001201682,-0.0009126403999999999,4.544,0,0
-0.0017709700000000006,-0.001388998,0.001767042,-0.0006568160000000001,-0.001561306,4.545,0,0
-0.0004911080000000007,-0.0030394560000000003,0.0004509222,-0.001486538,-0.00214891,4.546,0,0
0.0016911754000000004,-0.0031018820000000003,0.00027178620000000006,-0.0010276679999999998,-0.0013187198,4.547,0,0
0.0034405114000000004,-0.0015056880000000007,0.0012395996,-0.0009930540000000002,-0.0014510277999999998,4.548,0,0
0.0016819472000000003,-0.0006653340000000003,3.0756000000001574e-06,-0.00249884,-0.0021582421999999995,4.549,0,0
-0.0008170808000000001,-0.00034460000000000014,-0.0024976144,-0.0028129588000000002,-0.0012047001999999996,4.55,0,0
-0.0005920522000000001,0.0006066725999999999,-0.0025355134,-0.0014558048,0.00017077580000000013,4.551,0,0
0.0009518544,0.0010322665999999998,-0.0030454374,-0.0012915108000000001,0.00016263240000000015,4.552,0,0
0.0041545544,0.0016880646000000002,-0.0045784148,0.00023361919999999997,0.0015098024000000001,4.553,0,0
0.006730562600000001,0.0029202526,-0.0023606228000000004,0.0034018532,0.0033758168000000005,4.554,0,0
0.006305172600000001,0.0035107226,0.00037694719999999994,0.0033956976,0.0025448488000000004,4.555,0,0
0.006174518,0.003543704600000001,0.00019222799999999996,0.0026539575999999995,0.0015024708000000002,4.556,0,0
0.005008716,0.0033821986000000005,0.000872282,0.0034062896,0.0017135756000000004,4.557,0,0
0.0006775460000000002,0.0018783406000000002,0.0024446900000000002,0.0016412276000000003,0.0004932495999999998,4.558,0,0
-0.00281837,-0.0005197474,0.00100847,-0.0021514664,-0.0015739324000000002,4.559,0,0
-0.0023810078000000004,-0.0013796254,-0.000746708,-0.0022707146000000003,-0.0007514504000000001,4.56,0,0
-0.0015210637999999999,-0.0010714700000000001,0.000386036,-0.0006792146,0.0007850435999999999,4.561,0,0
-0.001722321,-0.0010536,0.0009489340000000001,-0.0013336906,-0.0001404300000000001,4.562,0,0
0.0005766270000000001,0.0011066200000000004,0.00043397000000000005,-0.0017230146000000003,-0.0009779940000000003,4.563,0,0
0.003675965,0.004305546,0.001542332,-0.0010591586000000004,-0.0011132540000000002,4.564,0,0
0.0039665216,0.0041469340000000006,0.002569776,-0.0020234920000000004,-0.0023333760000000003,4.565,0,0
0.0032373192,0.002953666000000001,0.0012531600000000003,-0.0038142160000000005,-0.0030434792000000005,4.566,0,0
0.0028788944,0.002884560000000001,0.00010877000000000011,-0.002820032,-0.0013606852000000004,4.567,0,0
-0.0009126236000000006,0.0007879000000000001,0.000845306,-0.0012770140000000006,9.357279999999994e-05,4.568,0,0
-0.0052943256,-0.0022335280000000002,-0.001127916,-0.0009888560000000002,0.0005615918,4.569,0,0
-0.0036702984000000004,-0.000682972,-0.0033902,0.001881654,0.0028721438,4.57,0,0
-0.0024775120000000003,0.0012940520000000002,-0.0014891359999999998,0.004649469999999999,0.003931141000000001,4.571,0,0
-0.003979892000000001,-9.67539999999999e-05,-0.0003623159999999997,0.003099886,0.0019929950000000004,4.572,0,0
-0.0015243348,-0.0006211259999999998,-0.0008377637999999999,0.001878152,0.0011607130000000007,4.573,0,0
0.0015426811999999998,-0.0009647079999999999,0.0014901282000000001,0.0020989335999999996,0.0012311632000000005,4.574,0,0
-0.0002964162000000001,-0.003604326,0.0038808862,-0.0004366944000000002,-0.0005960367999999997,4.575,0,0
-0.0019799422,-0.00511967,0.0014802222,-0.0031659024,-0.0022363268,4.576,0,0
0.0008290698,-0.0035169940000000003,-0.0007409038000000001,-0.0015259024000000001,-0.0005751888,4.577,0,0
0.0023725446,-0.0025736004000000002,-3.7666e-05,0.0004926916000000002,0.00045546120000000006,4.578,0,0
0.0005869065999999999,-0.0013531242000000003,-0.0004034059999999998,-4.395199999999988e-05,-0.000570212,4.579,0,0
-0.00029018399999999997,0.0012584198,-0.0010340574,-9.976799999999986e-05,-0.00057185,4.58,0,0
-0.0004150800000000003,0.0022186618,0.0004441026,-0.0004582820000000002,-0.0003257939999999998,4.581,0,0
-0.003349354,0.0017397066000000001,0.0012440106,-0.002530666,-0.0012955599999999999,4.582,0,0
-0.0071685460000000005,0.001265835,-0.0005472234,-0.0037361972,-0.0016427546,4.583,0,0
-0.008458044000000001,-0.00036805119999999973,-0.0014611554000000001,-0.0024192212,5.307139999999994e-05,4.584,0,0
-0.010249164000000002,-0.0033586212,-0.0015047308,-0.0015835352000000001,0.0003970592,4.585,0,0
-0.010875218,-0.0052725132,-0.0038955388000000003,-0.00024670320000000015,0.0007800284,4.586,0,0
-0.0054793620000000015,-0.004004612,-0.0046473848,0.0038085188000000006,0.0031037664,4.587,0,0
0.0028734779999999996,0.0005299480000000006,-0.0021685948000000005,0.005271518,0.0031943690000000003,4.588,0,0
0.010089838,0.005329288,-0.0019834120000000004,0.0037713140000000004,0.0014573869999999999,4.589,0,0
0.014784786000000001,0.0084389,-0.0023376512,0.003924691200000001,0.0012849699999999999,4.59,0,0
0.014857170000000003,0.009189976,0.0006709988,0.0035407502,0.0008839547999999999,4.591,0,0
0.008929050000000001,0.006503062,0.0023873868000000003,-0.00026868779999999993,-0.0016860472,4.592,0,0
0.0013801359999999995,0.0012668319999999996,0.0006694328,-0.0022497278,-0.0022297712,4.593,0,0
-0.0027315460000000005,-0.003438926,0.001400732,-0.0003155317999999998,-0.0004145332,4.594,0,0
-0.004270312,-0.006314272,0.003455698,-0.00011031100000000009,-0.0005760220000000001,4.595,0,0
-0.0029935395999999997,-0.00685523,0.002600518,-0.0012221379999999998,-0.0016977340000000002,4.596,0,0
0.0006831423999999998,-0.0056871368,0.0022606488,-0.000699282,-0.0016442940000000001,4.597,0,0
0.0023027656,-0.0055090828000000005,0.0032056988,-0.001144814,-0.0020081200000000004,4.598,0,0
0.0011634596,-0.004818090800000001,0.0019061187999999997,-0.0033358700000000003,-0.0030966820000000003,4.599,0,0
0.0014151775999999999,-0.0022109248,-0.00046226320000000004,-0.003447374,-0.0022346280000000002,4.6,0,0
0.0022161832,-0.00028661080000000024,-0.0005552952,-0.0015914179999999998,0.00012422799999999988,4.601,0,0
0.0005737352,-6.699439999999996e-05,-0.0013122040000000002,-0.001342928,0.001055898,4.602,0,0
0.00122377,0.0013880696000000002,-0.0038457680000000003,0.00047711800000000017,0.0023510980000000003,4.603,0,0
0.0032099240000000003,0.0028985416,-0.0030844576,0.0041565280000000005,0.004051186,4.604,0,0
0.0014549820000000003,0.0017712876,-0.0014052736,0.004230950000000001,0.0027556800000000004,4.605,0,0
-0.000773436,0.0010152348,-0.0020025016,0.0028867460000000004,0.0008545680000000004,4.606,0,0
-0.0018812000000000002,0.0010420865999999998,-0.0004849816,0.0031778906000000007,0.000805772,4.607,0,0
-0.0048436239999999995,8.29626e-05,0.0026185624,0.0016009166000000004,-0.000118396,4.608,0,0
-0.007783612,-0.00040149139999999994,0.0026850594000000006,-0.0019914734000000003,-0.00200803,4.609,0,0
-0.006435106,0.0005888486000000001,0.0017297094000000002,-0.0021693266000000003,-0.001292783,4.61,0,0
-0.003738908,0.0016433254,0.0033924394000000003,-0.00037122260000000003,5.880900000000005e-05,4.611,0,0
-0.0016641759999999998,0.002518072,0.0042202214,-0.0005907938,-0.0008545390000000001,4.612,0,0
0.00154499,0.0026862634,0.0034144074,-0.0008654078,-0.0014562490000000002,4.613,0,0
0.004350298000000001,0.0019994713999999998,0.003963056,-0.00042110779999999967,-0.0011103764000000003,4.614,0,0
0.004876596,0.0018949193999999998,0.0038170696000000004,-0.0012855686,-0.0015575614000000002,4.615,0,0
0.003870384,0.0016513074,0.0005113495999999997,-0.0029882866,-0.0021722070000000007,4.616,0,0
0.003098766,0.0003075833999999999,-0.0034578944000000006,-0.0024559839999999996,-0.001001605,4.617,0,0
0.0014846140000000004,-0.00033903600000000013,-0.0054017604,-0.0012304552,0.000199009,4.618,0,0
-0.000380662,-0.00014318720000000012,-0.0090427204,-0.0015122792000000001,0.00016604580000000008,4.619,0,0
0.0015226159999999999,0.0008004748000000001,-0.011710074000000001,0.0006995708000000002,0.0021415118000000003,4.62,0,0
0.003737848,0.0026739828000000004,-0.008465926000000002,0.0037915108000000004,0.0036285254,4.621,0,0
0.001931904,0.0032238838000000006,-0.0047060999999999995,0.0033249056000000006,0.0020141354000000004,4.622,0,0
0.0008948639999999998,0.00407659,-0.0017433460000000004,0.0029721318000000005,0.0017087702800000005,4.623,0,0
0.0004922600000000002,0.0039968472,0.0038574940000000004,0.0039298478000000005,0.00230954688,4.624,0,0
-0.00423276,-0.0010075407999999998,0.00827858,0.0016792798000000004,0.00030033687999999996,4.625,0,0
-0.008124942000000001,-0.0063091408,0.0074934780000000005,-0.0019061422,-0.0012479651200000001,4.626,0,0
-0.0053359900000000005,-0.0070871518,0.005935409200000001,-0.001618822,0.00022479088,4.627,0,0
-0.0026164359999999998,-0.007822756,0.005394841200000001,-0.0008932469999999999,0.00029659639999999996,4.628,0,0
-0.0031356599999999997,-0.008653994000000002,0.0029136324000000003,-0.0019360190000000002,-0.0012250956,4.629,0,0
-0.002534068,-0.005586206,0.0002920224,-0.001781353,-0.0015496036,4.63,0,0
-0.001988222,-0.0032321660000000003,-5.617302000000018e-05,-0.001360185,-0.0021116836000000003,4.631,0,0
-0.003351358,-0.0031336520000000002,-0.0006278922200000002,-0.00260507,-0.0030600736,4.632,0,0
-0.003579084,-0.0018547540000000001,-0.0029975722200000004,-0.0032918068000000003,-0.0030060056000000006,4.633,0,0
0.000324394,0.0010458900000000003,-0.0038180334200000002,-0.0017621848,-0.0014507536000000001,4.634,0,0
0.004185602,0.0035891620000000003,-0.00291593162,-0.0012324012,-0.0006566636000000001,4.635,0,0
0.006390620000000001,0.005441554,-0.0039313202,-0.0005804263999999999,9.06119999999996e-06,4.636,0,0
0.00879617,0.007582897999999999,-0.0029891941999999998,0.0029494996,0.0025712552000000002,4.637,0,0
0.007830872000000001,0.007903667999999999,0.0015455938000000001,0.004897632400000001,0.0035694108000000006,4.638,0,0
0.003395042000000001,0.005937073,0.0035586778,0.0036753544000000006,0.0024109368000000005,4.639,0,0
-0.0005724799999999996,0.004053468,0.004146871999999999,0.0036758404000000007,0.0024285232,4.64,0,0
-0.004154082,0.0022869220000000003,0.0064660740000000005,0.003286439600000001,0.0024491398,4.641,0,0
-0.007652549999999999,-0.00032222800000000014,0.005918685999999999,-0.0003403003999999999,-2.1846199999999967e-05,4.642,0,0
-0.007222528000000001,-0.0018533240000000002,0.00099937,-0.0024690123999999997,-0.0015187782,4.643,0,0
-0.003553838000000001,-0.0017883014,-0.001307594,-0.0009831964000000001,-0.0004911742000000001,4.644,0,0
-0.0014546659999999999,-0.0024700644000000003,-0.001343694,-0.00048061600000000006,-0.0005053962,4.645,0,0
0.0008848592,-0.0025342724,-0.003067116,-0.0012730880000000001,-0.0013458716000000002,4.646,0,0
0.0047197012,-0.0013494984000000001,-0.0033788519999999995,-0.0007764420000000002,-0.0014068516000000002,4.647,0,0
0.0054001392,-0.0015397704,-0.001700408,-0.001305848,-0.0018359896000000003,4.648,0,0
0.0029559012,-0.0024067660000000003,-0.0007805784,-0.0034488780000000003,-0.0030653196,4.649,0,0
0.0023486606,-0.0017861452,-0.0005595404000000001,-0.0038020030000000004,-0.0030682548,4.65,0,0
0.0026369514000000004,-0.0005362091999999997,0.0011631136000000001,-0.0021841350000000002,-0.0016864188,4.651,0,0
-0.00036927659999999986,2.8658800000000363e-05,0.0021700956,-0.002006761,-0.00113926024,4.652,0,0
-0.0014411526,0.0015999208000000002,0.0006225776,-0.00045506500000000016,0.00069339376,4.653,0,0
0.0008528834000000001,0.0028928148000000003,0.0007001354000000002,0.003645735,0.00369784376,4.654,0,0
0.00037445800000000015,0.001807786,0.0015193474000000002,0.00435973,0.0036788174,4.655,0,0
-0.0009536379999999999,-0.0006949879999999999,-0.00030915459999999995,0.0032338480000000005,0.0026636914,4.656,0,0
0.000123312,-0.00302982,-0.0008685722,0.0038768304,0.0029985768400000003,4.657,0,0
0.0005622439999999999,-0.0038223088000000002,0.0012969018000000003,0.0026669784000000005,0.00167888684,4.658,0,0
-0.000738914,-0.0036882568,6.532039999999992e-05,-0.0013199916,-0.00098595716,4.659,0,0
0.00047670800000000006,-0.0021736088000000003,-0.0045201216,-0.0020128354,-0.0009387802000000002,4.66,0,0
0.0025147140000000004,0.0004458312000000002,-0.006245255600000001,8.298460000000034e-05,0.00018057579999999999,4.661,0,0
0.002068164,0.0021276520000000003,-0.007199262,-0.00010332899999999963,-0.0007689962,4.662,0,0
0.001042574,0.0022387328000000005,-0.008607416,-0.0005164169999999998,-0.0015074682000000002,4.663,0,0
0.0003608760000000001,0.0020890428000000004,-0.005931514000000001,0.00022912699999999998,-0.0010434366000000002,4.664,0,0
-0.000963208,0.0016810802,-0.0011730680000000002,-0.0011032272,-0.0016172824000000004,4.665,0,0
-0.0022346028000000003,0.0013599582000000002,0.0015525040000000003,-0.0035088852000000007,-0.0023526848,4.666,0,0
-0.0015550648000000002,0.0019628994,0.00393666,-0.003154104,-0.0009800348000000001,4.667,0,0
-0.0009451452000000001,0.0011280774,0.0068979539999999995,-0.0018972459999999998,0.00031873919999999997,4.668,0,0
-0.0012636652,-0.0004343266000000003,0.0058364079999999995,-0.00200202,4.6327599999999966e-05,4.669,0,0
0.0008999307999999999,-0.00012769600000000006,0.0036269920000000003,0.000707346,0.0018573916,4.67,0,0
0.0022762896,-0.00022212200000000027,0.004445678,0.00458095,0.0037858580000000005,4.671,0,0
-0.0002490004000000002,-0.0015847340000000002,0.0036648260000000004,0.0041418664,0.0025273200000000004,4.672,0,0
-0.0013092860000000002,-0.0010215040000000001,0.0011491320000000002,0.0033316644000000004,0.0019688100000000005,4.673,0,0
-0.0010031800000000007,0.00020083999999999985,0.0013263300000000001,0.003710898000000001,0.0021812284000000005,4.674,0,0
-0.0031267560000000005,-0.0003022268,0.002524934,0.001028606,3.745440000000038e-05,4.675,0,0
-0.004850950000000001,-0.00027973479999999996,0.000891362,-0.002659358,-0.0021040296,4.676,0,0
-0.0026350396000000002,0.0013199812,-9.903800000000002e-05,-0.0020898164,-0.0011216896,4.677,0,0
-0.00042619960000000036,0.0027827292000000003,0.0013506260000000002,-0.0005222884,-0.0003113896,4.678,0,0
-0.00048280160000000025,0.0032435632,0.001276334,-0.001035848,-0.0008480720000000001,4.679,0,0
-0.0002197436,0.0015936780000000003,0.00023188800000000008,-0.000872188,-0.000659306,4.68,0,0
0.00023446799999999994,-0.001556506,0.0008221780000000001,-0.000991796,-0.0010861080000000001,4.681,0,0
-0.00032291240000000004,-0.003748472,0.0008412640000000002,-0.002712104,-0.002541488,4.682,0,0
-0.00030439240000000004,-0.004142968,-0.0012911900000000002,-0.0039510942000000005,-0.0031722282,4.683,0,0
0.0011816916,-0.0039578999999999994,-0.0022867160000000003,-0.0026064662,-0.0019468522000000003,4.684,0,0
0.0003523135999999999,-0.003359878,-0.0020172228,-0.0015347289200000002,-0.0008475082000000001,4.685,0,0
0.00047387379999999993,0.00032981800000000017,-0.0043922988000000005,-0.0009937449200000002,0.00018199579999999993,4.686,0,0
0.0039554838,0.00455642,-0.0054536168,0.00249605508,0.0029796738000000002,4.687,0,0
0.0031476776,0.0037134032800000003,-0.0027584728,0.0045286972800000005,0.00408633,4.688,0,0
-0.00031191239999999983,0.00084016128,-0.0019725268000000003,0.00297974128,0.0021128680000000004,4.689,0,0
0.00033081959999999965,0.00151005928,-0.0017030569999999998,0.0030066406,0.0015649604000000001,4.69,0,0
-0.00023874219999999976,0.0015365072799999996,0.001583037,0.0033650655999999998,0.0017680423999999998,4.691,0,0
-0.004562972200000001,-0.0013838537200000002,0.003335223,-9.505640000000018e-05,-0.0003428976000000002,4.692,0,0
-0.0044721940000000005,-0.0017174470000000002,0.0014851330000000002,-0.0024715184000000004,-0.0012216732,4.693,0,0
-5.740000000001473e-07,0.0013902570000000002,0.0012096454000000002,-0.0007476264000000002,0.0007190468,4.694,0,0
0.0019079799999999999,0.0027106890000000005,0.0018790324000000005,-0.00043991300000000016,0.00033897440000000005,4.695,0,0
0.001993264,0.001021985,0.0009876344000000002,-0.0013215459999999998,-0.0016269976,4.696,0,0
0.0030993308,-6.729399999999986e-05,0.0009836684000000002,-0.000725912,-0.0020034536,4.697,0,0
0.0028683392,6.120460000000018e-05,0.0020179024000000004,-0.0010526939999999999,-0.0030826660000000004,4.698,0,0
0.0003140192000000002,0.00038169660000000015,0.0019448502000000004,-0.0026290519999999998,-0.004412078,4.699,0,0
-0.0020789187999999998,8.107260000000016e-05,0.0006498582,-0.0026300559999999995,-0.0034850200000000006,4.7,0,0
-0.0031602267999999998,0.00018992660000000013,-7.380780000000001e-05,-0.0010041639999999997,-0.001167412,4.701,0,0
-0.0046063576,0.0014199666000000001,-0.0022821858,-0.0007405660000000002,-0.0006838792,4.702,0,0
-0.0043097199999999995,0.002510818,-0.0070335138,0.000394116,0.0006672688000000001,4.703,0,0
-0.001841414,0.002766076,-0.009068332,0.0036641560000000004,0.0037531748000000005,4.704,0,0
-0.0007172364,0.002759016,-0.008368902000000001,0.004194284,0.0036749188000000004,4.705,0,0
0.0020205976,0.0028540780000000003,-0.00828623,0.0027267280000000003,0.0026332208,4.706,0,0
0.0059214916,0.002150476,-0.005479310000000001,0.0034770440000000003,0.0032616300000000006,4.707,0,0
0.0048639236,-0.000685518,0.0010083899999999996,0.0031860124000000004,0.0021942400000000005,4.708,0,0
0.0008839575999999997,-0.005010972000000001,0.004874098,-0.00040228560000000004,-0.0007344459999999999,4.709,0,0
0.0002838779999999998,-0.00711769,0.0049713579999999995,-0.0012272224,-0.0008480159999999998,4.71,0,0
0.0005152539999999997,-0.00795972,0.007055334,0.0009604796,0.00020634600000000005,4.711,0,0
-0.0013475920000000003,-0.009487938000000001,0.009166862000000001,0.0005188589999999999,-0.0007184139999999999,4.712,0,0
-0.0009590799999999997,-0.008230206,0.007717206,-0.0008970594000000002,-0.001164272,4.713,0,0
0.0021310120000000003,-0.004567322,0.006844510000000001,-0.00038857340000000005,-0.0008539460000000001,4.714,0,0
0.003779602,-0.0027128520000000004,0.007307198,-0.0014537046000000003,-0.0015170880000000002,4.715,0,0
0.0029797800000000004,-0.0012799820000000003,0.004652084000000001,-0.004215884600000001,-0.0025216880000000002,4.716,0,0
0.00289589,0.001227124,0.0003793220000000001,-0.0041504778600000005,-0.0017769600000000002,4.717,0,0
0.00299653,0.0019405670000000002,-0.0006273022000000002,-0.00253557386,-0.00044027800000000006,4.718,0,0
0.0009799920000000003,0.0011524257400000004,-0.0027211462000000003,-0.0027782658600000003,-0.00014833799999999997,4.719,0,0
0.001972554,0.00202458374,-0.0061290502000000005,-0.0005043318600000003,0.001614496,4.72,0,0
0.004758544,0.0034846597400000003,-0.0050276984,0.0040314461400000005,0.003577752,4.721,0,0
0.003449694,0.0034282897400000002,-0.0032709424000000003,0.004319516,0.0032462256,4.722,0,0
0.0017523220000000002,0.0032135773400000004,-0.0039600462,0.00363665,0.0029619229999999996,4.723,0,0
0.00015396800000000085,0.0030933576000000003,-0.0024933402,0.004530758,0.00298159546,4.724,0,0
-0.005442772,0.0023100756,0.0005253458,0.0023007400000000003,0.00113419546,4.725,0,0
-0.010218620000000001,0.0013022796000000001,-2.880799999999996e-05,-0.001778332,-0.00127415654,4.726,0,0
-0.008234428000000002,0.0014194436,-0.00105346,-0.0015464160000000001,-0.0011743199400000002,4.727,0,0
-0.004530788,0.0017506184000000001,0.0006518959999999999,0.0001606320000000004,-0.00056640334,4.728,0,0
-0.0024359399999999997,0.0007725834,0.001772366,-0.0006645699999999997,-0.0015282698000000001,4.729,0,0
0.0003736640000000001,-9.740260000000022e-05,0.0018734799999999999,-0.0006272119999999998,-0.0020684218000000002,4.73,0,0
0.0018306846000000002,8.347340000000006e-05,0.0031552559999999995,-0.00012137399999999967,-0.0017813158,4.731,0,0
-0.0009460634000000004,0.0005564173999999999,0.0038934895999999997,-0.0020840879999999996,-0.0022406559999999997,4.732,0,0
-0.0048333574,0.0004045619999999998,0.0018285995999999995,-0.0042048400000000005,-0.0027756096000000003,4.733,0,0
-0.0040949334,0.001489914,-0.0006244264000000001,-0.003207648,-0.0014306216000000002,4.734,0,0
-0.0013386774,0.00335054,-0.0016701024000000003,-0.0023997256,-0.00048621319999999995,4.735,0,0
9.302599999999953e-05,0.0027204819999999998,-0.0047699404,-0.0026048956,-0.0005486811999999999,4.736,0,0
0.003839548,0.0016519428,-0.007123036,0.0010358004000000003,0.0012563048,4.737,0,0
0.00733711,0.0018466612,-0.004916022000000001,0.004071518400000001,0.0023559084,4.738,0,0
0.006362818,0.0011101991999999997,-0.0033853359999999996,0.0026911724000000005,0.0012664684,4.739,0,0
0.0041858824,-0.00039047720000000014,-0.00226845,0.0024863400000000005,0.0014944482,4.74,0,0
0.0019907984,-0.0012272332000000002,0.0018302899999999998,0.0030461840000000004,0.0019729794,4.741,0,0
-0.0019576476,-0.0024114820000000004,0.004964154,9.157800000000004e-05,-3.388859999999992e-05,4.742,0,0
-0.0044137276,-0.0034236304000000006,0.0037821013999999997,-0.0024904840000000003,-0.0013976426,4.743,0,0
-0.0025830116000000007,-0.0030038824000000004,0.0028758554,-0.0006914120000000002,-2.2085999999999504e-06,4.744,0,0
-0.0010827820000000009,-0.002576136,0.0029531294,0.00030281799999999984,0.00026745720000000004,4.745,0,0
-0.0006824500000000001,-0.0016628140000000003,0.0010720104000000001,-0.0007865540000000003,-0.0006410580000000001,4.746,0,0
0.0016157699999999999,0.0005237819999999999,-0.00016463760000000002,-0.0007004340000000002,-0.0003813680000000001,4.747,0,0
0.0032411280000000002,0.001931884,0.000285461,-0.0010333520000000002,-0.0005734760000000002,4.748,0,0
0.0012315260000000001,0.00105196,-0.00012470500000000002,-0.00305741,-0.0017432180000000002,4.749,0,0
-0.0013317060000000002,-0.0006698980000000002,-0.002144587,-0.004060384,-0.0020609118,4.75,0,0
-0.0012752602,-0.001475666,-0.0025324200000000005,-0.002411644,-0.0009901178,4.751,0,0
-0.0020468762,-0.002736874,-0.0021138136,-0.0018941270000000002,-0.0009070177999999998,4.752,0,0
-0.0015976642000000002,-0.0031525941999999995,-0.0038364135999999997,-0.0008030489999999999,-0.0001098897999999999,4.753,0,0
0.0021552418,-0.0009939762000000002,-0.003192458,0.003252449,0.0021994542,4.754,0,0
0.0028928957999999998,0.0007972837999999999,-6.384200000000015e-05,0.004744749,0.0021567464000000003,4.755,0,0
0.0013917559999999996,0.0014453857999999998,0.00023732419999999995,0.003525381,0.0013434304000000002,4.756,0,0
0.0017691772,0.0025644138,0.0005012098000000001,0.0036366733999999997,0.0017594660000000003,4.757,0,0
0.0004309871999999998,0.003297694,0.0035811758,0.0028542554,0.0009337580000000002,4.758,0,0
-0.0031030988,0.0024227674,0.0044347922,-0.0008307586,-0.0013638460000000002,4.759,0,0
-0.0027677086,0.0019964114,0.0020448762000000002,-0.0023428846,-0.0013308528,4.76,0,0
0.00033460939999999995,0.0026538294000000005,0.0019991790000000002,-0.00033389659999999996,0.00037959720000000003,4.761,0,0
0.0004291137999999999,0.0023159854,0.002077993,0.00029018200000000027,0.0004068991999999999,4.762,0,0
-0.0007137562000000001,0.0010055134000000001,-0.0002658649999999999,-0.0005833340000000001,0.00040670319999999997,4.763,0,0
-0.0008521742000000001,-0.0003080760000000002,-0.0010102296,-0.0006833799999999999,0.0009059632,4.764,0,0
-0.0029149604,-0.002800276,0.00018639240000000004,-0.0015539940000000002,4.993160000000001e-05,4.765,0,0
-0.0064249284,-0.006276288,0.00038939160000000004,-0.004044064,-0.0015743384000000001,4.766,0,0
-0.007239230000000001,-0.007722406,1.5139400000000047e-05,-0.004915516000000001,-0.0017537400000000002,4.767,0,0
-0.005423714,-0.007245651400000001,0.0017040994,-0.0033579240000000004,-0.0012070304000000001,4.768,0,0
-0.0042338160000000005,-0.005700769400000001,0.0020016620000000004,-0.0028121020000000004,-0.0014545184,4.769,0,0
-0.00013396800000000015,-0.0029318986000000003,0.00015056599999999998,-0.0007340279999999999,0.00011163359999999986,4.77,0,0
0.005174972000000001,0.0003268953999999999,0.0004984338,0.0032627540000000005,0.0020978596,4.771,0,0
0.0062240920000000005,0.0023425614,0.001156964,0.004024106,0.0017123016,4.772,0,0
0.005942440800000001,0.0029568368000000003,-0.0005160720000000001,0.0033545880000000004,0.001361614,4.773,0,0
0.005974036800000001,0.005497550800000001,-0.00045176000000000005,0.0041089839999999996,0.0019261499999999997,4.774,0,0
0.0035891828,0.008047700000000001,0.0012565680000000002,0.0026938820000000003,0.0003516519999999998,4.775,0,0
-0.00038034319999999996,0.007853944,0.00011897199999999996,-0.001356768,-0.00214436,4.776,0,0
0.0014924347999999998,0.006159330000000001,-0.002138554,-0.0019280456,-0.001339202,4.777,0,0
0.0037992779999999997,0.004533652000000001,-0.005544668,0.00017350440000000024,0.0006421040000000001,4.778,0,0
0.0038783299999999997,0.0032667080000000005,-0.009589582,0.0037233264000000005,0.0033529700000000003,4.779,0,0
0.006158482,0.0015900080000000002,-0.0098077622,0.009039762400000002,0.006980522,4.78,0,0
0.004819447999999999,0.00020616199999999997,-0.0070363301999999996,0.0114177324,0.007950615800000001,4.781,0,0
-0.0006302120000000002,-0.000354322,-0.0036681122000000004,0.009429308,0.005827107800000001,4.782,0,0
-0.0032825840000000003,-0.0012229779999999998,0.0017619557999999998,0.00581633,0.002621411800000001,4.783,0,0
-0.0035132860000000004,-0.005255394,0.0077239358000000015,0.0012126259999999996,-0.0013282122,4.784,0,0
-0.0051873706,-0.008618554,0.00976162,-0.004070906,-0.0050444282,4.785,0,0
-0.0029861964,-0.008426586000000002,0.010722700000000002,-0.005654638,-0.005866748000000001,4.786,0,0
-0.0024095764,-0.008067064,0.013659408000000001,-0.006622238,-0.006651600000000001,4.787,0,0
-0.007093444400000001,-0.007888114000000002,0.013875752000000002,-0.011480188,-0.009447954000000001,4.788,0,0
-0.008790800400000002,-0.0062015180000000005,0.009861512000000003,-0.015101544,-0.010411707999999999,4.789,0,0
-0.007998001800000001,-0.003424462,0.0053680720000000015,-0.014972178000000003,-0.009098875999999999,4.79,0,0
-0.0071082140000000025,-0.002555856,-0.00016102800000000013,-0.013943294000000002,-0.007517699999999999,4.791,0,0
-0.0032760800000000007,-0.0009400540000000001,-0.007744508000000001,-0.010553098000000002,-0.004556514,4.792,0,0
0.005003120000000001,0.0035955,-0.012198120000000002,-0.003027792,0.00033047,4.793,0,0
0.010062116000000001,0.006821024,-0.01239328,0.0029730860000000002,0.0036070620000000003,4.794,0,0
0.011086136000000002,0.008038808,-0.012562720000000001,0.006252352000000001,0.005660786000000001,4.795,0,0
0.012854774000000003,0.009744786000000002,-0.011561864,0.010800420000000002,0.008867444,4.796,0,0
0.01273806,0.009893088000000001,-0.007654066,0.014555124,0.010642258,4.797,0,0
0.007015820000000001,0.006178668,-0.0043060780000000005,0.0139841958,0.0098814316,4.798,0,0
-2.2379999999999362e-05,0.0023861660000000003,-0.0029728679999999996,0.011112895800000001,0.0076308196,4.799,0,0
-0.00319904,0.00010051800000000018,-0.0006642849999999999,0.0078307818,0.0045767816,4.8,0,0
-0.0066269400000000004,-0.003447112,0.0013339210000000005,0.0022955058,0.00042668959999999956,4.801,0,0
-0.008589858,-0.006796376,0.0007152450000000001,-0.0015975822,-0.0024742424,4.802,0,0
-0.0063039136,-0.007485230000000001,0.0028125170000000005,-0.0012887000000000003,-0.0029150520000000004,4.803,0,0
-0.0052989736,-0.0075752400000000004,0.007891987,-0.003678198,-0.005145894000000001,4.804,0,0
-0.006104781600000001,-0.007674704,0.00969373,-0.009037904,-0.008479156,4.805,0,0
-0.0041160976,-0.00458007,0.008770838,-0.010862648,-0.00893223,4.806,0,0
-0.0016392236000000002,-0.0005266899999999998,0.008230636,-0.010334688,-0.007627514000000001,4.807,0,0
-0.0014257452000000005,0.00122806,0.006084452000000001,-0.010151736,-0.006476474000000001,4.808,0,0
0.0011797668,0.003973452000000001,0.00070531,-0.006548763680000001,-0.002897016,4.809,0,0
0.0051237548,0.007041724000000001,-0.0028819939999999997,0.00033380832000000013,0.002309302,4.81,0,0
0.0057651368,0.006750612000000001,-0.004071782,0.0042691983200000005,0.0045824,4.811,0,0
0.006412680800000001,0.005587594,-0.006580362000000001,0.006216006320000001,0.005957796,4.812,0,0
0.008757558,0.005591976000000001,-0.007783736000000001,0.00997457432,0.008428188,4.813,0,0
0.007631226000000001,0.0036711540000000007,-0.005365362,0.012247802,0.008982568,4.814,0,0
0.002909026000000001,0.00019799400000000016,-0.0023871200000000004,0.010691278,0.006914052,4.815,0,0
-0.0006088339999999997,-0.0016195380000000002,-0.0001328359999999999,0.008127206,0.00490723,4.816,0,0
-0.0029680616,-0.0016446660000000004,0.0035867180000000005,0.005165738,0.0032620740000000002,4.817,0,0
-0.0052367086,-0.001161918,0.00535457,0.00023782999999999996,-4.4479999999999954e-05,4.818,0,0
-0.0036548165999999997,1.3396000000000046e-05,0.0040514658,-0.001644164,-0.0016440880000000001,4.819,0,0
-0.0013107966000000001,0.001411888,0.005075341800000001,-0.000986332,-0.0017555700000000001,4.82,0,0
-0.0035310425999999996,0.0010595460000000002,0.0064231118,-0.00456781,-0.00495424,4.821,0,0
-0.005605175,-0.00026533999999999987,0.0038947838000000005,-0.008728182000000001,-0.008015464,4.822,0,0
-0.0049672499999999994,-0.0007466,0.0014659897999999998,-0.009322234,-0.007496862,4.823,0,0
-0.005123969999999999,-0.0016319519999999999,0.0009294679999999999,-0.009611632,-0.006278425999999999,4.824,0,0
-0.0048368622,-0.002826532,-0.0021019719999999997,-0.009825128220000002,-0.004995666,4.825,0,0
-0.00031269420000000015,-0.0018028584200000001,-0.005684514,-0.005616191220000001,-0.0007027900000000001,4.826,0,0
0.0026100498,-0.00048973842,-0.005579702000000001,-0.00013015721999999987,0.003011412,4.827,0,0
0.0015831178,-0.00018413042000000007,-0.005726178,0.00248033878,0.003513182,4.828,0,0
0.0037171058000000003,0.00261762958,-0.007603784000000001,0.00518427078,0.004523572,4.829,0,0
0.007205978,0.00750531758,-0.006945922000000002,0.008643847,0.006056266,4.83,0,0
0.005459966,0.00863231,-0.00457309,0.00980377,0.005411294120000001,4.831,0,0
0.0020691819999999993,0.006236572,-0.0033696880000000005,0.008049838000000002,0.0037433361200000007,4.832,0,0
0.0014907579999999991,0.003336238,-0.0015163060000000003,0.006106131999999999,0.0030003381200000004,4.833,0,0
-0.0007917820000000004,-0.0021976020000000003,0.002096948,0.0032507598,0.0012279595200000001,4.834,0,0
-0.003312414,-0.00796045,0.00294853,-0.0006180421999999999,-0.0013919204799999999,4.835,0,0
-0.0005399760000000006,-0.008717582,0.003286756,-0.0009864141999999998,-0.0016403545999999999,4.836,0,0
0.001189144,-0.008078094000000001,0.007222335999999999,-0.0008873942000000001,-0.0021558946,4.837,0,0
-0.0017426580000000002,-0.008866334,0.008669512,-0.0050727642,-0.0051219146,4.838,0,0
-0.0027073340000000005,-0.0068099680000000004,0.006543904,-0.008439332,-0.0064473,4.839,0,0
-0.0026420439999999996,-0.004720014000000001,0.005886280399999999,-0.008497974,-0.0055995156,4.84,0,0
-0.0049488200000000005,-0.0052671796000000005,0.004483880399999999,-0.0091432816,-0.005375225599999999,4.841,0,0
-0.004265596,-0.0032828116000000003,-0.0007644436000000001,-0.008871219599999999,-0.00420701528,4.842,0,0
0.0004372120000000001,0.0009252184000000002,-0.0043266676,-0.003998575600000001,-0.0002493352799999998,4.843,0,0
0.0015373840000000001,0.0019439140000000001,-0.0047124996,0.0008876763999999999,0.0025928247200000002,4.844,0,0
-0.00016528600000000006,0.0013856660000000002,-0.0063032340000000004,0.0031448544,0.0036606063200000003,4.845,0,0
0.001299324,0.0027056516,-0.007362614,0.006173734,0.005596878320000001,4.846,0,0
0.0031416,0.0031844916000000004,-0.004975152,0.008804510000000002,0.006896500000000001,4.847,0,0
0.0014348359999999997,0.0023285576,-0.0017520619999999998,0.008370806200000002,0.0058874896,4.848,0,0
-0.00021534600000000027,0.0031039860000000004,6.10039999999997e-05,0.006235780200000001,0.0039800956000000005,4.849,0,0
0.0019424120000000001,0.004824346,0.0028114200000000002,0.004807962200000001,0.0026839360000000005,4.85,0,0
0.0030592440000000005,0.004187906,0.00559198,0.0022273302,0.000482876,4.851,0,0
0.0035087020000000007,0.0029924314000000004,0.004811546000000001,-0.00015608400000000005,-0.00142316,4.852,0,0
0.0062257280000000016,0.0033563634,0.004526462,0.0009697038,-0.0011464256,4.853,0,0
0.004969754,0.0026373664000000005,0.006309222,0.00021446179999999983,-0.0021398736,4.854,0,0
0.0008341680000000001,0.0014039364000000003,0.004289534,-0.0037632142,-0.0049833740000000005,4.855,0,0
-0.00028289400000000055,0.0013558444,0.0004686820000000002,-0.0053455782,-0.0054791779999999995,4.856,0,0
-0.0017016500000000003,0.0003919450000000003,-0.0008223319999999996,-0.0054018569999999995,-0.0042333200000000005,4.857,0,0
-0.004848860000000001,-0.0022839229999999998,-0.003100704,-0.0068526690000000005,-0.0043220944,4.858,0,0
-0.0038422680000000007,-0.004025152,-0.007526256,-0.006007409000000001,-0.0031498464000000006,4.859,0,0
-0.00037008600000000026,-0.0036603619999999995,-0.008571390000000002,-0.001638763,0.0004989316,4.86,0,0
-0.00036685599999999993,-0.0026216240000000003,-0.007144032000000001,0.0009340610000000001,0.0024166896,4.861,0,0
-0.0005336779999999998,-0.0003764040000000001,-0.006973468000000001,0.0024094700000000004,0.0028598195999999998,4.862,0,0
0.00219934,0.003252956,-0.0052117280000000005,0.005500654000000001,0.004524144,4.863,0,0
0.003311078,0.004698628,-0.0010179960000000002,0.0070642759999999995,0.005835932,4.864,0,0
0.0003842959999999997,0.0026369239999999997,0.002663118,0.005495582000000001,0.005013793800000001,4.865,0,0
-0.0019792280000000004,0.0006754539999999998,0.005056604,0.003577418000000001,0.0035780038000000004,4.866,0,0
-0.0023354046000000008,8.615999999999919e-06,0.007822182,0.0023276084000000002,0.0025970401999999997,4.867,0,0
-0.004196876600000001,-0.001996402,0.008064402,-0.0005973596,0.0003310181999999999,4.868,0,0
-0.003781177400000001,-0.0036669140000000003,0.005101876,-0.0012958035999999999,-0.0010857118,4.869,0,0
-0.0005802774000000003,-0.0036006820000000004,0.004679952,0.0008917604,-0.0009959177800000002,4.87,0,0
-0.00033499940000000013,-0.004256592,0.004924172,-0.0008616235999999999,-0.00302373378,4.871,0,0
-0.0004907680000000002,-0.00509594,0.0017531999999999997,-0.00441261,-0.005337198180000001,4.872,0,0
0.001524028,-0.003863394,-0.00027106600000000036,-0.004976708,-0.00501489918,4.873,0,0
0.0022119208000000003,-0.001714116,0.0005218017999999997,-0.005784968,-0.00460505418,4.874,0,0
0.0013285788,-0.0004850523999999998,-0.0010699822000000004,-0.007896118,-0.0047677096,4.875,0,0
0.0018422368,0.0014288976,-0.0040954462,-0.0057391162,-0.0019129616000000001,4.876,0,0
0.001188324,0.0036167496,-0.0036625182,-0.0009564381999999998,0.0018254404000000004,4.877,0,0
-0.001994674,0.0033362676000000006,-0.0030739862,0.0012217177999999998,0.0032621594000000007,4.878,0,0
-0.00427563,0.0023999356,-0.0047232,0.0029810597999999997,0.0046106584,4.879,0,0
-0.004655116,0.0030846219999999995,-0.0041837468,0.005739953799999999,0.005972690000000001,4.88,0,0
-0.005031036,0.0025325960000000002,-0.0014629188000000004,0.006365402,0.004732462000000001,4.881,0,0
-0.005081774000000001,0.0010398100000000002,-0.00011930480000000047,0.0044176599999999995,0.001790008,4.882,0,0
-0.002429304,0.0012193820000000002,0.0006289829999999998,0.0034729519999999996,0.0003338245999999999,4.883,0,0
0.00041975200000000023,0.0027232980000000003,0.002624157,0.002947104,-0.0008208754000000001,4.884,0,0
0.00237652,0.005661002,0.0018827597999999997,0.000898184,-0.0024998674000000004,4.885,0,0
0.005665160000000001,0.007262890000000001,-1.9714199999999954e-05,0.0016127420000000001,-0.0011101334000000003,4.886,0,0
0.006582376200000001,0.003726298000000001,0.0018442838,0.003188886,0.0007002586,4.887,0,0
0.0028383222,-0.0014660199999999984,0.003339188,0.0001529639999999998,-0.0014639280000000002,4.888,0,0
-0.0005150138000000002,-0.005171245999999999,0.0027519500000000004,-0.0027779520000000006,-0.0031839840000000004,4.889,0,0
-0.0029522798,-0.010260064,0.0035467800000000007,-0.0031920000000000004,-0.0026709208000000005,4.89,0,0
-0.0058143598,-0.012944734,0.0036652219999999997,-0.005237456,-0.0035353408000000004,4.891,0,0
-0.004786240000000001,-0.008946552,-0.0008401780000000002,-0.006971992000000001,-0.0036853148000000006,4.892,0,0
0.0006224800000000003,-0.0026236820000000004,-0.0056401080000000004,-0.003999074,-0.0005645407999999999,4.893,0,0
0.004808374000000001,0.001745032,-0.007824352,-0.0007018020000000001,0.0016850472,4.894,0,0
0.006985344,0.004461172,-0.010417644,0.00013341599999999986,0.0020333260000000002,4.895,0,0
0.009353764,0.006340768000000001,-0.01174695,0.001990322,0.0030318120000000005,4.896,0,0
0.008384495,0.0052835054,-0.008624416000000001,0.0039035480000000006,0.003122604,4.897,0,0
0.003553981,0.0022104834,-0.0040194259999999996,0.0030305180000000007,0.0015797419999999996,4.898,0,0
-0.0002816629999999997,-0.00015093060000000006,-0.0005869160000000003,0.0010383900000000004,0.0004610500000000002,4.899,0,0
-0.002287433,-0.0014778966,0.00362888,0.0008692679999999999,0.00024311220000000012,4.9,0,0
-0.004941069000000001,-0.0023848696,0.007500970000000001,5.911600000000006e-05,-0.0006460956,4.901,0,0
-0.005838534000000001,-0.0020753677999999997,0.00730503,-0.0010730940000000001,-0.0011413996,4.902,0,0
-0.002789626,4.072419999999997e-05,0.007162594,0.0013742760000000002,0.0005853484000000001,4.903,0,0
-0.0016874339999999998,0.0006343481999999999,0.009539584,0.0026267340000000004,0.0008204656,4.904,0,0
-0.003470168,-0.0007920658000000003,0.00868056,5.17660000000004e-05,-0.0011044305999999998,4.905,0,0
-0.002782735,-0.00015878280000000005,0.005990572,-0.001323302,-0.0014251307999999998,4.906,0,0
-0.0007052350000000002,0.001997076,0.005436641999999999,-0.0018373220000000002,-0.0013506741999999997,4.907,0,0
-0.00023448100000000036,0.0021361799999999997,0.003958837799999999,-0.004608198,-0.0027329882,4.908,0,0
0.0014739709999999997,0.0024862044000000002,-0.00028723020000000015,-0.005761342,-0.0027448578,4.909,0,0
0.005416417,0.0043958544,-0.0022991122,-0.0024948820000000003,-0.0003434318,4.91,0,0
0.006741716,0.0032685284000000003,-0.0016189288000000002,-6.676400000000019e-05,0.0007891122000000001,4.911,0,0
0.005056938,0.00010176240000000006,-0.0022656248,0.0007165299999999997,0.0011202496,4.912,0,0
0.0033785554,-0.0010244258,-0.0026197206,0.002703618,0.0024436756000000004,4.913,0,0
0.0012967333999999997,-0.0016884142000000001,-0.0012782726,0.003920466,0.0027547616,4.914,0,0
-0.0017754106,-0.0022238022,-0.0005007706,0.002500834,0.0018379656000000002,4.915,0,0
-0.0034337006000000002,-0.0008301382000000001,-0.0017864920000000002,0.0011156496000000002,0.0013185176000000002,4.916,0,0
-0.0027775826,0.0009516317999999999,-0.001912882,0.0015917636000000001,0.0011977038,4.917,0,0
-0.0029566139999999998,0.0011481714,-0.0012539296,0.0005768526000000001,-0.00042585220000000007,4.918,0,0
-0.0021235224,0.0008614754,-0.0028815976,0.0003731826,-0.0007928954000000001,4.919,0,0
0.0005540575999999999,0.0001844314,-0.0024173536,0.0029703746000000002,0.0004914686,4.92,0,0
0.00013084359999999994,-0.0015615166,0.0002889384,0.0024691950000000004,-0.0007392314000000003,4.921,0,0
-0.0013926504000000002,-0.0024674405999999998,-0.0002252955999999998,-0.000669453,-0.0021767256000000002,4.922,0,0
-0.00029726440000000024,-0.002299964,-0.001169538,-0.0012501739999999997,-0.0015026816,4.923,0,0
-0.0005603660000000002,-0.002204738,0.0003060139999999999,-0.0018107519999999999,-0.001685462,4.924,0,0
-0.00305294,-0.0014518138,-0.00039902400000000005,-0.004731468,-0.0033541800000000004,4.925,0,0
-0.002491984,4.74462000000001e-05,-0.0027436780000000003,-0.004486278,-0.002350948,4.926,0,0
-0.0012614672,0.0004615102000000001,-0.0015896948000000003,-0.001066438,0.00017679999999999996,4.927,0,0
-0.0026408272,-3.5477999999999595e-06,-0.00024964880000000016,0.00024310399999999985,0.0008469720000000001,4.928,0,0
-0.00231335804,0.0005491322,-0.0012554068000000002,0.000687497,0.001455974,4.929,0,0
-0.00011429204000000016,0.0005723932,-0.00044920880000000015,0.002401725,0.002771214,4.93,0,0
0.0004021371599999999,-0.0007492768000000002,0.0012631832,0.0025994084000000002,0.002400794,4.931,0,0
-0.0002477296400000002,-0.0016939068,0.000882702,0.0003601944,0.00039685800000000004,4.932,0,0
-0.0002216476400000001,-0.0019258408000000001,-0.00019939199999999995,-0.0007615476000000001,-0.00021255939999999994,4.933,0,0
-0.0009397868000000001,-0.0017510678,0.0002764206000000001,-0.0007536068,-0.00043629644,4.934,0,0
-0.0029760808,-0.0012678429999999998,-0.0008863794,-0.0023174608,-0.0017473184400000003,4.935,0,0
-0.002116832,6.204500000000005e-05,-0.0032569854,-0.0012820182000000003,-0.0009280844400000002,4.936,0,0
0.0002634959999999998,0.001229477,-0.0019902014,0.0016282777999999999,0.0006757715600000001,4.937,0,0
0.00062848,0.001460001,-0.0006267894,0.0004277478000000001,-0.00057278304,4.938,0,0
0.00213769,0.0013328438000000003,-0.001204396,-0.0010166660000000003,-0.0010378940000000001,4.939,0,0
0.004501944000000001,0.0007059878000000002,-1.2619999999997585e-06,-5.372800000000012e-05,0.00042645999999999987,4.94,0,0
0.003914048,-0.00035118019999999994,0.002018934,-0.0009045656400000002,-6.365240000000002e-05,4.941,0,0
0.0023159544000000004,-0.0009881262,0.0013129300000000001,-0.0029260476400000007,-0.0011888084,4.942,0,0
0.0033628804000000005,-0.00017167419999999987,0.0007821200000000001,-0.0009564536400000002,0.0006995836,4.943,0,0
0.004069506400000001,0.0013599640000000002,0.002689306,0.00196126636,0.0022299596000000003,4.944,0,0
0.0030018576000000003,0.0025276860000000003,0.002938156,0.0020326603600000002,0.0012085722,4.945,0,0
0.0027291800000000003,0.0034402720000000003,0.002078898,0.002242516,0.0012395258,4.946,0,0
0.0024534520000000005,0.004167152,0.0026341919999999996,0.00302837,0.0017117522,4.947,0,0
0.00030086600000000033,0.0040991000000000005,0.002596558,0.0018015180000000007,0.0003722602,4.948,0,0
-0.0021566479999999997,0.0025760712000000006,0.000644818,-0.000988516,-0.0011082718000000001,4.949,0,0
-0.002276736582,0.0010723912,-0.00036110400000000006,-0.0015530320000000002,-0.0008136606000000001,4.95,0,0
-0.002203862982,0.0005454097999999999,0.000524034,-0.0018352464000000001,-0.0009901696000000001,4.951,0,0
-0.002027231582,-0.00012793440000000012,-0.0012673780000000002,-0.0026992724,-0.0013270064,4.952,0,0
0.000603966418,-0.0007956792,-0.002151076,-6.91063999999999e-05,0.0006816995999999999,4.953,0,0
0.0015875090180000001,-0.0018331884,0.000788946,0.0024181536000000003,0.0015630856,4.954,0,0
-0.0005220076000000001,-0.0031400864,0.001153308,0.0011901396000000004,0.0002726957999999997,4.955,0,0
-0.0008941244000000003,-0.0038820029999999998,-0.0006363639999999999,0.0006303880000000004,0.00033814699999999985,4.956,0,0
2.2677799999999866e-05,-0.0043046788,5.870600000000003e-05,0.0012715840000000005,0.0007082833999999998,4.957,0,0
-0.0004886082000000003,-0.003750564,0.00025990400000000004,-0.000827698,-0.0008967206000000001,4.958,0,0
-0.00043576580000000023,-0.0018330579999999998,-0.003195646,-0.002627202,-0.0016060406000000002,4.959,0,0
0.0012381062000000002,-0.0008940060000000001,-0.0045030040000000006,-0.0004233679999999999,0.0002802474,4.96,0,0
0.000946353,-0.001980368,-0.0031351128000000005,0.0014255119999999999,0.000965852,4.961,0,0
-0.001063375,-0.0018746220000000003,-0.0033251468000000005,0.0013782184,0.00024724800000000004,4.962,0,0
-0.002175881,-0.0007980480000000002,-0.0036033628,0.0022804664000000002,0.0006901219999999999,4.963,0,0
-0.0032557840000000003,-0.0013855204000000002,-0.0021435708000000003,0.0025724764,0.000907373,4.964,0,0
-0.004058920000000001,-0.0015243304,-0.0010797908,0.00038582039999999996,-0.000373217,4.965,0,0
-0.0034375398,0.0006673695999999998,-0.0017456720000000002,-0.0015258456000000003,-0.0008922302,4.966,0,0
-0.0017678038000000004,0.0024823196,-0.0007810040000000002,-0.0013347,0.00015901580000000004,4.967,0,0
-0.0012312098,0.0026726356000000002,0.00098534,-0.0020854628,-0.00035997020000000005,4.968,0,0
0.0011745581999999997,0.004520842000000001,0.0009325567999999998,-0.0017910486,-0.00014664300000000004,4.969,0,0
0.004789682200000001,0.007534042,0.0021964847999999997,0.0017736734000000003,0.002088931,4.97,0,0
0.0036498100000000007,0.007877032,0.0045946688,0.0023309002000000004,0.0017039382000000002,4.971,0,0
0.001324344,0.0062860848,0.004367370800000001,4.0666200000000034e-05,0.0001132962,4.972,0,0
0.0010465571999999997,0.0032722528,0.003865292800000001,0.00022321860000000006,0.0004744052000000001,4.973,0,0
-0.0005687854,-0.0018701132000000001,0.004987362,0.0001834368000000001,-0.000195263,4.974,0,0
-0.0032219454,-0.005891373199999999,0.0040745756,-0.0027344032,-0.002720115,4.975,0,0
-0.0020021914000000005,-0.0065200992,0.0013467076000000001,-0.0028517940000000004,-0.0024268536,4.976,0,0
0.0011246466000000002,-0.005713706000000001,0.00104927206,0.00051588,-0.00023972160000000002,4.977,0,0
0.0015297794000000001,-0.004568288,0.0011097600600000002,0.0011578764,-0.0001102532,4.978,0,0
0.0009597840000000002,-0.0023114699999999995,-0.00041870993999999995,0.00047040600000000014,-0.00030092119999999996,4.979,0,0
0.0009605479999999999,-0.0002583417999999999,5.3652460000000175e-05,0.0012458150400000002,0.0006117627999999999,4.98,0,0
-0.000254316,-0.0005045459999999999,0.00162000446,0.0007426230399999998,0.00025159940000000006,4.981,0,0
-0.002483538,-0.0021131780000000003,0.0009571800000000001,-0.0017595669600000002,-0.0013510646000000001,4.982,0,0
-0.0026723808,-0.00264318,-0.0002459379999999999,-0.00270263296,-0.00109792,4.983,0,0
-0.0017446738,-0.0017881136000000002,0.0004948920000000002,-0.00188821296,0.00016093400000000006,4.984,0,0
-0.0019560458000000003,-0.0018019178,-0.000947844,-0.0024504600000000007,-0.0003093859999999999,4.985,0,0
0.0002012842,-0.0015926728000000001,-0.004168384000000001,-0.0008231380000000003,0.0005469380000000001,4.986,0,0
0.0028115702,1.727320000000001e-05,-0.0033621199999999997,0.002821436,0.0023350120000000005,4.987,0,0
0.0016240890000000002,0.0009270414000000001,-0.0019615759999999996,0.002748786,0.0010599460000000002,4.988,0,0
0.0013583194000000001,0.0017612650000000001,-0.0030843739999999995,0.0015761119999999997,-3.142199999999981e-05,4.989,0,0
0.0026055974,0.002550103,-0.0021446596,0.0023434679999999996,0.0008954780000000001,4.99,0,0
0.0009405893999999998,0.0021721542,0.0007912324000000001,0.0012678987999999998,0.00014245200000000016,4.991,0,0
-0.0018376786,0.0017988942000000002,0.00043052440000000014,-0.0017259152,-0.0012143478000000002,4.992,0,0
-0.00043701060000000003,0.002796558,-0.0009691896000000001,-0.0009126612,0.0005751702,4.993,0,0
0.001592702,0.00387983,0.0005298404000000001,0.0015561868000000003,0.0019121602,4.994,0,0
0.0007490571999999999,0.0037336960000000003,0.0012846160000000001,0.0013193888000000002,0.0008927642000000001,4.995,0,0
0.0010895812,0.0030908840000000003,0.0006880020000000002,0.0009283840000000003,0.0005353221999999999,4.996,0,0
0.0021351194,0.0022315140000000004,0.0018412980000000001,0.0010652300000000001,0.00027642400000000005,4.997,0,0
0.0006630713999999998,0.0006304480000000002,0.0026682760000000002,-0.0007694379999999997,-0.0014914440000000002,4.998,0,0
-0.0019498146,-0.000687358,0.0012052520000000002,-0.003164514,-0.0029835120000000002,4.999,0,0
-0.0019563054,-0.0005660639999999999,0.00027052820000000015,-0.002764898,-0.0022687276,5.0,0,0
-0.001841406,-0.00085874,0.0008329422,-0.0022030468,-0.0017198024000000002,5.001,0,0
-0.0017673872,-0.001699814,-0.0009475498000000002,-0.0025670228,-0.0017850624000000004,5.002,0,0
0.0012262148000000003,-0.0011586654,-0.0025655038000000005,0.0004889091999999999,0.00014207559999999996,5.003,0,0
0.0024818488000000003,-0.0010996133999999999,-0.0007550978000000002,0.0032366332,0.0014567976,5.004,0,0
0.0009690004,-0.0018751734,-0.0004209340000000003,0.0016182852000000002,0.00010990119999999999,5.005,0,0
0.0008851878000000001,-0.0006932586000000001,-0.0020449920000000003,0.0008709519999999998,-4.954199999999997e-05,5.006,0,0
0.0011438908000000005,0.0008103632000000001,-0.001864456,0.0015803345999999998,0.000711588,5.007,0,0
-0.0009789432,0.0005958686,-0.0016060940000000002,-0.0007681994000000001,-0.0007631560000000001,5.008,0,0
-0.0015806498,0.00016960680000000004,-0.004513714,-0.0033473014,-0.0017061239999999998,5.009,0,0
0.0017532502,0.0011236268,-0.006327402,-0.0012114994000000003,0.0002825360000000001,5.01,0,0
0.0032515514000000002,0.0016030200000000001,-0.0049915646,0.0008561926,0.0011271100000000002,5.011,0,0
0.0018195154000000006,0.0005228882,-0.0037775305999999996,0.0004457199999999998,7.106400000000013e-05,5.012,0,0
0.0013832214000000002,0.00013779420000000007,-0.0018997785999999993,0.0012564258,0.0003336760000000003,5.013,0,0
0.0007059220000000004,-0.00030492000000000003,0.0020173194,0.0019082017999999998,0.00063284158,5.014,0,0
-0.0020483719999999997,-0.00187027,0.0051692374,0.00016151579999999994,-0.00035037102000000007,5.015,0,0
-0.003701836,-0.002586938,0.005551082000000001,-0.0014829962,-0.00024168702,5.016,0,0
-0.0028749300000000004,-0.0016198964000000001,0.0063351399999999995,-0.0007698122000000002,0.00113635898,5.017,0,0
-0.0032571040000000002,-0.0013818564,0.006755022,-0.0010762282,0.0007382669800000001,5.018,0,0
-0.002975434,-0.0012237946,0.003473784,-0.0008800466,0.0005260951999999999,5.019,0,0
-0.0007084720000000001,-1.9426600000000056e-05,0.0012396059999999999,0.0026833094,0.0021101918000000002,5.02,0,0
-0.001735924,-0.0002932126,0.0015277880000000004,0.0041398874,0.0016298783999999999,5.021,0,0
-0.0037855320000000003,0.0002914478,-0.0006564299999999998,0.0024647674000000007,0.00018361440000000005,5.022,0,0
-0.002107964,0.0019725358000000004,-0.0022983079999999998,0.0023803276,0.0010481724,5.023,0,0
-0.00034821799999999997,0.0017543160000000001,-0.0002079899999999998,0.0019455720000000004,0.0014815226,5.024,0,0
-0.0009534520000000001,0.0017284359999999999,0.0008075800000000002,-0.0018536820000000002,-0.0005120434,5.025,0,0
0.001258234,0.00337037,-0.0005819459999999996,-0.003296116,-0.001050932,5.026,0,0
0.005569114,0.0033832920000000004,0.0001788818000000002,-0.0009243200000000002,0.000374808,5.027,0,0
0.005358126,0.0010040280000000001,0.0015438558,-0.00016885000000000012,-0.00014079620000000004,5.028,0,0
0.0030281480000000005,-6.45260000000003e-05,0.00058685018,-0.0005551020000000001,-0.0012461222000000002,5.029,0,0
0.0017784819999999998,-0.0010849800000000001,0.00044506818,1.22220000000001e-05,-0.0009305722000000001,5.03,0,0
-0.00043110999999999996,-0.0027634820000000003,0.0013449741800000002,-0.000488466,-0.0011505742000000002,5.031,0,0
-0.0033954759999999997,-0.0033520974000000006,0.0004098983800000001,-0.002767494,-0.0020884502,5.032,0,0
-0.0028541459999999997,-0.0007003314000000001,-0.00186611562,-0.0034314526000000004,-0.001358222,5.033,0,0
0.00047227200000000014,0.0037056306000000003,-0.0020517196000000002,-0.0020445466,0.00012551400000000018,5.034,0,0
0.001436948,0.004540272600000001,-0.0027954176,-0.0020443606000000005,-6.972199999999987e-05,5.035,0,0
0.0038149480000000003,0.0042602106,-0.0051179156,-0.00043771260000000014,0.0010852040000000002,5.036,0,0
0.006737614,0.0038585480000000003,-0.0036205396,0.0033103294000000004,0.0028822820000000003,5.037,0,0
0.0036403359999999997,-0.00023635599999999963,-0.0010900216,0.0030366640000000006,0.0011607420000000004,5.038,0,0
-0.001191204,-0.006028376,-0.001264398,0.0013279980000000004,-0.0006140039999999996,5.039,0,0
-0.0026173439999999997,-0.008068922,-0.00014062799999999985,0.0020009798000000002,-1.480999999999946e-05,5.04,0,0
-0.004148458,-0.00753041,0.0024202340000000003,0.0004596078000000003,-0.0008688279999999997,5.041,0,0
-0.0051804039999999996,-0.006346622,0.0018014714,-0.0030245322,-0.0026396980000000002,5.042,0,0
-0.00030718399999999984,-0.0030348840000000003,0.00020135139999999998,-0.0024727258000000005,-0.001158962,5.043,0,0
0.004783216,0.0005324240000000001,0.0011959814,3.300220000000014e-05,0.000592436,5.044,0,0
0.004474038,0.0025764100000000003,0.0014311194,0.00014084440000000013,-0.00023681,5.045,0,0
0.0024040659999999994,0.00280371,0.0007463404000000001,0.00028715640000000003,-0.0007686,5.046,0,0
9.130000000000054e-05,0.0019098943999999998,0.0019185110000000001,0.0014313004000000003,-0.0006959666000000001,5.047,0,0
-0.0035455680000000007,0.0015416324,0.0029140810000000002,0.0005387340000000002,-0.0015599846000000001,5.048,0,0
-0.0059340442,0.0014437944000000001,0.0015607710000000003,-0.0014208220000000002,-0.0024225106,5.049,0,0
-0.0043529696,0.0003004743999999998,0.0002232470000000002,-0.0009800859999999998,-0.0011957766000000002,5.05,0,0
-0.0015635956000000003,0.0009759343999999999,0.0004586734,-3.343800000000016e-05,0.00015972540000000002,5.051,0,0
0.0003268504,0.002924362,-0.0020433226,-0.0005461980000000001,0.00014661640000000005,5.052,0,0
0.0032328904,0.0021213979999999996,-0.004941546600000001,0.0014811380000000001,0.0019121604000000001,5.053,0,0
0.0040010666,-0.00023815000000000034,-0.003881804600000001,0.0039687179999999996,0.0032374544,5.054,0,0
0.0013174600000000003,-0.0014063980000000003,-0.0037816186000000007,0.002482784,0.0017051644,5.055,0,0
0.0002215460000000002,-0.0027232860000000005,-0.004870332000000001,0.0015359180000000003,0.0010249797999999997,5.056,0,0
3.745400000000008e-05,-0.004637474820000001,-0.0023588080000000004,0.002072884,0.0013511788,5.057,0,0
-0.002479296,-0.00423665902,0.0009474360000000002,-9.95700000000001e-05,-0.00031715520000000013,5.058,0,0
-0.0041153380000000005,-0.0016405950200000005,0.0010103100000000004,-0.002781734,-0.0016225752000000003,5.059,0,0
-0.0015452808000000003,0.00219476098,0.002312824,-0.0013479260000000002,0.00018856679999999998,5.06,0,0
-0.00037875080000000013,0.004849678980000001,0.005521688,0.000262318,0.0012723194000000002,5.061,0,0
-0.0016838328000000004,0.0058074778,0.0058101,-0.000540986,0.0005673820000000001,5.062,0,0
-0.0020259668,0.005737238,0.004863956,-0.00010128200000000006,0.0005908280000000001,5.063,0,0
-0.0023141208,0.0032796020000000004,0.004896872,0.0003033500000000002,0.00048213999999999993,5.064,0,0
-0.0021245,-0.0005254539999999999,0.003497234,-0.001403764,-0.001220076,5.065,0,0
-0.0002980700000000001,-0.0036124580000000007,-0.00010126799999999984,-0.002950884,-0.0022839098,5.066,0,0
0.002315218,-0.00517571,-0.002251464,-0.002145042,-0.0010524078,5.067,0,0
0.003438132,-0.0060173380000000005,-0.0023347975999999998,-0.001987912,-0.0004243637999999997,5.068,0,0
0.005047918,-0.004989024000000001,-0.004438015599999999,-0.0018454788,0.00044946820000000024,5.069,0,0
0.00720868,-0.0019523980000000002,-0.0054266636,0.0019254652,0.0032313062000000003,5.07,0,0
0.0049843218,-0.0005627900000000003,-0.0027995916,0.0039858352,0.003646794,5.071,0,0
0.0013408837999999996,-7.313440000000017e-05,-0.0020388876000000007,0.0028046352,0.0017612679999999999,5.072,0,0
0.0006584457999999997,0.0027600456000000002,-0.0020530488000000003,0.0032550942000000005,0.0015381579999999998,5.073,0,0
-0.0016303702000000004,0.004813173600000001,0.0011372692,0.0031735930000000006,0.000774306,5.074,0,0
-0.0068701302,0.0037968076000000008,0.0028584712,-0.0004954290000000001,-0.00175669,5.075,0,0
-0.009001072,0.0029791656000000004,0.0007359932000000002,-0.0025060050000000004,-0.0020160860000000003,5.076,0,0
-0.007274216000000001,0.0014587940000000002,0.0011839392,-0.0008112190000000001,-0.00021256599999999997,5.077,0,0
-0.007844712,-0.0032864660000000005,0.00289957,-0.000648188,-0.00028657220000000003,5.078,0,0
-0.006923274000000001,-0.006283084000000001,0.001902318,-0.0013360240000000001,-0.0008404682000000001,5.079,0,0
0.00025682599999999993,-0.005157106000000002,0.00222334,-0.0008718619999999999,-0.00028571159999999995,5.08,0,0
0.006054486,-0.003909834000000001,0.0037995320000000004,-0.00146169,-0.0010995396,5.081,0,0
0.006411937,-0.0026059080000000005,0.00261589,-0.0034604120000000004,-0.0025397996000000003,5.082,0,0
0.007025555000000001,8.299800000000012e-06,-0.00038793400000000015,-0.0038357292,-0.0020527494,5.083,0,0
0.007909392400000001,0.0013515418000000002,-0.001289044,-0.0022237532,-0.0007764734,5.084,0,0
0.0021659904000000006,-3.658819999999998e-05,-0.0024061520000000004,-0.0023446632000000004,-0.0011777860000000001,5.085,0,0
-0.0014171514,-3.127019999999998e-05,-0.0054026560000000005,-0.0007424272000000001,-8.260799999999991e-05,5.086,0,0
0.0019493116000000004,0.0026421338,-0.0046252080000000004,0.0033646608000000005,0.0024061740000000005,5.087,0,0
0.0034772936000000004,0.0050635260000000005,-0.00164549,0.00369262,0.0016935960000000003,5.088,0,0
0.0036614542000000003,0.006558038000000001,-0.0014731890000000004,0.002335344,0.0005245720000000004,5.089,0,0
0.0052384982,0.006618692000000001,-0.0002850330000000004,0.003241326,0.0015193300000000002,5.09,0,0
0.004127591999999999,0.004605352,0.0031250590000000003,0.002343926,0.0013465520000000002,5.091,0,0
-0.00015145200000000027,0.0013441640000000006,0.0033389070000000003,-0.00144026,-0.0006097999999999998,5.092,0,0
-0.0011722046000000002,-0.001375762,0.0011579109999999997,-0.0018472536000000003,-0.00020555019999999994,5.093,0,0
-0.0008456106000000001,-0.0027456692,0.0014675600000000001,0.00024636639999999995,0.0011114878000000003,5.094,0,0
-0.0023944666000000002,-0.0031457132,0.00157725,0.0003358184,-0.00010715419999999989,5.095,0,0
-0.0040933986,-0.0026901412,0.00020640600000000007,-0.0001159656000000002,-0.0012020582,5.096,0,0
-0.0059779546,-0.0016127516000000001,0.0007391840000000002,0.00038230439999999995,-0.0010393282,5.097,0,0
-0.008996210000000001,-0.0012353224000000002,0.001640566,-0.00028842400000000023,-0.001941274,5.098,0,0
-0.011463028,-0.0011048790000000002,0.0005775939999999999,-0.0023786740000000003,-0.0028960039999999998,5.099,0,0
-0.009464172,0.0004966150000000001,-0.0010515580000000002,-0.0024253840000000005,-0.00133897,5.1,0,0
-0.00495565,0.002354963,-0.001921046,-0.0011400900000000003,0.0003711099999999999,5.101,0,0
-0.0010713040000000006,0.0029110754,-0.005937212000000001,-0.0008834774,0.00040763320000000003,5.102,0,0
0.0044985960000000005,0.0038511001999999997,-0.010265288000000001,0.0014964065999999998,0.0022153492,5.103,0,0
0.007970414,0.004073398000000001,-0.009525106,0.0042581586,0.0038478112000000005,5.104,0,0
0.006119553999999999,0.0018107880000000002,-0.008268246,0.0032382286,0.0022963812,5.105,0,0
0.006549432000000001,0.00046312999999999997,-0.0072412986,0.0024716245999999997,0.0014026208,5.106,0,0
0.007862626,-0.0007298960000000001,-0.0023721185999999997,0.0027294119999999996,0.0015298874,5.107,0,0
0.005190661920000001,-0.0028531480000000002,0.0039457814,1.7139999999999907e-05,-0.0005749405999999999,5.108,0,0
0.0040534579200000006,-0.002121562,0.0060314194,-0.0032242779999999997,-0.0029448246,5.109,0,0
0.00577220392,0.0005954059999999997,0.007248559400000001,-0.0021423379999999997,-0.0019475086000000001,5.11,0,0
0.00450805792,0.00179714,0.010385852000000001,-0.0008676899999999996,-0.0012200362,5.111,0,0
0.0014939599199999998,0.0022363098,0.010797292,-0.00187836,-0.0021007459999999997,5.112,0,0
-9.351000000000021e-05,0.0026317038,0.008965488,-0.00137202,-0.0012043320000000002,5.113,0,0
-0.0019561920000000003,0.0012460818000000003,0.0075935379999999995,-0.000813312,-0.00034869800000000004,5.114,0,0
-0.0038498660000000004,-0.0012707082,0.0054218159999999994,-0.0025953300000000003,-0.001377694,5.115,0,0
-0.0048212457999999994,-0.0034509902,0.0015194700000000004,-0.003814786,-0.0018540441999999999,5.116,0,0
-0.003679635799999999,-0.004030494000000001,-0.000826474,-0.002173656,-0.00043226819999999993,5.117,0,0
-0.0026849538000000006,-0.004254532,-0.0008324799999999999,-0.0015489059999999999,-0.00020235540000000012,5.118,0,0
-0.0021948758,-0.005333608,-0.0023727740000000002,-0.0009895138000000003,-2.7961200000000114e-05,5.119,0,0
0.0006869802000000001,-0.00381779,-0.0028492480000000004,0.0032655202,0.0024329108,5.12,0,0
0.0013764660000000002,-0.0022951300000000003,-0.0007690640000000003,0.0055249322,0.003005723,5.121,0,0
-0.001520566,-0.003644288,-0.0010825020000000004,0.0037675321999999997,0.001639681,5.122,0,0
-0.002444822,-0.003593868,-0.002447012,0.0037384587999999995,0.0020114122000000003,5.123,0,0
-0.0027185079999999997,-0.00243733,-0.0009054580000000002,0.004006352599999999,0.0023480280000000003,5.124,0,0
-0.005811068,-0.003084552,-0.0001515920000000002,0.00034612659999999954,0.00020218199999999997,5.125,0,0
-0.0065687422,-0.002090646,-0.002528728,-0.0020675614,-0.00041311760000000005,5.126,0,0
-0.0025106422000000005,0.001481546,-0.00254014,0.00028116860000000003,0.0012946443999999999,5.127,0,0
8.518179999999998e-05,0.00265846,-0.00113145,0.0012300780000000001,0.0007628392,5.128,0,0
0.0006304417999999998,0.00222373,-0.0018303660000000002,-0.00016090799999999997,-0.0007564628,5.129,0,0
0.0023151092,0.0023566552,-0.0015971404,-4.5043999999999943e-05,-0.0010174488,5.13,0,0
0.0026478826,0.0017542812000000004,9.25516e-05,-0.00034964800000000004,-0.0017670892000000002,5.131,0,0
0.0009905676000000001,0.0027215932,0.00023290160000000008,-0.0030419260000000004,-0.0034447232000000003,5.132,0,0
9.291940000000004e-05,0.007498067200000001,-0.0010988884,-0.0042304000000000005,-0.003563576,5.133,0,0
-0.0001970005999999999,0.0108998492,-0.0007203404,-0.0024929,-0.0017950280000000002,5.134,0,0
-0.00137564,0.009633788000000003,-0.0006775301999999999,-0.0026131880000000002,-0.00112159776,5.135,0,0
-0.0005679731999999999,0.007236458000000001,-0.0028393422,-0.0016502560000000003,-0.00015890575999999993,5.136,0,0
0.0018974818000000004,0.0037060660000000013,-0.0021951502,0.002744868,0.00263269024,5.137,0,0
0.0023890840000000005,-0.0015798879999999996,0.00018017580000000036,0.0038273440000000003,0.0031229562400000004,5.138,0,0
0.0038206040000000004,-0.004863340000000001,-0.00028449619999999966,0.0024378060000000003,0.00184360224,5.139,0,0
0.005489818000000001,-0.005378310000000001,5.831200000000036e-05,0.0031744836000000003,0.002259248,5.14,0,0
0.002828604000000001,-0.0053597160000000005,0.002688612000000001,0.0024354116,0.0017475799999999999,5.141,0,0
-0.001483872,-0.005435614,0.0024877922000000005,-0.0015158784000000002,-0.0006960620000000001,5.142,0,0
-0.0021140418000000004,-0.005823908000000001,2.4180200000000233e-05,-0.0023980600000000005,-0.000576504,5.143,0,0
-0.0011008678000000004,-0.005747152000000001,0.00013846120000000008,-0.00018972800000000012,0.0012289979999999998,5.144,0,0
-0.0016403128000000004,-0.004363839999999999,0.0005147192000000001,7.539200000000024e-06,0.0007218273999999998,5.145,0,0
-0.0003832188,-0.0026204519999999997,-0.0007606508,-0.0004222908,-0.00021541060000000018,5.146,0,0
0.0022754632,-0.0015021184000000001,-0.00035488499999999993,4.609120000000002e-05,-0.0001902166000000002,5.147,0,0
0.0022289847000000005,-0.0013748144,0.0008934610000000001,-0.0009786732000000003,-0.0012445626000000003,5.148,0,0
0.0006886801,-0.0011954904,-1.599199999999983e-05,-0.0033349152,-0.0029251406000000003,5.149,0,0
0.0014066331,-0.0003209243999999999,-0.001423662,-0.0033890056,-0.002455734,5.15,0,0
0.0020246391,0.00024284760000000012,-0.0005159720000000001,-0.0020220476,-0.001001122,5.151,0,0
0.0007679211000000002,0.001108548,-0.0012201640000000001,-0.0018534336,-0.0005940456000000002,5.152,0,0
0.0025975574000000005,0.003555302,-0.002961486,0.0008911343999999999,0.0013625204,5.153,0,0
0.00423893,0.004922384,-0.0008128160000000003,0.0047926924000000004,0.0033162844,5.154,0,0
0.0015453619999999998,0.004196508,0.0008160879999999996,0.004467736,0.0019668444,5.155,0,0
-0.00045461600000000013,0.004206712,-0.00025965800000000034,0.003583642,0.0009964684000000003,5.156,0,0
-0.0018812920000000006,0.0036836440000000002,0.0008043519999999997,0.004186601999999999,0.0012432260000000003,5.157,0,0
-0.006171450000000001,0.001772934,0.00285449,0.0018109520000000004,-0.000602506,5.158,0,0
-0.00948009,0.00107045,0.0012128560000000002,-0.0020732140000000003,-0.0022214319999999997,5.159,0,0
-0.008094038000000001,0.0013994308700000001,-0.0006686639999999998,-0.0017111754,-0.000403128,5.16,0,0
-0.00570147,0.0014873108700000001,9.027000000000031e-05,-0.0002479874,0.001001088,5.161,0,0
-0.003997002,0.00196042087,0.0002235160000000002,-0.0010128294000000002,0.00016307799999999999,5.162,0,0
-0.002612404,0.0016278948700000002,0.00023948000000000025,-0.0008273934000000002,7.948799999999995e-05,5.163,0,0
-0.0036643560000000006,-0.0006311611299999998,0.0025043800000000005,-0.00023487740000000012,-5.577200000000005e-05,5.164,0,0
-0.0063880000000000004,-0.0025355660000000004,0.004538238,-0.0016274660000000002,-0.0018246120000000002,5.165,0,0
-0.006457216,-0.0030248412,0.0036287620000000002,-0.0032241260000000003,-0.0029255080000000003,5.166,0,0
-0.001794836000000001,-0.0023348972,0.002569654,-0.0022737040000000005,-0.0017458740000000001,5.167,0,0
0.0038973259999999996,-0.0010272912000000001,0.002281796,-0.0017195985600000005,-0.0012905640000000001,5.168,0,0
0.009803986,0.0007289257999999999,-0.00128496,-0.0019522685600000004,-0.00137531,5.169,0,0
0.016823706,0.0033288958000000004,-0.004298418,0.0012224054399999997,0.0008381580000000001,5.17,0,0
0.017829994000000002,0.003931449,-0.0033007640000000003,0.00360150944,0.001722964,5.171,0,0
0.011644856000000002,0.001366537,-0.004048728,0.00196028544,0.00027173399999999993,5.172,0,0
0.006261348000000001,-0.000543833,-0.005525292,0.0016699540000000002,0.0009055700000000001,5.173,0,0
0.00253922,-0.00108011,-0.0030853100000000004,0.0026513680000000003,0.001951954,5.174,0,0
-0.0018878760000000004,-0.003093814,-0.0008682220000000001,0.00016348600000000012,0.00044133599999999996,5.175,0,0
-0.003628568,-0.005094482,-0.0017953,-0.0021780899999999997,-7.269439999999995e-05,5.176,0,0
-0.0016345980000000001,-0.00454213,-0.0007926997,-4.48559999999998e-05,0.0018673015999999998,5.177,0,0
-0.0017160000000000003,-0.0045238299999999995,0.0018047083,0.001170908,0.0020925136,5.178,0,0
-0.003483532,-0.0052414060000000005,0.0019775203,-0.00012770399999999986,0.0007820995999999998,5.179,0,0
-0.0035891980000000005,-0.003954176199999999,0.0018371369,-9.039999999999992e-05,0.0005045955999999998,5.18,0,0
-0.00310646,-0.0022612222000000003,0.0032211169,-0.00017609000000000006,-0.00014782200000000014,5.181,0,0
-0.002054484,-0.0009836902000000002,0.0033850826,-0.00206156,-0.00204606,5.182,0,0
0.0004079260000000001,0.0009640817999999999,0.0013936246,-0.0031224816000000005,-0.0027814318000000003,5.183,0,0
0.003174204,0.0032838458000000004,0.0009892526000000001,-0.0018421936000000002,-0.0014951178,5.184,0,0
0.0030706040000000006,0.004077064,0.00118621,-0.0017216716000000003,-0.0011085385999999998,5.185,0,0
0.0020299520000000002,0.004015828,-0.001273758,-0.0010739365800000002,-0.00021483260000000002,5.186,0,0
0.0003654938000000001,0.0030602886,-0.002441586,0.00234661742,0.0022503594000000005,5.187,0,0
-0.0041623262,-4.931339999999975e-05,-0.00141507,0.00334605702,0.0022407368000000004,5.188,0,0
-0.007463144200000001,-0.0029653974,-0.00239127,0.00206243902,0.0010738848000000005,5.189,0,0
-0.007078892200000001,-0.0036772332000000003,-0.0027532326,0.00230320182,0.0018977556000000003,5.19,0,0
-0.0067570442,-0.0031915132000000005,0.00015999740000000018,0.0018643268,0.0015968660000000006,5.191,0,0
-0.005729134,-0.0019489898,0.0017546034,-0.0012557452,-0.000772348,5.192,0,0
0.00021756599999999977,0.0016712442000000002,0.0008034674,-0.0020508448,-0.0009183856000000001,5.193,0,0
0.0054878060000000005,0.0047765862,0.0019694574,0.0001652352000000002,0.00010322839999999994,5.194,0,0
0.005553012000000001,0.0050028880000000005,0.003591486,0.00033003640000000027,-0.0010726236,5.195,0,0
0.0034855960000000005,0.0041861394,0.002539132,-0.00044484159999999995,-0.0020164040000000003,5.196,0,0
0.0005648959999999996,0.0027410894000000005,0.0023943140000000003,-0.0002473416,-0.00160926,5.197,0,0
-0.002044352,0.0015160154,0.0033065660000000004,-0.0013440600000000002,-0.0021302639999999998,5.198,0,0
-0.002691308000000001,0.0021261774,0.002169312,-0.0034901160000000006,-0.002992942,5.199,0,0
-0.001232572,0.0028897674,0.0004445625999999999,-0.0031042820000000003,-0.0020294180000000003,5.2,0,0
0.00160386,0.002302648,0.0006499626000000001,-0.0011714700000000004,-0.00046481600000000006,5.201,0,0
0.003149498,0.002247618,-0.0003921134000000001,-0.0011495400000000001,-0.00010465560000000013,5.202,0,0
0.003736286,0.00305485,-0.0026877534000000003,0.0009996760000000001,0.0017695684,5.203,0,0
0.002967966,0.0020441219999999998,-0.0022450784,0.0048898200000000005,0.0035920864,5.204,0,0
-0.0005143660000000003,-0.0009806379999999998,-0.002726389,0.0046637026,0.0024292284,5.205,0,0
-0.0020445460000000004,-0.002689874,-0.005635207000000001,0.0033992766000000003,0.0018433164,5.206,0,0
-0.0013624166000000004,-0.0030012960000000005,-0.006314025,0.0040292926,0.0023395,5.207,0,0
-0.0029286446000000004,-0.003662644,-0.005204993,0.0021988966000000007,0.0008608419999999999,5.208,0,0
-0.004366178600000001,-0.0035538340000000005,-0.005458036,-0.0020642574,-0.0009172700000000002,5.209,0,0
-0.0014237566000000002,-0.001316956,-0.0047601544,-0.0021835047999999996,9.6926e-05,5.21,0,0
0.0012987594000000002,0.0010068320000000003,-0.0005950243999999997,-0.00025634879999999983,0.00041892000000000003,5.211,0,0
0.0012673658,0.0004646400000000001,0.0030966376,-0.0010458728,-0.001149646,5.212,0,0
0.0013477138000000002,-0.0026620040000000004,0.0046401736,-0.0017723828000000001,-0.0014061899999999999,5.213,0,0
0.0011384558000000003,-0.005381484000000001,0.0066029716,-0.0011909568000000002,-0.001202564,5.214,0,0
0.00010819780000000004,-0.006525534,0.007821680000000001,-0.0022412919999999998,-0.00224759,5.215,0,0
-0.0009432182000000001,-0.006928628000000001,0.005891894,-0.0042963,-0.0027508182,5.216,0,0
-0.0001887639999999999,-0.005301508000000001,0.0034055407999999997,-0.0033065939999999995,-0.0011885342,5.217,0,0
3.065000000000007e-05,-0.0015969880000000004,0.0029901047999999998,-0.001604472,-0.00047789780000000013,5.218,0,0
-0.0007070879999999998,0.001216646,0.00011182679999999982,-0.0010261886,-0.0005964678,5.219,0,0
0.000938206,0.002470776,-0.0031497852,0.0023168974,0.0014983542,5.22,0,0
0.0011189860000000002,0.0027085808,-0.0022437552,0.0052472474,0.0027314044,5.221,0,0
-0.0011872879999999999,0.0023622942,-0.0021320044,0.0041130694,0.0015552464,5.222,0,0
-0.0010529424,0.0026016922,-0.0030559764000000003,0.0036713015999999994,0.0016522862,5.223,0,0
0.00035729879999999993,0.0029531722000000005,-0.0012342864,0.0037450998,0.0020944592000000004,5.224,0,0
-0.0008212303999999999,0.0026795882000000006,0.0008067840000000001,0.00022520379999999983,0.00021947919999999992,5.225,0,0
-0.0011962404,0.0023371974,-0.00042883600000000004,-0.0030704522,-0.0010966208,5.226,0,0
0.0016128856000000003,0.0023690872000000003,-0.0009470116000000001,-0.0018210862000000003,0.00024687320000000006,5.227,0,0
0.0027031420000000004,0.0007897711999999999,0.00035398039999999997,-0.0005989544000000002,0.00039699100000000013,5.228,0,0
0.0018704148000000002,-0.0020118548,0.00018517639999999998,-0.0014018060000000002,-0.0006095059999999999,5.229,0,0
0.001935428,-0.0026345388,0.00016534619999999996,-0.0010123979999999999,-0.000425812,5.23,0,0
0.0014086780000000004,-0.0017366908,0.0013173121999999998,-0.000366998,-0.0008071719999999999,5.231,0,0
-0.0010901580000000001,-0.0012832199999999998,0.0015732102,-0.001824142,-0.002159818,5.232,0,0
-0.0029264219999999997,-0.0004138159999999998,-0.00017800780000000005,-0.003416798,-0.0023376952,5.233,0,0
-0.002670832,0.001780192,-0.0008732098000000001,-0.002348736,-0.0011584692000000001,5.234,0,0
-0.003353688,0.003447482,-0.0008271106,-0.0020975020000000002,-0.0011952892,5.235,0,0
-0.0032247294,0.00407946,-0.0031391226,-0.001935334,-0.0005843006,5.236,0,0
-0.0009524154,0.00443587,-0.0033466185999999998,0.001883306,0.0016555154,5.237,0,0
-0.0007380674,0.00350675,-0.0007305746000000001,0.0038975100000000003,0.0018171826,5.238,0,0
-0.0006528234000000001,0.002385632,-0.00046584659999999973,0.0027412200000000004,0.0009031886,5.239,0,0
0.0020731106,0.0011162568,-0.0002946979999999999,0.0033263644000000006,0.0015861126,5.24,0,0
0.003583142,-0.0013872831999999999,0.00249383,0.0031477044,0.0014053199999999998,5.241,0,0
0.003002352,-0.0022516014000000003,0.00292107294,-0.0005962675999999999,-0.000938948,5.242,0,0
0.003899132,-0.0012638993999999999,0.0002633169399999999,-0.0022282596,-0.001085415,5.243,0,0
0.0040968552,-0.0026292193999999996,0.00041423413999999996,-4.264760000000003e-05,0.000897225,5.244,0,0
0.0004715972000000003,-0.0042666962,0.00093693414,0.000471672,0.000735779,5.245,0,0
-0.0025515828000000004,-0.0029100737999999994,-0.00104537386,-0.00026658400000000027,0.00035791299999999996,5.246,0,0
-0.0035356668,-0.0028115695999999996,-0.0012716507999999999,2.098200000000001e-05,0.001392927,5.247,0,0
-0.004176666800000001,-0.0034957105999999997,0.00022820719999999998,-0.0007866700000000001,0.0008511580000000001,5.248,0,0
-0.004304376000000001,-0.0018958998000000002,-8.709000000000001e-05,-0.0032333960000000004,-0.0008008380000000001,5.249,0,0
-0.0027736624000000002,-0.00015849560000000002,-0.001205226,-0.0038311530000000008,-0.0006264619999999999,5.25,0,0
0.0001528476,0.0005381699999999999,0.000163722,-0.0023178390000000004,-0.00016008559999999998,5.251,0,0
0.0009305515999999999,-0.00011950000000000009,0.0005338646,-0.0024342770000000003,-0.0013521236,5.252,0,0
0.0021499136,-0.0002559958,-0.0012356294000000002,-0.0005684249999999998,-0.0006025356,5.253,0,0
0.0041262936,0.0012315374,-0.00038996940000000013,0.0036951950000000005,0.0013744764000000003,5.254,0,0
0.0023159980000000005,0.0011139814,0.0010773146,0.0042282380000000005,0.0007254604000000002,5.255,0,0
-0.0003830839999999999,0.0002034674,-5.9179399999999944e-05,0.003427474,0.0005127500000000002,5.256,0,0
0.00035615400000000024,0.0018313474,-0.0001686888,0.004815312,0.0020164560000000007,5.257,0,0
0.00048068600000000013,0.0028439402,0.0018909972000000002,0.003501644000000001,0.0011293780000000003,5.258,0,0
-0.0008654679999999999,0.0016920766,0.0014670072000000003,-0.000803118,-0.0013864279999999999,5.259,0,0
0.0017611259999999998,0.0020548144000000004,-5.9958799999999986e-05,-0.0011340832,-0.0009960901999999999,5.26,0,0
0.00390039,0.0021468382000000004,0.0015411112,0.0005309608000000001,-7.682619999999996e-05,5.261,0,0
0.002440388,-0.0001914378000000001,0.00273289,-0.00043340520000000006,-0.0014551062000000001,5.262,0,0
0.0011012980000000001,-0.0027706178,0.001750829,-0.0012162052,-0.0021111362,5.263,0,0
2.274000000000026e-06,-0.0045510982,0.001928171,-0.0006740492,-0.0018785662000000002,5.264,0,0
-0.0019929300000000004,-0.004957774600000001,0.0019479710000000002,-0.002192136,-0.002586568,5.265,0,0
-0.002024814,-0.0026302264000000004,-0.000511081,-0.004527592,-0.0030138156,5.266,0,0
0.0010994820000000002,0.0007307175999999999,-0.0025962190000000003,-0.0037572520000000004,-0.0016206796,5.267,0,0
0.002210494,0.0022141016,-0.0023238976000000003,-0.002342596,1.3876399999999934e-05,5.268,0,0
0.001439064,0.0029406576000000004,-0.0037961916,-0.0022869940000000005,0.0009199464,5.269,0,0
0.002974642000000001,0.003681965999999999,-0.005058491599999999,0.0007978500000000001,0.0030782464000000003,5.27,0,0
0.0024290538000000003,0.002481138,-0.0025541135999999996,0.004381396000000001,0.004380682,5.271,0,0
-0.0020370521999999998,0.0004594407999999999,-0.0014380655999999999,0.0034738800000000004,0.0032589760000000002,5.272,0,0
-0.0031803302,0.0012571948,-0.0016027246,0.002855184,0.0030742720000000003,5.273,0,0
-0.0017142301999999998,0.0033344148000000002,0.0009124654000000001,0.0035226056,0.0030943060000000002,5.274,0,0
-0.0028064622,0.0031387608,0.0032989534,0.0010490815999999999,0.0007852899999999999,5.275,0,0
-0.00346993,0.0019852264,0.0021592368,-0.0022219504,-0.000973104,5.276,0,0
-0.0006081140000000001,0.0020471638,0.0018584352000000004,-0.0010604284,-0.00031404579999999994,5.277,0,0
0.0012304899999999999,0.0010438558,0.0031025398000000004,0.00017783160000000024,-0.0007338374,5.278,0,0
0.0006729919999999999,-0.0013937442,0.0018465774,-0.0012017399999999998,-0.0019438274,5.279,0,0
0.0009787500000000002,-0.0025410702,0.0006074074,-0.0010016639999999998,-0.0017936734,5.28,0,0
0.0010076300000000002,-0.0034496038,0.0006818034000000002,-0.0007468899999999998,-0.0018617594000000003,5.281,0,0
-0.00101759,-0.004813156000000001,-0.000528767,-0.002692134,-0.0026884316,5.282,0,0
-0.002692064,-0.0046407539999999995,-0.0027923410000000003,-0.0038999380000000004,-0.002563024,5.283,0,0
-0.0020361447,-0.0032222858000000004,-0.0029554194,-0.0021110280000000005,-0.0008417219999999998,5.284,0,0
-0.0023429786999999997,-0.002329604,-0.0019892514,-0.0016697572000000003,-0.0002626659999999998,5.285,0,0
-0.0020681007,-0.000997196,-0.0030007108,-0.001267817,0.00017497920000000003,5.286,0,0
0.0009157493000000001,0.0014506700000000003,-0.0021427527999999998,0.002762913,0.0028815212000000002,5.287,0,0
0.0017300513000000001,0.003081124,0.0011215232,0.004619641000000001,0.0036431072,5.288,0,0
0.0008340880000000001,0.0032885058000000004,0.001651448,0.003069665,0.0019933672000000003,5.289,0,0
0.0017091516,0.0034260420000000002,0.0012869257999999998,0.003100753600000001,0.0021470688,5.29,0,0
0.0015276836000000002,0.0028654060000000005,0.0036067877999999996,0.0030096794,0.0019185330000000003,5.291,0,0
-0.0012638064,0.000845398,0.0043843618,-0.0006783886,-0.000523777,5.292,0,0
-0.0016034684,-0.0009165460000000001,0.0013243698,-0.0021005136000000002,-0.001050677,5.293,0,0
0.0007327836000000001,-0.0014279802000000002,0.0006721724000000001,0.00047139639999999993,0.000370283,5.294,0,0
0.0010380720000000001,-0.0018718742000000002,0.0016035965999999999,0.001176229,-1.580259999999997e-05,5.295,0,0
0.000293574,-0.0020682762,2.2670599999999796e-05,0.0005278789999999998,-0.0011127420000000001,5.296,0,0
0.0004210640000000004,-0.0011665788,-0.0006327454000000002,0.000594423,-0.0013851100000000002,5.297,0,0
-0.0002478179999999999,-0.0008013972000000001,0.0004343987999999999,-0.0005722100000000003,-0.00242382,5.298,0,0
-0.0017755543999999999,-0.0012401150000000002,-0.00037161780000000014,-0.00320804,-0.0037826900000000004,5.299,0,0
-0.0014928283999999996,-0.0008486832000000001,-0.0025599358,-0.0037828341999999997,-0.0034695382000000004,5.3,0,0
-0.0001209103999999999,0.00040339280000000003,-0.0023709118,-0.0023495481999999995,-0.0017271941999999997,5.301,0,0
-0.0006381583999999999,0.0008612833999999999,-0.0024049798,-0.0021603661999999996,-0.0009488476,5.302,0,0
4.947360000000006e-05,0.0014612278000000001,-0.004497882,-0.00019809220000000004,0.0007405764000000001,5.303,0,0
0.0012675760000000003,0.0019214922000000004,-0.00375578,0.0041347677999999995,0.0037839344000000002,5.304,0,0
-0.0008321200000000001,0.0007911184000000001,-0.00141173,0.0046138099999999994,0.0038474950000000003,5.305,0,0
-0.001853646,0.00018127560000000002,-0.0013135380000000002,0.0031280299999999995,0.002589271,5.306,0,0
-5.514800000000009e-05,0.0004116116000000001,-0.0002028780000000002,0.0035968008,0.0025392614000000003,5.307,0,0
0.0001523020000000001,0.0003549996000000002,0.0029625200000000006,0.0018564588000000001,0.0008938994,5.308,0,0
-0.00016551000000000011,0.0005382934,0.003783774,-0.0024070792000000004,-0.0024441986,5.309,0,0
0.003681928,0.0019087454,0.0028138060000000003,-0.0030818062,-0.0026145122,5.31,0,0
0.0073910500000000014,0.0022921762,0.0038076940000000004,-0.0009949502000000002,-0.0010929462000000003,5.311,0,0
0.00632728,0.0009384542,0.00416587,-0.0008187153999999999,-0.0016834612000000003,5.312,0,0
0.003923900000000001,0.0010510962,0.002865466,-0.0007079974000000003,-0.0016386752,5.313,0,0
0.0018796060000000002,0.00204497,0.002632848,4.3988600000000055e-05,-0.0004597575999999999,5.314,0,0
-0.0012317800000000005,0.0010294699999999998,0.0022607878000000005,-0.0011518964000000003,-0.0008709704,5.315,0,0
-0.004065363400000001,-0.0018936480000000004,0.00023243980000000014,-0.0031388824000000005,-0.0018612723999999999,5.316,0,0
-0.004331921400000001,-0.004261736,-0.0019289142000000002,-0.0027072300000000006,-0.0007295883999999999,5.317,0,0
-0.0038557934000000003,-0.004859298000000001,-0.0022349162,-0.0016280720000000004,0.00018377300000000003,5.318,0,0
-0.0034906634000000008,-0.004748514,-0.0039056462000000005,-0.00186644,-8.976919999999992e-05,5.319,0,0
-0.0009968814000000002,-0.0035901280000000006,-0.0056291760000000005,0.000994282,0.0020956928,5.32,0,0
0.0004565919999999996,-0.0011336580000000005,-0.0034946440000000007,0.004563628,0.0041176908000000005,5.321,0,0
-0.0006406480000000002,0.00090774,-0.002086984,0.0038997452000000005,0.0029360808,5.322,0,0
-4.5674000000000105e-05,0.0007761417999999999,-0.0027092360000000003,0.0033755632000000003,0.0023106854,5.323,0,0
0.0006238018000000002,7.483799999999916e-06,-0.0008466200000000001,0.004050069800000001,0.0023613748,5.324,0,0
-0.0017754762,0.0006543037999999999,0.001568612,0.0013202498000000002,-0.00017300119999999984,5.325,0,0
-0.0034573623999999996,0.0008437118000000001,0.00036082719999999994,-0.0022941742,-0.0024363572,5.326,0,0
-0.0009465324000000002,0.0012971258000000002,-2.926600000000068e-06,-0.0014754173999999998,-0.0015130432000000002,5.327,0,0
0.0006816976,0.0023935780000000004,0.0022983874000000004,-0.0003346654000000002,-0.0007992472,5.328,0,0
0.0002280517999999999,0.0029227440000000006,0.0030051274000000004,-0.0013873640000000003,-0.001509696,5.329,0,0
0.0010435277999999999,0.002729992,0.0027911614000000005,-0.0012785500000000003,-0.0011504000000000002,5.33,0,0
0.000923316,0.0016657080000000001,0.0040739442,-0.001185962,-0.0007991492,5.331,0,0
-0.0006436340000000001,0.0005655020000000001,0.00433939,-0.002988206,-0.0020309752,5.332,0,0
-0.0005767400000000004,-0.0005281098000000001,0.002118904,-0.0041283760000000004,-0.0020948852000000004,5.333,0,0
0.0011953059999999997,-0.0016401016,0.0005508479999999998,-0.0025037939999999997,-0.00020748119999999988,5.334,0,0
0.0008219227999999998,-0.0039267776,0.0001667901999999998,-0.0013012853999999996,0.0006557088,5.335,0,0
0.0011690503999999997,-0.0044128276000000004,-0.0026869998,-0.0004681525999999999,0.0017554900000000002,5.336,0,0
0.0046121084,-0.0016507216,-0.0043303518,0.0035049014000000005,0.005071984000000001,5.337,0,0
0.0042154984,-0.0008496358000000001,-0.0018818158000000003,0.0058687594000000004,0.005933608000000001,5.338,0,0
0.0007409143999999998,-0.0017480619999999999,-0.0015167218,0.0043426754,0.003696000000000001,5.339,0,0
1.966359999999972e-05,-0.0003876905999999999,-0.0017797000000000002,0.0038689327999999992,0.0025318980000000007,5.34,0,0
-0.0015432980000000002,0.0013844094000000002,0.000742588,0.003028914,0.0008610380000000006,5.341,0,0
-0.006335518,0.0006504354000000001,0.0020433791999999997,-0.0015224740000000002,-0.002963564,5.342,0,0
-0.007455028,0.0014635154,-0.0002333948,-0.00497448,-0.005184432000000001,5.343,0,0
-0.00378663,0.0041667494,-0.0015867608,-0.003570114,-0.003938824600000001,5.344,0,0
-0.0013962900000000006,0.0055536480000000004,-0.0019392748,-0.0026668340000000003,-0.0036659646000000005,5.345,0,0
0.00010989800000000025,0.00550971,-0.0041393208,-0.002835568,-0.004589220600000001,5.346,0,0
0.0023683822,0.0032514519999999997,-0.0056771700000000005,-0.0011584158,-0.0037139946,5.347,0,0
0.0042643682,-0.0005166560000000003,-0.005758006,-0.0004319438000000001,-0.0027515278000000004,5.348,0,0
0.004767354200000001,-0.004292348,-0.005296118000000001,-0.0018405398000000002,-0.0030145854000000003,5.349,0,0
0.0040241182,-0.0068884179999999995,-0.0044488948,-0.0022170524,-0.0022717794000000004,5.35,0,0
0.0037392081999999996,-0.006966067999999999,-0.0009474268000000002,-0.0007590784000000001,0.00027532659999999977,5.351,0,0
0.002641198,-0.004761919999999999,0.0023136292000000003,-0.0010935986000000003,0.0012227406,5.352,0,0
0.0017897820000000002,-0.0014710179999999997,0.0022211512000000003,4.7209400000000016e-05,0.0021701178,5.353,0,0
0.0018813640000000002,0.002096184,0.0038987912000000005,0.004096313400000001,0.004386774,5.354,0,0
0.0001923020000000002,0.004720252,0.006039278,0.005225324,0.0047528860000000004,5.355,0,0
-0.0010588239999999999,0.007739616000000001,0.0041949000000000005,0.004480494000000001,0.00424035,5.356,0,0
-0.001251654,0.009764628000000001,0.0032183299999999997,0.005265124,0.004199626000000001,5.357,0,0
-0.003672958,0.007505650000000001,0.005751092,0.004194806000000001,0.0030112660000000003,5.358,0,0
-0.006780609999999999,0.003763628,0.005830942,-0.0003401099999999998,0.0005664800000000003,5.359,0,0
-0.006503894,-0.00011231600000000033,0.0035023032,-0.0019057079999999999,0.00012127599999999991,5.36,0,0
-0.004967166,-0.005863336,0.0038912392000000004,-0.0005754159999999998,0.0008512179999999999,5.361,0,0
-0.00387108208,-0.010918756000000002,0.0042122912,-0.0013372719999999998,0.0003020077999999999,5.362,0,0
-0.0013234540800000003,-0.011505252000000002,0.002535889000000001,-0.0023426819999999996,-0.00032197619999999993,5.363,0,0
0.0008703399199999997,-0.009380924000000002,0.002119315,-0.001988986,-0.0005804801999999999,5.364,0,0
0.0028042519199999996,-0.006273288,0.0021819310000000002,-0.002840256,-0.0018585142,5.365,0,0
0.00467344992,-0.002378366,0.000117673,-0.004705064,-0.0034107402,5.366,0,0
0.005097394,0.001317626,-0.0025161270000000004,-0.004098908000000001,-0.002572166,5.367,0,0
0.003823042,0.0036242540000000004,-0.0031029328000000004,-0.002053286,-0.0011091660000000002,5.368,0,0
0.00136229,0.0037399946,-0.0050348548,-0.0013921180000000001,-0.0008090059999999999,5.369,0,0
0.001010706,0.0033908326,-0.007672532000000001,0.0013853300000000002,0.001379458,5.37,0,0
0.00135031,0.0027339186,-0.006225712960000001,0.0053588180000000004,0.003436774,5.371,0,0
0.00019372399999999994,0.0013587686,-0.00430371496,0.00535503,0.002219478,5.372,0,0
0.0009093448,0.0012381146,-0.004511060960000001,0.004751071600000001,0.0016145885999999997,5.373,0,0
0.0021345668,0.001954518,-0.00275676096,0.005400007600000001,0.0023793086,5.374,0,0
-0.0011878991999999997,0.0009058700000000001,0.00057306504,0.0031960336000000002,0.0007782465999999998,5.375,0,0
-0.0064080792,-0.0008232879999999999,0.001005104,-0.0007015404000000001,-0.0013979814,5.376,0,0
-0.007407761200000001,-0.0008208199999999998,0.0007363534000000001,-0.0006921644,-0.0002550994000000001,5.377,0,0
-0.006027394,-0.0004925379999999998,0.0027129674000000003,0.0004013020000000001,0.00046991199999999985,5.378,0,0
-0.00507495,-0.0004467179999999998,0.0034558874000000005,-0.000668522,-0.0008680600000000004,5.379,0,0
-0.0019266339999999998,0.0003095236000000003,0.0024875614000000002,-0.0008842419999999998,-0.0011390880000000003,5.38,0,0
0.0030936260000000004,0.0004925176000000001,0.0026127954000000004,-0.0008973219999999999,-0.0012045600000000004,5.381,0,0
0.00601496,-0.0006171083999999999,0.0024937294000000002,-0.0026827500000000002,-0.0027542380000000004,5.382,0,0
0.005595312000000001,-0.0013293092000000002,0.0008563454000000004,-0.00441624,-0.0037716440000000006,5.383,0,0
0.004645608000000001,-0.0005918392000000001,-0.00010130400000000006,-0.00319272,-0.0024703440000000006,5.384,0,0
0.0034237,0.0010358452,0.00025639299999999994,-0.002417574,-0.0016732166000000001,5.385,0,0
0.002315038,0.0033732072000000005,-0.002016701,-0.0022813720000000003,-0.0010264444,5.386,0,0
0.00335624,0.005930429200000001,-0.0041117924,0.001524714,0.0018213936000000001,5.387,0,0
0.0031819740000000006,0.006383858,-0.0029995943999999997,0.003963076,0.0035063476,5.388,0,0
0.002424146,0.004037682,-0.0032515622000000004,0.0022419420000000002,0.0022392316,5.389,0,0
0.003439826,0.001234114,-0.0035581318000000002,0.0019518279999999996,0.0017922462,5.39,0,0
0.0026582394,-0.0010396480000000007,-0.0006256957999999997,0.0021666520000000002,0.0017169778000000002,5.391,0,0
-0.0008413626000000002,-0.0030619280000000007,0.0022403282000000003,-0.0014292600000000001,-0.0004966982000000001,5.392,0,0
-0.0024248506000000003,-0.0036887180000000006,0.0017129592,-0.0039397600000000005,-0.0019131642000000003,5.393,0,0
-0.0005340806000000002,-0.0019552180000000003,0.0020140646,-0.0018958199999999999,-0.0006433202000000002,5.394,0,0
-0.0007234966000000005,-0.0003767820000000001,0.0038314612,-0.0009335679999999999,-0.00018008880000000007,5.395,0,0
-0.0023862760000000005,-5.716200000000003e-05,0.0036904332,-0.001679818,-0.0011857906000000001,5.396,0,0
-0.00152968,0.0006620844000000002,0.0032625952,-0.0011098520000000001,-0.0012958786,5.397,0,0
-0.001132274,0.0006983547999999999,0.0037106782000000003,-0.00114299,-0.0018327605999999999,5.398,0,0
-0.0033173660000000004,-0.0011296232000000002,0.002729102,-0.003054928,-0.0029750466000000005,5.399,0,0
-0.004861758,-0.0027975292,-0.0006547699999999998,-0.003844856,-0.0027127040000000002,5.4,0,0
-0.003878416,-0.0017889432000000004,-0.0020115619999999997,-0.0021422,-0.0010338300000000003,5.401,0,0
