bandpass 1,bandpass 2,bandpass 3,bandpass 4,bandpass 5,time,onset,mark
-0.0007699359999999999,-0.001181448,-0.0004677292,0.001794612,-0.00034062320000000004,4.095,0,0
-0.00012894199999999984,-0.001542942,-0.0009271771999999999,0.0014800059999999999,-0.0013830072000000004,4.096,1,1
0.0014962,-0.002893886,-0.0008068524,0.0008003059999999998,-0.0024675752,4.097,0,0
0.001983546,-0.006094812,-0.0011184521999999999,-0.0013148880000000002,-0.0048861292,4.098,0,0
0.0025923620000000004,-0.0054058648,-0.001421648,-0.002061708,-0.004502712000000001,4.099,0,0
0.0034034020000000007,-0.0026658067999999996,-0.000177398,-0.0007921340000000001,-0.001721148,4.1,0,0
0.001256816,-0.0025835868,0.000219522,-0.0007674560000000001,-0.001105372,4.101,0,0
-0.001209908,0.00044970519999999996,-0.00048189280000000004,0.00011132520000000002,0.000601846,4.102,0,0
-0.0006815320000000003,0.0063000292,0.0007115541999999999,0.0031239832,0.004101132,4.103,0,0
-0.000678768,0.00668778,0.00181686,0.0031814132,0.0029934820000000004,4.104,0,0
-0.0006389096000000001,0.005816088,0.0009761739999999998,0.0015294891999999998,0.0011288320000000002,4.105,0,0
0.0017703704,0.007659562,0.0012617499999999999,0.0018476171999999998,0.0021090480000000005,4.106,0,0
0.0026696588,0.0065161379999999994,0.0021448979999999997,0.0011655539999999999,0.0008687580000000003,4.107,0,0
0.0009178554000000001,0.002527986,0.0009113929999999999,-0.001659684,-0.002244672,4.108,0,0
0.0009797634000000002,0.003689996,-0.000370683,-0.0016939479999999996,-0.00037494199999999985,4.109,0,0
0.0018228670000000002,0.00627603,0.0007929510000000001,0.0006469339999999998,0.0025997400000000006,4.11,0,0
0.000519559,0.003916338,0.001204123,0.000666966,0.0014800460000000005,4.111,0,0
-0.0014810714000000002,-0.00017544599999999968,5.8401000000000026e-05,-0.0001514559999999999,0.0007330500000000005,4.112,0,0
-0.0027826440000000003,-0.004192634,6.39484e-05,-0.00025633199999999996,0.0005482020000000001,4.113,0,0
-0.0035595380000000005,-0.009380592,-0.00020296559999999993,-0.00156666,-0.001798188,4.114,0,0
-0.0040640828,-0.013421362000000001,-0.0018004176,-0.003671916,-0.003963948,4.115,0,0
-0.0029042248000000007,-0.011636218,-0.0026031132000000003,-0.0034661460000000002,-0.002785976,4.116,0,0
-0.00022243479999999993,-0.007423394000000001,-0.0014032312,-0.0017612040000000004,-0.0012280998,4.117,0,0
0.0011887112000000001,-0.0036044040000000003,-0.0015959036,-0.0015105740000000002,-0.0012021678,4.118,0,0
0.0025328192,0.004471116,-0.0016792476000000002,0.00046497399999999994,0.0017794742000000001,4.119,0,0
0.003469644,0.009625986,0.0008069704000000001,0.0032515340000000004,0.004384618200000001,4.12,0,0
0.001718208,0.006144773999999999,0.0014835220000000001,0.002574748,0.0024255022,4.121,0,0
0.0006954540000000001,0.004284332,0.00047451799999999995,0.0017007419999999999,0.001529046,4.122,0,0
0.0012628099999999998,0.003837315199999999,0.0013570860000000002,0.002235939,0.0021248644000000003,4.123,0,0
0.00015963799999999987,-0.0017282368,0.0022390480000000004,0.000751365,-0.0004122015999999999,4.124,0,0
-0.001502414,-0.0054372648,0.000288904,-0.0016084770000000003,-0.002661155,4.125,0,0
0.00023814799999999998,-0.00048802479999999994,-0.000534876,-0.00040836500000000005,6.112499999999998e-05,4.126,0,0
0.001770616,0.0036297332,0.0009267820000000001,0.0014178049999999998,0.001958551,4.127,0,0
0.000386712,0.002465358,0.0008544420000000002,0.0008393780000000002,0.0005467386000000004,4.128,0,0
-0.00030324600000000007,0.001860122000000001,0.00017681400000000018,0.000493322,-8.29813999999999e-05,4.129,0,0
-0.0005035119999999999,-0.0008132500000000002,0.0007211608000000003,0.0003952360000000001,-0.0008899419999999999,4.13,0,0
-0.002434574,-0.00744585,0.0006992088000000003,-0.0010980500000000002,-0.00340567,4.131,0,0
-0.004475178,-0.012106644000000001,-0.0009646652,-0.002894486,-0.00482192,4.132,0,0
-0.0033494640000000003,-0.010911243000000001,-0.0016099652000000002,-0.002041976,-0.0028363680000000006,4.133,0,0
-0.001985946,-0.009551203000000001,-0.0010733636000000001,-0.0011444760000000002,-0.0020706300000000004,4.134,0,0
-0.0014231600000000001,-0.005964793,-0.0025215064,-0.0016227700000000002,-0.00191946,4.135,0,0
0.0010089200000000002,0.0027664270000000006,-0.0026262644000000003,0.0007022119999999998,0.0017483580000000002,4.136,0,0
0.00257324,0.007136661000000001,-0.00012743240000000016,0.002622814,0.0031464500000000003,4.137,0,0
0.0009532280000000002,0.0066068080000000005,0.0002973216000000001,0.0011097239999999996,0.0014247780000000005,4.138,0,0
-0.000229128,0.007000361,7.855620000000007e-05,0.0007520219999999999,0.0021208184,4.139,0,0
0.00015752599999999993,0.005866560999999999,0.0018528942,0.0016640086,0.0030178604000000004,4.14,0,0
-0.00042092599999999985,-0.000148881,0.0019152662000000002,-0.0003305393999999999,-0.00033647759999999984,4.141,0,0
4.681200000000024e-05,-0.0029636144,-0.00023253179999999996,-0.0017592944000000001,-0.0026346616,4.142,0,0
0.0013121278,7.203959999999964e-05,-0.0006030514,-0.0008413909999999999,-0.0016668358,4.143,0,0
0.0016925418000000002,0.0059153146,-0.0008644616,-0.0001538929999999999,-0.0006441401999999999,4.144,0,0
0.0021742738000000003,0.015082444600000001,-0.0004234376,0.0015334664,0.0013168017999999999,4.145,0,0
0.0004186458000000001,0.0212443066,0.0017220324000000002,0.0014095063999999997,0.0015336578,4.146,0,0
-0.0040923482,0.019843200000000002,0.0022659266000000003,-0.0021323266,-0.0010299102000000003,4.147,0,0
-0.0068263180000000005,0.0139215,0.0014680362000000008,-0.005030276,-0.0033219160000000003,4.148,0,0
-0.006783952,0.0060208399999999995,0.0011912482000000003,-0.0057774340000000006,-0.003656484,4.149,0,0
-0.006538382000000001,-0.004355226,-0.0001492457999999995,-0.00603267,-0.0035112439999999997,4.15,0,0
-0.004519852,-0.011169766000000001,-0.0022688058,-0.003206646,-0.0001240019999999998,4.151,0,0
-0.00015532200000000006,-0.013634446,-0.0011432859999999999,0.0027147940000000004,0.0049231859999999995,4.152,0,0
0.0022799100000000004,-0.019788965999999998,0.00047959800000000013,0.004699692,0.0036581859999999995,4.153,0,0
0.002965324000000001,-0.026504746000000003,-0.000375366,0.003198214000000001,0.00022942799999999984,4.154,0,0
0.005206348,-0.027161059999999997,-0.0008239820000000001,0.0033318440000000005,0.00026836799999999973,4.155,0,0
0.008392056000000002,-0.024091341999999998,-0.00038485780000000006,0.0036576440000000003,0.00044414800000000055,4.156,0,0
0.010804746,-0.018694694,-0.0008888838000000001,0.00265788,-0.00039999600000000044,4.157,0,0
0.011840580000000002,-0.0071307539999999996,-0.0008689678000000004,0.003702154,0.0020973199999999997,4.158,0,0
0.01030289,0.006135886,0.0009447302,0.005378982000000001,0.004425862,4.159,0,0
0.005884518,0.014032686,0.0014305562,0.0035985538000000003,0.0020692856000000003,4.16,0,0
0.0009576859999999998,0.020006868,0.0007015599999999999,0.0013332718000000003,0.00013115359999999994,4.161,0,0
-0.003248158,0.02540268,0.001365742,0.0007721818000000001,0.0008187295999999998,4.162,0,0
-0.006576304000000001,0.024214346,0.001851254,-0.0009264222,-0.00022718640000000002,4.163,0,0
-0.009047008,0.017057046,0.0007722380000000001,-0.0041276982,-0.0034543084000000003,4.164,0,0
-0.010010136000000001,0.010156226,-3.7702000000000135e-05,-0.006128708,-0.004361942000000001,4.165,0,0
-0.008920926,0.0031569496000000007,0.00011618399999999997,-0.00629987,-0.00321457,4.166,0,0
-0.006452054,-0.0032892104,-0.0014324840000000001,-0.005478604,-0.0015426299999999997,4.167,0,0
-0.001116794,-0.0031611124000000003,-0.0026534362000000004,-0.0009991120000000004,0.00362349,4.168,0,0
0.00423762,-0.0031732124,-0.0006254441999999998,0.004384532,0.007624686,4.169,0,0
0.006055616000000001,-0.009008832400000001,0.00012250180000000007,0.005056182,0.005148596,4.17,0,0
0.007114888000000001,-0.012202256000000002,-0.0011049582000000001,0.004336776,0.0028195838000000003,4.171,0,0
0.00825262,-0.011164384000000001,-0.0008282966,0.005209044,0.0035576638000000007,4.172,0,0
0.00780736,-0.009444368000000002,-3.0152399999999898e-05,0.005373804,0.0032063838000000004,4.173,0,0
0.007599310000000001,-0.0030191480000000006,-0.0005920644000000004,0.004760556,0.0027586582000000003,4.174,0,0
0.008816608,0.009914052,-0.00015700715999999998,0.0066026340000000005,0.005577438200000001,4.175,0,0
0.007548654600000002,0.018662992,0.0017936348400000002,0.007835930000000001,0.0062025684000000005,4.176,0,0
0.0028153226000000005,0.01975508,0.0020181672400000003,0.005216077,0.0022992724,4.177,0,0
-0.0016823574000000003,0.020505420000000003,0.0018236712400000001,0.0025128109999999998,-8.532019999999994e-05,4.178,0,0
-0.0053403214000000004,0.01893012,0.00296323324,0.0008721630000000002,-0.0010848686,4.179,0,0
-0.0100175954,0.010543,0.0036968160000000003,-0.002573685,-0.0045240286000000005,4.18,0,0
-0.014066872000000001,0.0009336199999999987,0.002743554,-0.007346931,-0.0088744466,4.181,0,0
-0.014117114000000002,-0.004052160000000001,0.0011811019999999996,-0.009485437999999999,-0.0099069866,4.182,0,0
-0.011487910000000002,-0.008254914,-0.000181258,-0.009964864,-0.009789332000000001,4.183,0,0
-0.007346346,-0.011073488000000001,-0.002618038,-0.0095029436,-0.008371632,4.184,0,0
-0.0007179459999999997,-0.009853026,-0.003139872,-0.005318405599999999,-0.0029753060000000013,4.185,0,0
0.0034791419999999997,-0.012171626,-0.0013496020000000005,-0.0017236276,-0.0005217940000000001,4.186,0,0
0.003279436,-0.018133365999999998,-0.0014746660000000001,-0.0021608476000000002,-0.002340198,4.187,0,0
0.0026872800000000002,-0.019757611999999997,-0.002250948,-0.0018120924,-0.0014223919999999998,4.188,0,0
0.001976502,-0.017481008,-0.0016689528400000001,0.0003866792000000001,0.0007529860000000006,4.189,0,0
-0.00020550199999999977,-0.014972611999999996,-0.0017993630400000003,0.0011073232,0.0004958300000000007,4.19,0,0
-0.0009811399999999997,-0.008781877999999998,-0.00266491304,0.0020452032000000003,0.0017005860000000005,4.191,0,0
0.0020170540000000003,0.0021906020000000007,-0.0008918210400000002,0.0048869012,0.004920108800000001,4.192,0,0
0.0034626580000000004,0.008583082000000002,0.00119217896,0.005237194,0.0044158468000000005,4.193,0,0
0.0016935900000000002,0.010061272000000001,0.0010944540000000001,0.0028691750000000003,0.0020506088,4.194,0,0
0.0006428560000000002,0.013383334000000004,0.0013715342,0.0015335950000000002,0.0018522068,4.195,0,0
-0.00012094600000000003,0.014720828000000004,0.0019699582,5.842499999999975e-05,0.0010270667999999997,4.196,0,0
-0.00354712,0.009517528,0.0012263202000000002,-0.0034160730000000004,-0.002445356,4.197,0,0
-0.007012672000000001,0.002837108,-0.0002051977999999999,-0.006683709000000001,-0.005328162,4.198,0,0
-0.006316722,-0.0010172640000000004,-0.0006255419999999999,-0.007721506,-0.005298264,4.199,0,0
-0.004780006,-0.005731348,-0.0014482699999999998,-0.008499086000000001,-0.005634398,4.2,0,0
-0.0020800739999999995,-0.006664455400000001,-0.00293139,-0.007123436,-0.003548559999999999,4.201,0,0
0.0033751460000000007,-0.004259437400000001,-0.00168891,-0.002408262,0.0016354640000000003,4.202,0,0
0.0060431040000000005,-0.0088004774,0.00012286999999999997,-0.0004913,0.0016487040000000004,4.203,0,0
0.0054168620000000015,-0.0144757854,-0.000557606,-0.0011168280000000003,-0.0009153759999999999,4.204,0,0
0.006073882000000001,-0.0148174754,-0.0006855340000000001,0.0005284100000000001,0.000283026,4.205,0,0
0.006289759999999999,-0.014493706,0.0006702619999999999,0.002211612,0.0013489399999999999,4.206,0,0
0.004101006000000001,-0.012002124,0.0005353,0.002096774,0.00045556999999999976,4.207,0,0
0.0036045532,-0.0013485240000000011,-0.00013531600000000013,0.0038846680000000004,0.0028197224,4.208,0,0
0.0036175432000000005,0.009927176,0.0017152920000000002,0.006617500000000001,0.0060700804,4.209,0,0
0.0006877532000000002,0.01483777,0.0029387400000000004,0.005982442,0.0048514904,4.21,0,0
-0.0024153728,0.0187388,0.0018824900000000001,0.0038396572,0.0033564464000000005,4.211,0,0
-0.0034196248,0.02167764,0.001744944,0.0027215292000000004,0.0033285204,4.212,0,0
-0.00420019,0.0183943378,0.0020767560000000003,0.0008403631999999999,0.0011578959999999998,4.213,0,0
-0.005290588000000001,0.0102322778,0.000495148,-0.0026852248000000002,-0.0026142819999999995,4.214,0,0
-0.00444431,0.0038898578000000003,-0.001420732,-0.005214434800000001,-0.0044744599999999995,4.215,0,0
-0.002521382,-0.0022679102,-0.00173414,-0.005533024000000001,-0.004967572799999999,4.216,0,0
-0.0020918712,-0.0108665302,-0.003114402,-0.0056908136000000005,-0.0059752282,4.217,0,0
-0.0008001972000000001,-0.013299068,-0.004217446,-0.0036685756,-0.0028125081999999997,4.218,0,0
0.0016227768,-0.012215368,-0.0023126859999999996,0.0003509784,0.0010975218,4.219,0,0
0.0010690788,-0.015993608,-0.0012216483999999998,0.0009521364,-0.0006204062000000001,4.22,0,0
7.171080000000017e-05,-0.017462520000000002,-0.0017993044,0.00048051240000000013,-0.0012591194000000005,4.221,0,0
0.0013422759999999999,-0.012784474,-0.0009368708,0.0021552140000000003,0.0017359279999999994,4.222,0,0
0.0020094,-0.008076994,0.00020258719999999996,0.0026155000000000006,0.0024964799999999997,4.223,0,0
0.0016079780000000001,-0.0031065139999999995,-0.00032619880000000004,0.001852354,0.0019119739999999994,4.224,0,0
0.0027961300000000004,0.0062348460000000005,0.00019876159999999998,0.0036277500000000003,0.005400439999999999,4.225,0,0
0.0035330542000000004,0.013266526,0.0026259576,0.005366232,0.0071648039999999994,4.226,0,0
0.0010174782000000001,0.013818346000000002,0.003425122,0.0037729364000000003,0.004074123999999999,4.227,0,0
-0.0012631178,0.014132866000000001,0.0029746056,0.0023883446,0.002522756,4.228,0,0
-0.0016493582,0.014462346000000001,0.0035554876000000006,0.0020611346,0.0018079430000000002,4.229,0,0
-0.0023410142000000003,0.01075356,0.0035426556000000002,0.00014723459999999976,-0.001087203,4.23,0,0
-0.0039397344,0.005703288,0.0016450236000000004,-0.0028287894,-0.004199347,4.231,0,0
-0.0043018624,0.003308636,0.00029671760000000026,-0.0037260198000000004,-0.004416307,4.232,0,0
-0.0038567864,-0.0007400360000000003,0.00024569940000000024,-0.0036454512,-0.0044869670000000006,4.233,0,0
-0.00374967,-0.005213776000000001,-0.0017063726,-0.0042155582,-0.0042127576,4.234,0,0
-0.0016343820000000006,-0.004422574,-0.0027938706,-0.0016462102000000004,-0.00011196760000000013,4.235,0,0
0.00024342399999999984,-0.005782342000000001,-0.0010784185999999996,0.0011506118,0.0015081984,4.236,0,0
0.00017282600000000006,-0.010610936000000001,-0.0015008606,9.582579999999974e-05,-0.0012106616000000002,4.237,0,0
0.0015318240000000002,-0.010274779999999999,-0.003033566,-7.234720000000028e-05,-0.0015880960000000004,4.238,0,0
0.0031344020000000005,-0.007440265999999999,-0.0021892006,0.0018385277999999998,-0.00011553840000000024,4.239,0,0
0.0028505460000000002,-0.005451902,-0.0015983102,0.0020200938,-0.0008108383999999998,4.24,0,0
0.003722682,0.0006324379999999995,-0.0025856942000000004,0.0019078298,-0.0001363744,4.241,0,0
0.006843458,0.009453017999999999,-0.0012049082,0.0042759638,0.0041922256,4.242,0,0
0.007738793999999999,0.012319936,0.0012804798,0.005370450000000001,0.00548573,4.243,0,0
0.006301172000000001,0.011628684,0.0016589824,0.0036725976000000007,0.0035549940000000006,4.244,0,0
0.00552926,0.011604504,0.00213,0.0022437973999999998,0.0028320360000000004,4.245,0,0
0.003923598,0.008470473999999999,0.00330233,0.0011944154,0.0016606700000000002,4.246,0,0
0.0004911140000000004,0.003110474,0.0031308580000000003,-0.0009600585999999997,-0.0016527100000000002,4.247,0,0
-0.002624272,-0.0005762600000000003,0.0017769760000000002,-0.0033381666,-0.003960562000000001,4.248,0,0
-0.003906764,-0.0022755220000000003,0.0015534378000000002,-0.0035503476000000003,-0.0031283580000000004,4.249,0,0
-0.004997188,-0.005950412,0.0013512918000000002,-0.0035015792400000002,-0.0032370660000000007,4.25,0,0
-0.004996822000000001,-0.0075778320000000005,-0.0006967782,-0.00301520164,-0.001602432,4.251,0,0
-0.0024750320000000003,-0.004889096,-0.0009386248,0.00021842635999999994,0.003023628,4.252,0,0
-0.0013664319999999999,-0.0056577039999999995,0.00028213520000000005,0.00137385316,0.002827234,4.253,0,0
-0.002230404,-0.008054304,-0.0008858186,-0.00040674744000000025,0.00019738799999999973,4.254,0,0
-0.0018568119999999998,-0.0058792079999999995,-0.0017259206000000001,1.0334399999999892e-05,0.0009585399999999997,4.255,0,0
-0.0012704039999999997,-0.0034939479999999993,-0.0005363846,0.0011090507999999997,0.0008434459999999998,4.256,0,0
-0.0021727491999999995,-0.004229707,-0.0010425340000000001,-0.00019530320000000025,-0.0016198276600000005,4.257,0,0
-0.0021255491999999996,-0.0005101889999999999,-0.003032142,0.00010962739999999973,-0.00034186750000000016,4.258,0,0
-0.0003136067999999999,0.006100651,-0.002210394,0.0030388594,0.0028927005000000004,4.259,0,0
0.00029460720000000013,0.007186385,-0.0010854979999999998,0.0034289854,0.0022550645,4.26,0,0
0.0007586872000000001,0.008002547,-0.0014491044,0.002223137,0.0009394105000000002,4.261,0,0
0.0019746764000000004,0.011399430000000002,-0.0002315863999999999,0.0020762168,0.00126476416,4.262,0,0
0.0017791764,0.010080809999999999,0.0016946216,0.0009552833999999998,-3.205600000000014e-05,4.263,0,0
0.00019934200000000036,0.0047038900000000005,0.0021487736,-0.0017332165999999999,-0.0028322320000000005,4.264,0,0
-0.001194386,0.0020069660000000007,0.001891819,-0.0036580826,-0.0034788880000000003,4.265,0,0
-0.001620164,0.00024351320000000077,0.0024649094,-0.0037835042,-0.0023916580000000005,4.266,0,0
-0.0025822441999999997,-0.0043404908,0.0017430909999999998,-0.004411306,-0.0029137098000000003,4.267,0,0
-0.0018538467999999998,-0.0046763868000000005,0.0005276690000000001,-0.00341217768,-0.0006037338,4.268,0,0
0.0014673512,-0.0016962648000000001,0.001299543,-9.506968000000003e-05,0.0029014442000000005,4.269,0,0
0.0039578872,-0.0031536008,0.0011677054619999999,0.0005682063200000002,0.0009381602000000005,4.27,0,0
0.0051399932,-0.004906686,-0.0004768965380000001,-2.743968000000008e-05,-0.0006213977999999993,4.271,0,0
0.006265183400000001,-0.003396442,-0.0005367801380000001,0.00141552832,0.0009813780000000004,4.272,0,0
0.006441532,-0.0031420399999999996,0.00025849186199999993,0.002140408,0.0004208480000000006,4.273,0,0
0.004683918400000001,-0.004559848,-0.0005095361379999999,0.0008974039999999999,-0.0011506539999999999,4.274,0,0
0.0034805084000000003,-0.0012979740000000001,-0.0007079893999999999,0.001921538,0.0018409580000000004,4.275,0,0
0.0017747146000000001,0.002633372,0.0008769386,0.0038920740000000006,0.004362974,4.276,0,0
-0.0015355694,0.0027509320000000006,0.0008614785999999999,0.0029182646000000005,0.0024655140000000002,4.277,0,0
-0.0034764734,0.004242978,-0.00037526139999999997,0.0016226266,0.0013831380000000003,4.278,0,0
-0.0046251478,0.005972862,-0.0002787334,0.0013038536,0.0009948214000000005,4.279,0,0
-0.0071321718,0.003037184,-0.00023145499999999993,-0.00039282239999999984,-0.0015054425999999998,4.28,0,0
-0.008758714,-0.0006513760000000004,-0.001266251,-0.0028700784,-0.0040372226,4.281,0,0
-0.006983136,3.0979999999999897e-05,-0.001597233,-0.003201247,-0.0031441886,4.282,0,0
-0.004526644,0.0002344859999999999,-0.000445915,-0.0025466069999999998,-0.0022521826,4.283,0,0
-0.003067788,-0.0008706558000000002,-0.0008961324000000002,-0.0029930979999999996,-0.002612822,4.284,0,0
0.0001784699999999998,0.0020729842,-0.0012224014,-0.0009372380000000003,0.00040964600000000006,4.285,0,0
0.0027549980000000003,0.0028691942000000008,0.0006010926000000001,0.0016393080000000001,0.0018454880000000002,4.286,0,0
0.0009149800000000001,-0.0023455418,0.0006349206000000001,0.000534994,-0.00107237,4.287,0,0
-0.0010386599999999996,-0.0051884958,-0.0007728414,0.0002700751999999998,-0.00133109412,4.288,0,0
-0.0008836239999999998,-0.005441574,-0.00030183,0.0017754011999999999,0.0003476298800000002,4.289,0,0
-0.001391312,-0.007502132000000001,0.0003260149999999999,0.0009475039999999998,-0.0007649287200000003,4.29,0,0
-0.0005092519999999995,-0.006655156000000001,-0.001352567,-0.0007355420000000003,-0.00125879912,4.291,0,0
0.004054108000000001,-0.0008002080000000002,-0.0013653110000000001,0.0010320099999999999,0.0020058188800000003,4.292,0,0
0.007007596000000001,0.0022584300000000005,0.000453873,0.0023440108,0.003236965,4.293,0,0
0.0065344062000000005,0.0027783320000000005,0.000709005,0.0009986076000000003,0.0018435150000000002,4.294,0,0
0.0055644762000000006,0.005187716000000001,0.0008788719999999999,0.0005760948000000001,0.0016760747400000001,4.295,0,0
0.0032341942,0.005183060000000001,0.001565654,0.0005979408000000002,0.00084537314,4.296,0,0
-0.0010577637999999998,0.0018055239999999998,0.001196228,-0.0008583292,-0.0018864148599999997,4.297,0,0
-0.0043506837999999996,1.780999999999983e-05,-0.0004660660000000002,-0.0028523352,-0.00384578886,4.298,0,0
-0.003929238,0.001435924,-0.00143086,-0.00264451632,-0.0029095428600000002,4.299,0,0
-0.0023189939999999996,0.0009664819999999998,-0.0015764262000000002,-0.00244390612,-0.0030540580000000006,4.3,0,0
-0.0007390659999999993,0.0005737455999999996,-0.0025713142000000004,-0.00232900612,-0.0021604073999999997,4.301,0,0
0.0025317740000000005,0.0038235696,-0.0016868198000000003,0.0001976978800000001,0.0019946625999999997,4.302,0,0
0.0040833658000000005,0.003084787599999999,0.0006929702000000001,0.00108259988,0.0019166086,4.303,0,0
0.0027961418,-0.0010244264000000007,0.0006645662000000002,-0.0005592158000000001,-0.0011207834,4.304,0,0
0.0021092517999999998,-0.0019824162000000004,0.0003574154,-0.000597221,-0.00044813139999999986,4.305,0,0
0.0011266154,-0.0032919838000000003,0.0019921994,-0.00011780740000000002,0.00030223800000000003,4.306,0,0
-0.0011821426000000002,-0.0069812198000000015,0.0023034910000000004,-0.0016318982,-0.0018283953999999997,4.307,0,0
-0.0019245384000000003,-0.006740261800000001,0.0005572510000000001,-0.001814363,-0.00039777339999999984,4.308,0,0
-0.0007611583999999999,-0.003378021800000001,0.0010723832000000002,0.0005757330000000001,0.0038138186000000003,4.309,0,0
-0.0007648564000000001,-0.002604676,0.0015923622,0.0015976260000000002,0.0041424466,4.31,0,0
-0.0008027305999999998,-0.0007085080000000001,-5.89338e-05,0.0015206144000000001,0.0029956506,4.311,0,0
0.0006170654,0.0025541240000000005,-0.00020560980000000005,0.0020353092,0.003174132,4.312,0,0
0.0009364314,0.0017748039999999998,0.0006327781999999999,0.0017276480000000005,0.0015602160000000001,4.313,0,0
-0.0003609005999999999,-0.001053034,-0.0002533040000000001,-0.00021826800000000009,-0.001784402,4.314,0,0
-0.001078704,-0.0006246540000000001,-0.0012763100000000001,-0.001772906,-0.0026272476000000003,4.315,0,0
-0.0004777754,0.001650812,-0.00021670800000000008,-0.0016683540000000001,-0.0011873936000000001,4.316,0,0
-0.0015818714,0.0014284939999999998,-0.00047285120000000006,-0.002340604,-0.0017238496000000002,4.317,0,0
-0.0026320353999999997,0.004351126,-0.0020480712000000003,-0.0016522540000000001,-2.8619600000000006e-05,4.318,0,0
-0.0018243982,0.008888284000000002,-0.0010535072,0.001193562,0.0033956204000000004,4.319,0,0
-0.0032756668000000003,0.00564518,-0.0003724844,0.001147508,0.001065724,4.32,0,0
-0.0055796968,0.00014327999999999997,-0.0021402284000000002,-0.0005345,-0.00183922,4.321,0,0
-0.004782718200000001,-0.0006423166000000003,-0.0024127284,0.00014733599999999992,-0.0011318160000000001,4.322,0,0
-0.0023641862,-0.0014409026,-0.0010002484,0.00013398199999999997,-0.0018315016,4.323,0,0
-0.0011884613999999995,-0.004182170600000001,-0.0013046639999999999,-0.00195665,-0.0037045633999999994,4.324,0,0
0.0013139446000000003,-0.0012833566000000002,-0.0014019249999999998,-0.000748858,-0.0008073694,4.325,0,0
0.005043344600000001,0.0032595314000000005,0.0008718609999999999,0.002472278,0.0027763246000000004,4.326,0,0
0.0059867639999999995,0.0017828739999999998,0.0017918542,0.002900678,0.0023955481000000004,4.327,0,0
0.004682566000000001,-0.0009852140000000003,0.0013602946000000002,0.0028272096,0.0018203657,4.328,0,0
0.0031338500000000005,-0.0027153040000000004,0.0025517062,0.0037498816000000003,0.0016710807000000002,4.329,0,0
0.0013666340000000007,-0.006009490000000001,0.0036696044,0.0029292196,-0.0001266053,4.33,0,0
-0.0010332140000000002,-0.008844024,0.0030715904,0.0005356896000000002,-0.0027434333000000005,4.331,0,0
-0.00177246,-0.007082286000000001,0.0023640914,-0.0005849924,-0.0024017727999999998,4.332,0,0
-0.0010605999999999999,-0.004799700400000001,0.0028127250000000003,-0.0008698142000000001,-0.0014924788000000003,4.333,0,0
-0.0009813019999999999,-0.0035034444000000007,0.0015737968000000002,-0.0021129342,-0.0016609300000000001,4.334,0,0
0.000581096,0.0015595356000000001,3.465079999999995e-05,-0.0012327302,0.0011871020000000002,4.335,0,0
0.0025334700000000003,0.0051273416,0.0010045468,0.0006447778000000002,0.002898354,4.336,0,0
0.0020661451999999998,0.0034868316,0.0004918698000000001,-0.0005640381999999997,0.00015169399999999996,4.337,0,0
0.001726826,0.003652384,-0.0015195662,-0.0013171839999999999,-0.0008026159999999999,4.338,0,0
0.0016156359999999997,0.0044004840000000005,-0.001599516,-0.00042906499999999963,0.00016087399999999987,4.339,0,0
-0.0008548699999999999,8.025000000000046e-05,-0.00147634,-0.0014311069999999996,-0.001773978,4.34,0,0
-0.003385498,-0.003171942,-0.0031125659999999998,-0.002982525,-0.0025491626,4.341,0,0
-0.0028797232,-0.0001398879999999999,-0.0029208339999999998,-0.001001123,0.0012855014000000002,4.342,0,0
-0.0018817299999999996,0.0016009900000000005,-0.0007551880000000001,0.0012815349999999999,0.0034721974,4.343,0,0
-0.0018129719999999997,0.0003919240000000004,-0.00027134800000000003,0.0012634892,0.0025143614000000002,4.344,0,0
-0.0004968819999999999,0.0015487460000000006,0.0001464778,0.0016184626,0.0023901374,4.345,0,0
0.0013084520000000003,0.002624782000000001,0.0012864658,0.0016575345999999998,0.0016622120000000002,4.346,0,0
0.00159296,0.0008800832000000005,0.0013963526,-6.521540000000011e-05,-0.0012957540000000005,4.347,0,0
0.001021418,-0.0003890508,0.000686638,-0.0022148594,-0.003270746,4.348,0,0
0.001881676,0.0015753112,0.0007680319999999999,-0.002222777,-0.0022198739999999997,4.349,0,0
0.0020058880000000004,0.0013311392,0.0009942362,-0.0022017734,-0.0018786604,4.35,0,0
0.0006669639999999999,0.00041614720000000013,-0.0002181538,-0.0022778914,-0.0011109902,4.351,0,0
0.0013040419999999998,0.0035676840000000002,0.0002443934,0.0006000686000000002,0.0027392318000000002,4.352,0,0
0.001629692,0.0029701398000000004,0.0014211900000000001,0.0019502906000000003,0.0031349658200000006,4.353,0,0
0.00010104199999999997,-0.0008829541999999997,-9.92879999999999e-05,0.0003029290000000004,-0.0001186361799999998,4.354,0,0
0.00027150920000000003,-0.0003229241999999998,-0.0014564299999999999,9.843400000000033e-05,-0.00020372217999999984,4.355,0,0
0.0006430472000000002,-0.0006873741999999996,-0.0010715521999999998,0.0005328078000000003,1.8021620000000026e-05,4.356,0,0
-0.0017518308,-0.0059390942,-0.0018624102,-0.0013234336,-0.00267293638,4.357,0,0
-0.0029648788,-0.0059836180000000004,-0.0033754842,-0.002003065,-0.0023896544,4.358,0,0
-0.0011926488000000002,-0.0003796380000000003,-0.0019922641999999997,0.000830875,0.0014634256,4.359,0,0
-0.000521574,0.0012190760000000001,-0.00018245419999999993,0.002640651,0.002227236,4.36,0,0
-0.0007734820000000002,0.0014777199999999996,0.00014643420000000004,0.0023726572000000003,0.0010573500000000003,4.361,0,0
-0.0001703299999999999,0.0031198239999999998,0.0007789278000000001,0.0023437646000000006,0.0014202322200000002,4.362,0,0
-0.0005540699999999998,0.0013531879999999997,0.0012966916000000002,0.001939586,0.00023715822000000043,4.363,0,0
-0.001422862,-0.00233118,0.0007995476,-0.000366042,-0.00243440778,4.364,0,0
-0.0007947039999999998,-0.0024119499999999995,-4.89066e-05,-0.00210509,-0.0027808537800000006,4.365,0,0
0.0010025800000000003,-0.0009154259999999999,-0.0002374748,-0.0014278440000000002,-0.00120318978,4.366,0,0
0.0015972854,-0.0014458419999999997,-0.0010872543999999999,-0.0014803040000000004,-0.0015992120000000002,4.367,0,0
0.0022562792,0.0016195820000000005,-0.0020956602,-0.0010022520000000001,-0.00022534200000000012,4.368,0,0
0.0033290952,0.00587497,-0.0008424002,0.0016303560000000003,0.003482764,4.369,0,0
0.0007528491999999997,0.0026934280000000007,-4.216000000000029e-06,0.0016643234000000002,0.002118564,4.37,0,0
-0.0026507768000000004,-0.001062102,-0.0006501960000000002,-0.00033437060000000005,-0.0005928280000000005,4.371,0,0
-0.0033368982000000005,-0.00023545779999999982,0.0005029959999999998,-0.0002441959999999999,-0.00021531000000000005,4.372,0,0
-0.0037635200000000007,-0.0023004038,0.001876604,-0.000602736,-0.0011429140000000003,4.373,0,0
-0.004853334,-0.006412031800000001,0.00090946,-0.002668282,-0.0036461224000000005,4.374,0,0
-0.00386131,-0.0039433098,0.0001682759999999999,-0.0018439733999999998,-0.0018113844000000002,4.375,0,0
-0.001406554,0.0013394302,0.001600396,0.0012696506,0.0021565756,4.376,0,0
-0.0007575641999999998,0.0030867539999999997,0.002063516,0.0020274660000000003,0.0026733156000000005,4.377,0,0
-0.0002631548,0.004467218,0.0014588020000000001,0.001973244,0.002163803600000001,4.378,0,0
0.0012876512000000002,0.00644778,0.0016009574000000002,0.0025979600000000003,0.0020026540000000004,4.379,0,0
0.0011773031999999998,0.0050834,0.0012815694000000003,0.001411514,9.129000000000016e-05,4.38,0,0
-0.0006256948000000002,0.0005861599999999996,-0.00010641860000000004,-0.0009968580000000002,-0.002856462,4.381,0,0
-0.0007673070000000003,-0.002479124,-0.0012143046,-0.0016238332000000002,-0.0027383880000000005,4.382,0,0
0.00026459159999999977,-0.004412774,-0.0007957366,-0.0011020238000000002,-0.001273596,4.383,0,0
0.00040352159999999977,-0.006090158,-0.0016358179999999998,-0.0016612418000000002,-0.00171082,4.384,0,0
0.0025054496,-0.0027881879999999996,-0.002035986,-0.00037259780000000007,0.0007904680000000001,4.385,0,0
0.0050921756,0.001284952,0.00019162600000000008,0.0018000402,0.003313084,4.386,0,0
0.0041761,0.0004318400000000002,0.0006599700000000002,0.0005291513999999998,0.0008888760000000002,4.387,0,0
0.00202891,0.0004672019999999997,-0.00025387599999999994,-0.0006854840000000003,-7.499999999999993e-05,4.388,0,0
0.00033364,0.0007876524000000003,0.0005513864000000001,-2.9738000000000128e-05,0.0012527600000000003,4.389,0,0
-0.00168046,-0.0027266156,0.0007019624000000001,-0.0009675820000000003,-0.0002712919999999998,4.39,0,0
-0.003162898,-0.005051655600000001,-0.0017033376,-0.002499184400000001,-0.0016869329999999998,4.391,0,0
-0.00154246,-0.0021383015999999998,-0.0025463156,-0.0005026383999999998,0.001691639,4.392,0,0
0.0017195560000000001,0.0010679204000000001,-0.0011933476000000002,0.0020382496,0.0041241590000000005,4.393,0,0
0.00351868,0.0021906020000000003,-0.0007051140000000001,0.0019246106000000002,0.0027296029999999997,4.394,0,0
0.004456362000000001,0.0032890816,0.0002145199999999999,0.0017741766,0.0020281170000000003,4.395,0,0
0.004567632000000001,0.0027854795999999998,0.0019661360000000003,0.001695781,0.0013052059999999995,4.396,0,0
0.0025056139999999998,0.0004248855999999994,0.0025017484,0.0001966610000000001,-0.0016289320000000005,4.397,0,0
-0.001464734,-0.0021271824000000006,0.0011023724,-0.001631697,-0.0043814480000000005,4.398,0,0
-0.004060728,-0.0027800804000000004,-0.00021472760000000005,-0.001770929,-0.0035349638,4.399,0,0
-0.004228918000000001,-0.002407188,-0.0006103266,-0.001802857,-0.0027585002,4.4,0,0
-0.0029647700000000007,-0.0005819519999999998,-0.0020938406000000002,-0.0023433750000000004,-0.0028430522,4.401,0,0
0.0007452779999999998,0.004862868,-0.0018841792000000002,-0.00048595500000000015,0.00031098180000000016,4.402,0,0
0.0037632260000000006,0.006912524,0.0005953988000000001,0.001080325,0.0017630338,4.403,0,0
0.0033808280000000007,0.0034426599999999997,0.0011629910000000002,-0.00010896400000000024,-0.00025238439999999995,4.404,0,0
0.002112964,0.0018053099999999999,0.0009098820000000002,-0.00012715600000000034,-0.00014491040000000008,4.405,0,0
0.0001620300000000003,0.0008906359999999997,0.0019519299999999997,0.0007710238000000001,0.0006451839999999999,4.406,0,0
-0.003262514,-0.003247198,0.0015476781999999999,-0.0007900182000000003,-0.0014557740000000002,4.407,0,0
-0.004976046,-0.0045207276,-0.0009595278000000002,-0.0021022208000000004,-0.0016594580000000002,4.408,0,0
-0.0027041920000000002,0.0001265623999999999,-0.0010415420000000001,0.00015822919999999992,0.00213409,4.409,0,0
-0.00022632199999999994,0.0016685524,-4.84420000000001e-05,0.0017300152,0.0033763444,4.41,0,0
0.000899404,-0.00046078760000000003,-0.0006771216,0.0011562074,0.002565898,4.411,0,0
0.002281008,-0.0007861336,-0.0004252920400000001,0.0016020911999999998,0.0027905114000000004,4.412,0,0
0.0030018852,-0.002112094,0.00065975796,0.0016280764,0.0015377554000000002,4.413,0,0
0.0022892306,-0.005342134,0.0006152539599999999,1.6122399999999844e-05,-0.0013129326000000001,4.414,0,0
0.0008781234,-0.0058670648,-0.00024645504000000003,-0.0012052751999999999,-0.0023768746,4.415,0,0
-2.652660000000001e-05,-0.0026766708000000006,-2.988244000000004e-05,-0.0004018912,-0.0010816126000000002,4.416,0,0
-0.0017342606,-0.0015360228000000004,-0.000266396,-0.0002697159999999999,-0.001706342,4.417,0,0
-0.0032700598,0.00021962119999999983,-0.0017142420000000002,-3.801899999999996e-05,-0.0009661184,4.418,0,0
-0.0028670092000000003,0.0049293912,-0.0010268780000000002,0.002281399,0.0021061336000000003,4.419,0,0
-0.0027049119999999994,0.005292814,0.00018533699999999994,0.0024655948,0.0006302216,4.42,0,0
-0.00270211,0.0033917979999999997,-0.0004307480000000001,0.0007064848000000001,-0.0016980404,4.421,0,0
-0.0012916654000000001,0.0040130800000000005,-9.643520000000001e-05,0.0004231797999999999,-0.00038743039999999983,4.422,0,0
-0.0001860434000000001,0.0026228360000000004,0.0012976428000000002,8.266419999999997e-05,-0.0007761499999999999,4.423,0,0
-0.0012632854,-0.001866842,0.0006505568000000001,-0.0021212298000000004,-0.0035765319999999995,4.424,0,0
-0.0014214208000000001,-0.0022331524,-0.0006704772000000001,-0.0020329840000000003,-0.001797346,4.425,0,0
0.0004658331999999999,-8.894239999999998e-05,0.00019662880000000002,0.0009834420000000002,0.0018946020000000002,4.426,0,0
0.0012151706,-0.0015504563999999997,0.0006934200000000001,0.0017231760000000003,0.00143478,4.427,0,0
0.0012393366,-0.0026069704000000003,-0.00026451199999999995,0.00100707,0.0008066400000000002,4.428,0,0
0.0019883244000000002,-0.0018206624000000002,-0.0006240439999999999,0.0012489806,0.0017457739999999999,4.429,0,0
0.0015834698,-0.0026947100000000003,-0.0006515499999999999,0.0003948325999999999,0.0008826480000000002,4.43,0,0
-0.00041275019999999983,-0.003567982000000001,-0.0017374460000000001,-0.0019602594000000004,-0.0011416334,4.431,0,0
-0.0011285145399999997,-0.0014220840000000005,-0.0024250136,-0.0026586268,-0.0005451813999999999,4.432,0,0
-0.00040301854,0.0018497439999999997,-0.0007069115999999999,-0.001574345,0.0008975126,4.433,0,0
-0.0009489323399999998,0.00379874,4.448799999999862e-06,-0.0016016898,-0.00016639140000000003,4.434,0,0
-0.0004899911399999999,0.008138942,0.00033025426000000003,-0.0005551758,0.0014114246,4.435,0,0
0.0016145888600000002,0.011653425999999998,0.00302956826,0.0015843382000000003,0.0036083699999999996,4.436,0,0
0.0007449052000000001,0.008332548000000002,0.0038135958600000004,0.0009473616000000002,0.00093428,4.437,0,0
-0.0009637927999999999,0.003524321999999999,0.00226952186,-0.00041893219999999986,-0.0007715840000000001,4.438,0,0
-0.00036809679999999994,0.0003466739999999995,0.0023716394600000004,-0.00017606359999999978,7.393020000000003e-05,4.439,0,0
5.5294e-05,-0.003556404000000001,0.0022976994000000004,-0.0009389295999999999,-0.0016323298,4.44,0,0
0.00013082799999999993,-0.005667434,-0.00043507259999999993,-0.0027990956000000003,-0.0038115080000000003,4.441,0,0
0.0024090459999999998,-0.0023800080000000003,-0.0020396786000000003,-0.0012735336,-0.0009588259999999999,4.442,0,0
0.0049121,0.0009502876000000001,-0.0011147566,0.0015521604,0.0018673420000000001,4.443,0,0
0.0045588814,0.0009659495999999998,-0.0009171906000000002,0.0015980744000000002,0.0010834378,4.444,0,0
0.0032972414000000004,-0.0002224423999999997,-0.001041411,0.0014145204000000004,0.0005553558,4.445,0,0
0.00194374772,-0.0040560323999999995,0.0002634449999999998,0.0018172696,0.00031191000000000015,4.446,0,0
5.601972000000003e-05,-0.008730134399999999,0.0011360388,0.0003853156,-0.0012324360000000002,4.447,0,0
-0.0007510642800000001,-0.009527668000000001,0.0003855287999999999,-0.0018440084,-0.00273145226,4.448,0,0
0.0006944803200000001,-0.006320076000000001,0.0003716327999999999,-0.0019575668,-0.0016169202599999998,4.449,0,0
0.0014797985200000001,-0.004326188,0.0009084018,-0.0015579308,-0.0007154292600000001,4.45,0,0
-0.0008870237999999999,-0.0035971600000000003,-0.0007010802000000002,-0.0017828800000000001,-0.00049836746,4.451,0,0
-0.0020492118,0.0011116359999999998,-0.0018211980000000002,0.00016670599999999997,0.00229754654,4.452,0,0
-0.0029382718000000004,0.0033246639999999997,-0.0015627808000000002,0.00186172,0.0028259548,4.453,0,0
-0.0061663978,0.00011817999999999985,-0.0031152567999999997,0.0007200420000000002,0.00031294479999999973,4.454,0,0
-0.006773088000000001,0.0006241239999999999,-0.0042603348000000004,0.0002524440000000001,0.0004844591799999996,4.455,0,0
-0.003376994,0.0032419960000000005,-0.0026540687999999997,0.0003304620000000002,0.0006627971799999997,4.456,0,0
-0.0007063520000000002,0.0014222086,-0.0012946607999999998,-0.001524634,-0.0020364308200000003,4.457,0,0
0.0004549840000000001,0.0008130166,-0.0010993447999999996,-0.0027388494,-0.0022506808200000003,4.458,0,0
0.003532956,0.0051349886,0.0008216812,-0.0004049933999999999,0.00129379918,4.459,0,0
0.004661853999999999,0.005071754600000001,0.0030093072,0.0017492386000000002,0.0021590778,4.46,0,0
0.002396286,0.0014242946000000002,0.0031816672,0.0017973238,0.0008619419999999999,4.461,0,0
0.000579078,0.00020284000000000057,0.0035112572,0.0023656324000000005,0.0009140120000000001,4.462,0,0
-0.001126856,-0.0022413199999999998,0.00426241,0.0025983108,-2.094799999999991e-05,4.463,0,0
-0.0033006280000000003,-0.006356392000000001,0.003360573,0.0008513108,-0.00244393,4.464,0,0
-0.004272442,-0.006306770000000001,0.0017888587999999998,-0.0009994412,-0.0030050899999999998,4.465,0,0
-0.0024807500000000003,-0.0014165899999999997,0.0014553308000000002,-0.0007132344,-0.0008798300000000001,4.466,0,0
-0.0009111319999999999,0.0011848240000000006,0.0006721228000000001,-0.001064029,-0.0007418539999999999,4.467,0,0
0.000575198,0.0037999760000000005,-0.0012788652,-0.0015204040000000002,6.564800000000002e-06,4.468,0,0
0.0038200740000000006,0.008737268000000001,-0.0011362042,0.000536358,0.0035994468,4.469,0,0
0.0051925520000000005,0.009363380000000001,-0.00021834199999999984,0.0013168180000000002,0.0029807467999999997,4.47,0,0
0.0034905319999999993,0.007164352000000001,-0.001430246,0.0005200440000000001,0.00039881880000000006,4.471,0,0
0.0013751639999999997,0.006676078000000001,-0.0019414279999999998,0.0011144368000000002,0.0009486807999999997,4.472,0,0
-0.00059801,0.004836504000000001,-0.0008289923799999999,0.0012679948000000002,0.0002847139999999998,4.473,0,0
-0.0033498140000000004,0.0011177920000000003,-0.00098366478,-0.0007611272,-0.0030297600000000003,4.474,0,0
-0.0043258202,-0.00017873719999999987,-0.0021509527799999997,-0.0012128086,-0.0025068420000000004,4.475,0,0
-0.0026828902,-0.000697564,-0.00115491938,0.0010271114,0.0010403080000000002,4.476,0,0
-0.0011803002,-0.0029008980000000003,0.00011509462000000001,0.0017790466,0.0012076240000000002,4.477,0,0
0.0005202518,-0.0037710720000000003,-0.000605773,0.0013948046000000001,0.00034547400000000013,4.478,0,0
0.0027404278000000004,-0.003961664,-0.0009050086000000001,0.0016665706,0.0008676380000000002,4.479,0,0
0.003715986,-0.0066845568000000015,-0.0003114548000000001,0.0007050600000000001,-0.00012819000000000003,4.48,0,0
0.0032175189,-0.009161762,-0.0007471342000000001,-0.0017761080000000002,-0.0026014899999999997,4.481,0,0
0.0030282229,-0.008226482,-0.0012039080000000003,-0.0027876956000000004,-0.0025534520000000003,4.482,0,0
0.0025514749000000005,-0.006701820000000001,0.00063303,-0.0019699616000000003,-0.0007265020000000002,4.483,0,0
-0.0005496550999999998,-0.006918924,0.0017241140000000001,-0.0021079796,-0.001105526,4.484,0,0
-0.0023751511,-0.002346168,0.0013189442000000003,-0.0008752536000000001,0.0005263959999999999,4.485,0,0
-0.0013571279999999998,0.004284072,0.0025620402000000003,0.0019820944000000004,0.003418474,4.486,0,0
-0.0019201819999999999,0.004348386,0.0028710540000000005,0.0016133319999999999,0.0016148919999999995,4.487,0,0
-0.0030657439999999996,0.003708006,0.0008056780000000002,4.941999999999989e-05,-0.0002804480000000004,4.488,0,0
-0.002281248,0.005218904,0.00046906600000000013,0.0005169033999999997,0.0006181779999999997,4.489,0,0
-0.0021203619999999998,0.0026279899999999998,0.0009374340000000001,-0.00022292260000000011,-0.0005434140000000003,4.49,0,0
-0.0033832800000000002,-0.0014653478000000001,-0.0008332299999999999,-0.0026808426000000003,-0.00281375274,4.491,0,0
-0.002427666,0.0009509622000000001,-0.001616656,-0.0019389626000000002,-0.0001627447399999999,4.492,0,0
0.0007512619999999999,0.004183918200000001,-0.00025736399999999994,0.0007279293999999999,0.0030250932600000002,4.493,0,0
0.0031155080000000003,0.0030341782000000003,-0.00031297400000000004,0.0009865,0.0021522192599999997,4.494,0,0
0.004196368,0.0022709662000000006,-0.0012652800000000001,0.000805742,0.00153106326,4.495,0,0
0.004913028000000001,0.001796144,-0.000875516,0.0011892786000000002,0.0013503693999999996,4.496,0,0
0.004531968000000001,-0.0007940639999999998,-0.0009986780000000002,4.908460000000001e-05,-0.0009597326,4.497,0,0
0.002031786,-0.00370108,-0.0024882180000000004,-0.0018644433999999998,-0.0031274506,4.498,0,0
-0.00043175799999999997,-0.004058672,-0.0028058418000000006,-0.0019126614000000003,-0.0020453106,4.499,0,0
-0.001563904,-0.004099556,-0.0012919178000000003,-0.0011330672,-0.0012776020000000003,4.5,0,0
-0.002504862,-0.0044179480000000005,-0.0010505113999999998,-0.0015688818,-0.0019127294000000003,4.501,0,0
-0.0013834319999999998,-0.0007175440000000001,-0.0004977407199999999,0.00012075420000000011,0.0008480346,4.502,0,0
0.0007335,0.003100352,0.00215754128,0.0022966802000000002,0.0026847886000000002,4.503,0,0
0.000986424,0.003255848,0.00232826188,0.0009483461999999999,0.00028151260000000024,4.504,0,0
0.00124636,0.004649407999999999,0.00078428988,-0.0001069100000000001,-2.900199999999949e-05,4.505,0,0
0.0015450508,0.00610327,0.00115704748,0.00038358459999999995,0.0009940000000000003,4.506,0,0
0.00013768080000000005,0.002649664,0.0008166987999999999,-0.0008996014000000001,-0.0011247339999999998,4.507,0,0
-0.0016775212000000002,-0.0007079568,-0.0017187532,-0.0026341662000000004,-0.001985622,4.508,0,0
-0.0009775652000000002,0.0012849352000000001,-0.002263704,-0.0006274582000000002,0.0017562440000000001,4.509,0,0
0.0003480948,0.0019159812000000003,-0.000897298,0.0020550518000000003,0.0035088460000000004,4.51,0,0
-0.00016167600000000003,-0.0005050988000000001,-0.0011314476,0.0023390232,0.0020603740000000002,4.511,0,0
-0.0006256460000000001,-0.0012821368000000002,-0.0011556956,0.0024553352000000004,0.0016733280000000004,4.512,0,0
-0.0003919812,-0.0026444,0.0004071944000000001,0.002338422,0.0003902280000000003,4.513,0,0
-0.0014560552,-0.006258766,0.0012544424,0.0005834740000000001,-0.002525096,4.514,0,0
-0.0024614572000000003,-0.0072296520000000005,0.0012213884,-0.0015132420000000001,-0.0037313090000000004,4.515,0,0
-9.769920000000042e-05,-0.003814948,0.00202206,-0.0016620632000000002,-0.002092373,4.516,0,0
0.0017648087999999997,-0.0025879456,0.00276837,-0.0018453712000000002,-0.0020310370000000003,4.517,0,0
0.0016651979999999997,-0.0008471716,0.001670106,-0.0017716500000000003,-0.0016882670000000002,4.518,0,0
0.002979634,0.0047418884,0.00161261,0.000665064,0.0017492690000000003,4.519,0,0
0.00225174,0.0056430484000000005,0.002186664,0.00123949,0.0015568352000000004,4.52,0,0
-0.0015826260000000002,0.0027881964,0.00047120400000000024,-0.00042828880000000003,-0.0007253787999999997,4.521,0,0
-0.0031455680000000005,0.003474306,-0.0003673359999999998,-0.0002945888000000002,0.0004430152000000003,4.522,0,0
-0.0030926600000000005,0.0034426060000000004,0.00044338400000000017,-0.00036952400000000014,0.0010552972000000002,4.523,0,0
-0.004385372,-0.00037961399999999985,-0.0005132419999999999,-0.0023663140000000004,-0.0014396564000000002,4.524,0,0
-0.003911340000000001,9.53200000000003e-05,-0.002700526,-0.002282142,-0.0005543576,4.525,0,0
-0.0008328299999999999,0.0048534780000000005,-0.0017616440000000004,0.0009975700000000001,0.0036311904,4.526,0,0
2.4521999999999912e-05,0.004711142000000001,-0.0004952700000000002,0.002517014,0.0035162484,4.527,0,0
-0.0007815200000000002,0.001364592,-0.0012735340000000002,0.002082292,0.0016067563999999997,4.528,0,0
-0.00023412999999999993,-0.00036530799999999995,-0.0005475344000000002,0.0024276902,0.001199038,4.529,0,0
2.183199999999999e-05,-0.004324648,0.0006408378000000001,0.0016463042,-0.0005419380000000002,4.53,0,0
-0.000618616,-0.009742962,9.538000000000992e-07,-0.0007219798000000001,-0.0035928780000000003,4.531,0,0
0.00012201599999999996,-0.009337026000000002,-0.0010710402,-0.001754661,-0.0037232080000000004,4.532,0,0
0.002304278,-0.005224366000000001,-0.0002063002,-0.0009022796,-0.0015718700000000004,4.533,0,0
0.0027473539999999996,-0.0037235140000000003,-0.0001223234,-0.0013334758,-0.00200787,4.534,0,0
0.0028486035999999997,0.000872328,-0.0006845136000000001,-0.0008099378,-0.00045635800000000013,4.535,0,0
0.0033491796,0.006633642,0.0013588044,0.0015293202000000003,0.0029209020000000004,4.536,0,0
0.0015510016,0.004895559999999999,0.0025862964000000002,0.0011600294000000003,0.001577686,4.537,0,0
-0.0010133084,0.002738625999999999,0.0016264203999999997,-0.00023236199999999985,-0.000112116,4.538,0,0
-0.0020472524000000004,0.0036755381999999995,0.0017045380000000002,1.0328000000000095e-05,0.0012248900000000002,4.539,0,0
-0.0032406820000000004,-4.243800000000401e-06,0.002309268,-0.00034076999999999995,-6.3679999999998686e-06,4.54,0,0
-0.005104058000000001,-0.0057484198000000005,0.0002563359999999999,-0.0022851600000000005,-0.0031490900000000007,4.541,0,0
-0.0028602940000000006,-0.0036568778000000005,-0.002013474,-0.00169076,-0.000926212,4.542,0,0
0.0020587559999999997,0.0006943161999999996,-0.0013910341999999998,0.00140529,0.00247318,4.543,0,0
0.004147514,0.000960788,-0.0008472601999999999,0.0022763360000000003,0.0017204359999999999,4.544,0,0
0.0053855890000000005,0.0026637079999999994,-0.0010992316,0.001899362,0.0012073919999999998,4.545,0,0
0.007021607000000001,0.0049924539999999995,-0.0002941983999999998,0.0020593359999999997,0.0013624839999999997,4.546,0,0
0.004452163,0.0022414839999999998,0.0007835796000000002,0.0010215439999999997,-0.0010063040000000002,4.547,0,0
-0.0013907569999999996,-0.002396912,0.00031328580000000006,-0.0010109304,-0.0035539639999999997,4.548,0,0
-0.0035699329999999995,-0.0016643780000000002,-0.0010438542,-0.0013687444,-0.002492924,4.549,0,0
-0.0032085499999999997,0.00035922799999999985,-0.0015575528,-0.0005955614,-0.001207171,4.55,0,0
-0.004073324,0.0011977559999999997,-0.002743136,-0.0011542654,-0.001573289,4.551,0,0
-0.0025095999999999994,0.0057914179999999996,-0.003340626,8.462660000000007e-05,0.0013551549999999998,4.552,0,0
0.0007153999999999999,0.007458496,-0.0016833040000000003,0.002255957,0.003794475,4.553,0,0
0.00127524,0.0031951460000000003,-0.0008853640000000001,0.0012650189999999996,0.001768179,4.554,0,0
0.0017922059999999997,0.002204832,-0.0007836619999999999,0.00021670200000000004,0.0010870779999999998,4.555,0,0
0.002886098,0.0018085040000000003,0.0011090779999999999,0.0005581619999999999,0.0018199029399999997,4.556,0,0
0.000996536,-0.004098636,0.002461022,-0.0007377820000000004,-0.0005438850600000003,4.557,0,0
-0.001281218,-0.006882958000000001,0.0010205254,-0.003177814,-0.00258265618,4.558,0,0
-0.00031739400000000003,-0.0036072078000000006,0.0007033381999999999,-0.0017980679999999999,0.0003676718200000004,4.559,0,0
0.00015266200000000024,-0.0042306618,0.0019919582,0.0009139259999999998,0.0024700978200000003,4.56,0,0
-0.0007304585999999998,-0.007015021800000001,0.0013401401999999997,0.0012424818,0.0016490368800000004,4.561,0,0
0.0005345746000000001,-0.005359927800000001,5.7130199999999814e-05,0.0015970918,0.0018465208800000003,4.562,0,0
0.0021410706000000003,-0.0040334378,-0.00046444520000000025,0.0017472037999999995,0.001516002,4.563,0,0
0.0009196666000000002,-0.006170488,-0.001040122,9.885579999999996e-05,-0.000974982,4.564,0,0
-0.0008526674,-0.006607494,-0.0018390242000000002,-0.0021752482,-0.00272692,4.565,0,0
1.787920000000001e-05,-0.0034295900000000006,-0.0013427162,-0.0018657180000000002,-0.001379248,4.566,0,0
0.000447344,-0.0022388824,0.0004266678000000002,-0.0012131859999999998,-0.0011614800000000003,4.567,0,0
-0.000541578,-0.0006523083999999998,0.0008287157999999999,-0.0011257159999999997,-0.0012843800000000003,4.568,0,0
0.0005973760000000002,0.0055451716,0.0016249802000000001,0.001549198,0.0015014219999999999,4.569,0,0
0.0012238560000000002,0.008076659600000001,0.0031298024000000002,0.002839922,0.0014708479999999999,4.57,0,0
-0.00077512,0.006044897600000001,0.0023668592000000003,0.0009798419999999999,-0.0014406600000000003,4.571,0,0
-0.001652662,0.006876036,0.0012074354,0.00015974200000000004,-0.0012510146,4.572,0,0
-0.001513926,0.006420797400000001,0.0017373194,1.4020000000000113e-06,-0.0009220712000000002,4.573,0,0
-0.0030039700000000003,0.0012585434000000003,0.001248103,-0.002071922,-0.0034397932000000005,4.574,0,0
-0.0029789440000000003,0.00015410340000000008,-0.001076329,-0.002754749,-0.0025573972000000004,4.575,0,0
0.00011733200000000016,0.0033452314000000003,-0.0010723409999999999,0.00031542500000000004,0.0020963028000000002,4.576,0,0
0.001536314,0.0016297154000000002,-3.179319999999997e-05,0.001959489,0.0030007994,4.577,0,0
0.001334034,-0.0015652900000000002,-0.0004757871999999998,0.001548383,0.001662834,4.578,0,0
0.0014861700000000002,-0.0022907460000000006,-0.00014195121999999993,0.0018026726,0.0019529020000000003,4.579,0,0
0.00022994800000000022,-0.0052279200000000005,0.00058880478,0.0014296656000000005,0.0007476560000000001,4.58,0,0
-0.002458508,-0.00859855,-0.00027127401999999987,-0.0005002944,-0.002350886,4.581,0,0
-0.00380201,-0.006767564,-0.00149919202,-0.0015131816,-0.0030624375999999997,4.582,0,0
-0.002785873,-0.0020614299999999995,-0.00087754802,-0.00019960760000000007,-0.0014004555999999999,4.583,0,0
-0.002254857,-7.004599999999955e-05,-0.0009118986000000001,-0.0006863912000000001,-0.0018923436,4.584,0,0
-0.000610259,0.004593308000000001,-0.0018641845999999998,-0.0008411432,-0.0005752616,4.585,0,0
0.002709053,0.010728718000000002,-0.00021114059999999995,0.0014932268000000001,0.0031386404,4.586,0,0
0.0027736569999999997,0.009402678,0.0013376674000000004,0.0012657968000000003,0.0022855379999999997,4.587,0,0
0.0009623539999999995,0.006701792,0.0005108054000000002,-0.0007706172,0.0005522599999999997,4.588,0,0
0.0009355379999999996,0.007465122,0.0004846378000000003,-0.0005876071999999998,0.00163858,4.589,0,0
6.336459999999955e-05,0.004224752,0.0015809462000000002,-0.0007108332,0.0003773279999999998,4.59,0,0
-0.0029075534000000004,-0.002847374,0.0009934000000000002,-0.0033074392000000006,-0.0029459440000000003,4.591,0,0
-0.0032763854000000003,-0.004014356,-0.0003440416,-0.0028676140000000005,-0.0014725340000000002,4.592,0,0
-0.0008994534000000002,-0.001962824,0.0003247804,0.00023577600000000004,0.0017379800000000003,4.593,0,0
0.0014452265999999997,-0.002482184,0.0007854666,0.0011759280000000001,0.0012736402000000002,4.594,0,0
0.003389034,-0.0027295240000000005,-0.0002743038,0.0011984580000000003,0.0005002842,4.595,0,0
0.004304598,-0.002400566,-0.0006709476000000001,0.0017618506000000001,0.0005575482000000002,4.596,0,0
0.004375762,-0.0032323539999999998,-0.0005814442,0.0011295225999999998,-0.0010969378000000001,4.597,0,0
0.0032960840000000003,-0.004746116,-0.0016162242,-0.0008354214,-0.0031711898000000007,4.598,0,0
0.0011589159999999999,-0.0051550167999999995,-0.0026800782,-0.0010034694000000002,-0.002137756,4.599,0,0
-0.0010850880000000001,-0.005478754800000001,-0.0018784882,-5.899939999999998e-05,-0.00031707000000000013,4.6,0,0
-0.0026859660000000006,-0.004796388800000001,-0.0021735422,-0.0007123799999999999,-0.0006569880000000001,4.601,0,0
-0.0019021302000000002,0.0010314712,-0.0028271579999999998,-9.208199999999995e-05,0.0015162820000000003,4.602,0,0
-0.0004793362,0.0057814532,-0.0007229340000000002,0.0015752340000000002,0.003495652,4.603,0,0
-0.0013438602000000004,0.004399734,0.0007259940000000001,0.00027777400000000016,0.0007355780000000004,4.604,0,0
-0.0021634282000000003,0.004406357999999999,0.00047663999999999996,-0.001007338,-0.0005103059999999997,4.605,0,0
-0.0013988202,0.005507969999999999,0.0012235780000000003,-0.00011221399999999988,0.00039059420000000025,4.606,0,0
-0.0017902360000000002,0.0010074899999999993,0.0017477802,-0.0010761759999999999,-0.0013314277999999999,4.607,0,0
-0.0027557674000000002,-0.0028325112000000003,3.151820000000003e-05,-0.002960664,-0.0028157938,4.608,0,0
-0.0002812314000000002,0.0011863047999999998,-0.0008991468000000001,-0.001348278,0.0004971222000000005,4.609,0,0
0.0032826026,0.0037733508000000002,0.0004900451999999999,0.0010212940000000003,0.0028174862,4.61,0,0
0.0044092946000000004,0.0010784008,0.0010756971999999999,0.001359298,0.0018972520000000003,4.611,0,0
0.004590136000000001,0.0007752087999999997,0.0009237389999999999,0.0018353280000000002,0.0017819100000000003,4.612,0,0
0.0041635894,0.0013137239999999996,0.0015746609999999998,0.002345831,0.0013498160000000002,4.613,0,0
0.0017123353999999999,-0.0019507740000000002,0.00140961,0.000828561,-0.0008772440000000001,4.614,0,0
-0.0006597816000000002,-0.004462832,3.093999999999992e-05,-0.001049987,-0.0025458902000000004,4.615,0,0
-0.00031002960000000006,-0.002300704,-0.0004266680000000001,-0.0008077849999999999,-0.0011328242,4.616,0,0
0.00011449099999999977,-0.00223427,0.00023169199999999998,-0.0006875933999999999,-0.0010579081999999998,4.617,0,0
0.00016834899999999993,-0.003267242,-0.00037759,-0.0013712463999999997,-0.0014639262,4.618,0,0
0.001834311,0.0012885759999999996,-9.382799999999987e-06,0.00037242160000000005,0.0018325798000000003,4.619,0,0
0.0013540520000000001,0.0037079219999999993,0.0020307152,0.0016954456000000003,0.0031452400000000005,4.62,0,0
-0.002514668,0.0013743539999999995,0.0019277552000000002,-7.353639999999983e-05,0.0008834800000000005,4.621,0,0
-0.005082466,0.0019397119999999988,0.0013341732,-0.0006999779999999999,0.0011324860000000003,4.622,0,0
-0.006422593999999999,0.001324272,0.0019527492000000002,-0.00010581379999999972,0.0019529544000000006,4.623,0,0
-0.007999451999999999,-0.00444112,0.0014029420000000001,-0.0013961178,-0.0010681635999999998,4.624,0,0
-0.006569429999999999,-0.00558415,-0.000777378,-0.0024008583999999998,-0.0021477448,4.625,0,0
-0.0006912899999999994,8.814999999999995e-05,-0.0008761142,0.00023040960000000042,0.0012526732,4.626,0,0
0.00408907,0.002205214,0.0003119838000000001,0.0026121916000000005,0.0022372052,4.627,0,0
0.004741082000000001,0.0011495479999999998,-0.0003327402,0.0024273174,0.0007493267999999999,4.628,0,0
0.004773954,0.0016727379999999996,-0.0005642182000000001,0.0026058813999999997,0.0009382447999999998,4.629,0,0
0.004354596,8.677600000000043e-05,-2.0228200000000014e-05,0.002611472,0.00025502999999999973,4.63,0,0
0.0021467680000000003,-0.0038061680000000004,-0.0010088340000000001,0.0006499660000000001,-0.002242752,4.631,0,0
0.0007171759999999999,-0.004118766,-0.0024924360000000002,-0.0011909914,-0.0028960848,4.632,0,0
0.002449278,0.0005260180000000005,-0.001701022,-0.000658353,-0.0009724788000000003,4.633,0,0
0.003497846,0.0029971020000000006,-0.0009320094,-0.001050829,-0.0011824568,4.634,0,0
0.002623468,0.0053646860000000005,-0.0017527213999999998,-0.001033615,-0.0007778720000000002,4.635,0,0
0.0027088140000000004,0.01036579,-0.00042983339999999994,0.0014622589999999996,0.0025959060000000003,4.636,0,0
0.0018261800000000002,0.01039567,0.0011824946000000003,0.0014591789999999997,0.0020743428000000006,4.637,0,0
-0.00037174799999999987,0.0078093754000000005,5.3598600000000175e-05,-0.00015314140000000044,-0.00018150119999999935,4.638,0,0
-0.001439868,0.0074196734,-0.0005547459999999998,0.0003209463999999997,0.00038313680000000045,4.639,0,0
-0.0017485719999999999,0.0039425914,0.0002085212000000001,-0.00011305360000000015,-0.0005484779999999995,4.64,0,0
-0.0035802940000000004,-0.0039519486,-0.0007276348,-0.0027408436000000004,-0.004099762,4.641,0,0
-0.00497242,-0.007806374600000001,-0.0022061528,-0.0026965266000000005,-0.003300242,4.642,0,0
-0.00418779,-0.008679288,-0.0008720307999999999,-0.00029505860000000016,0.00022444,4.643,0,0
-0.004061016000000001,-0.012041928000000002,0.0006626211999999999,0.00028811759999999994,0.0004088553999999999,4.644,0,0
-0.00391993,-0.012574888000000001,0.0007865044,-2.020440000000004e-05,0.0002966514000000001,4.645,0,0
-0.002622798,-0.010374358,0.0017228044,0.00023872760000000004,0.0010848299999999997,4.646,0,0
-0.0013754008000000002,-0.010744138,0.0026377904000000002,-0.0002391659999999999,-7.925400000000006e-05,4.647,0,0
-0.0003907908000000003,-0.01064607,0.0018632566,-0.0018689540000000004,-0.002464076,4.648,0,0
0.0006779151999999999,-0.00633149,0.00029599660000000007,-0.0024360794000000004,-0.0022769834,4.649,0,0
0.0009908492,-0.0029966059999999997,3.368420000000009e-05,-0.0018659196,-0.0012591768,4.65,0,0
-0.00015662080000000006,-0.002176656,-0.0009645398,-0.0024795596000000003,-0.0025894914000000003,4.651,0,0
0.0003787999999999999,0.003795204000000001,-0.0025161298,-0.0016007896000000002,-0.0009505054,4.652,0,0
0.001741932,0.009248724,-0.0013246239999999997,0.0005284143999999999,0.0017596765999999997,4.653,0,0
0.000508988,0.0073304654,-0.0003022299999999999,-0.0002451342,4.1625999999996e-06,4.654,0,0
-0.00041888599999999993,0.0067555312000000005,-0.000752052,-0.0012636260000000003,-0.0006487920000000005,4.655,0,0
0.00014205000000000004,0.0083762792,0.00013064800000000014,-0.0008010120000000003,0.0008824587999999995,4.656,0,0
-0.001087336,0.0044054912,0.0010438742000000003,-0.0017080980000000003,-0.0010269032000000003,4.657,0,0
-0.0031065619999999998,-0.0017087947999999999,-0.0007869158000000001,-0.00345984,-0.0035612712000000005,4.658,0,0
-0.0018401259999999997,-0.0018430302,-0.0019496358000000002,-0.002115492,-0.0007314872000000001,4.659,0,0
0.000914704,-0.00140443,-0.0008491817999999999,0.0005910660000000001,0.0019719308,4.66,0,0
0.0017304820000000002,-0.004269656,-0.0010549186,0.0012684240000000002,0.0014125359999999998,4.661,0,0
0.0019890240000000003,-0.005326768000000001,-0.0014632888,0.0014531980000000002,0.002134324,4.662,0,0
0.0023863770000000003,-0.005314513999999999,-0.0005723634,0.0018556576000000001,0.0027010446000000003,4.663,0,0
0.0016252330000000002,-0.007002384,-0.00027298540000000003,0.0012610136000000003,0.0006563406000000001,4.664,0,0
-0.00017277499999999996,-0.0076038139999999995,-0.0011016054,-0.00017046859999999994,-0.0009734934000000001,4.665,0,0
-0.0009300859999999999,-0.004529016,-0.0006322766,6.466940000000003e-05,0.0005313946000000001,4.666,0,0
-0.0006780931999999999,-0.002057662,0.0011865214,0.00054943768,0.0010542058000000002,4.667,0,0
-0.0012329002,-8.209600000000014e-05,0.0011849200000000001,4.389607999999998e-05,0.0006438992000000001,4.668,0,0
-0.00022823419999999997,0.005320188,0.0017449050000000002,0.0017409220800000001,0.0034314252,4.669,0,0
0.0015067918000000002,0.008517908000000001,0.003746671,0.00286391628,0.0041256212,4.67,0,0
0.0009489028000000001,0.007399986400000001,0.0032244656,0.00104515028,0.0009292371999999999,4.671,0,0
0.00047027400000000023,0.0077644844000000005,0.0018095512000000002,0.00029887200000000027,1.9519999999999867e-05,4.672,0,0
0.0011488980000000002,0.0079976604,0.0019573672,0.00036199400000000014,-1.0610000000000144e-05,4.673,0,0
0.0004039792000000001,0.0049611184,0.0011826082000000002,-0.00185592,-0.0029450900000000005,4.674,0,0
-0.00119091,0.0026238164,-0.0012651978,-0.0031783691999999995,-0.004022466000000001,4.675,0,0
-0.00016476400000000002,0.003291716,-0.0016070544000000003,-0.0009144172000000001,-0.000671842,4.676,0,0
0.001590714,0.00270479,-0.0005938440000000002,0.0006771467999999998,0.0006122060000000002,4.677,0,0
0.002491492,0.0010717999999999997,-0.0009692024000000001,0.0009113342,-0.0002721479999999997,4.678,0,0
0.0033245728000000003,-0.00011649600000000033,-0.0011786344,0.0018338982,0.0006205222000000005,4.679,0,0
0.0032628320000000002,-0.00232816,-0.0006381483999999999,0.0023585314,0.0007193397400000006,4.68,0,0
0.002377976,-0.003480658,-0.0008828964,0.0017729133999999998,-0.0008376462599999998,4.681,0,0
0.0010336748,-0.0027385760000000004,-0.0020273764,0.0016047494,-0.0007355982599999998,4.682,0,0
6.194360000000003e-05,-0.0012489720000000005,-0.001435014,0.002829524,0.0013201517400000002,4.683,0,0
-0.0014462324,-0.0017718500000000002,-4.731000000000006e-05,0.00274798,0.00082890554,4.684,0,0
-0.0022674544,1.8065399999999863e-05,-0.00012377200000000007,0.002070174,0.001266724,4.685,0,0
-0.0007248363999999999,0.0057783654,0.000953724,0.0034269260000000003,0.004412706,4.686,0,0
-0.0009580191999999999,0.0062468534,0.00257987,0.003311922,0.003139234,4.687,0,0
-0.002354826,0.0039307814000000005,0.0017369980000000002,0.0007052740000000001,1.6401999999999563e-05,4.688,0,0
-0.00074869,0.0063280254,0.0008699580000000001,6.525999999999971e-06,-0.00017881600000000037,4.689,0,0
0.0005669240000000001,0.00544968,0.0013135152000000002,-0.0004810859999999999,-0.0016681560000000005,4.69,0,0
-0.000963022,-0.0031136999999999996,0.00020119720000000003,-0.00321802,-0.005211198,4.691,0,0
-0.00112469,-0.00643395,-0.0015814548000000002,-0.0038098380000000003,-0.004051450000000001,4.692,0,0
0.00039421800000000005,-0.0037369199999999995,-0.0007926348000000002,-0.0011964140000000002,0.00024605000000000004,4.693,0,0
-0.00029715699999999993,-0.0049158778,0.00010769319999999997,-0.00011451600000000016,0.00138872,4.694,0,0
-0.001533379,-0.005427463800000001,-0.0002840380000000001,4.226999999999985e-05,0.001666328,4.695,0,0
-0.0011354828,-0.0014368858000000004,0.0004005781999999999,0.001510554,0.002768294,4.696,0,0
-0.0010699867999999998,-0.0003007158000000002,0.0009122292000000001,0.0015884162000000001,0.001977924,4.697,0,0
-0.0020053548000000003,-0.0027173458,-0.0002049348000000001,0.00010082420000000002,-1.3652200000000093e-05,4.698,0,0
-0.0010881777999999997,-0.0015849280000000004,-0.0012298628000000002,2.0616200000000008e-05,0.0003175538000000001,4.699,0,0
0.0021097022000000007,0.0012395039999999998,-0.00037490480000000007,0.0013734062,0.0015969378,4.7,0,0
0.003461014000000001,0.00046630159999999985,-0.0006695238,0.0006172102,0.0003799598,4.701,0,0
0.0048653620000000015,0.0037475256,-0.0017562948,0.000937498,0.0015662378000000001,4.702,0,0
0.006846982000000001,0.0096336336,0.00020922720000000005,0.003331464,0.0037720740000000003,4.703,0,0
0.0045679380000000006,0.0076634316,0.0015582752000000003,0.0024454800000000003,0.0010306439999999998,4.704,0,0
0.00057011,0.004368773600000001,0.00048291920000000023,0.0003421679999999999,-0.0010758560000000003,4.705,0,0
-0.0014244560000000004,0.004037350000000002,0.0007459156000000003,5.1713999999999905e-05,-0.0007795660000000002,4.706,0,0
-0.0032359120000000005,-7.876199999999893e-05,0.0019068324000000004,-0.0013978339999999997,-0.0029992980000000005,4.707,0,0
-0.00557555,-0.005711618000000001,0.0006005126000000002,-0.00448351,-0.005628618,4.708,0,0
-0.004511335000000001,-0.003670812,-0.0005904954,-0.0039412069999999995,-0.003000884,4.709,0,0
-0.0011571110000000006,0.0007158959999999999,0.0007015886,-0.001118991,0.00016679200000000024,4.71,0,0
0.0003666129999999997,0.0013281640000000002,0.0008748010000000001,-0.00034817400000000003,-3.575799999999999e-05,4.711,0,0
0.0013687877999999998,0.0023738279999999997,0.00013870020000000013,8.591400000000009e-05,0.00022320400000000007,4.712,0,0
0.0029681858,0.002731852,0.00031650820000000014,0.0012485862,0.0007080724000000003,4.713,0,0
0.0034201167999999994,-0.0003565760000000006,-2.4649799999999908e-05,0.000975311,-0.0005790296,4.714,0,0
0.0019324188,-0.0038373660000000005,-0.0016092938000000002,-0.00011062299999999996,-0.0019133156000000003,4.715,0,0
0.0015135928,-0.002847926,-0.0020983456000000004,0.0007977880000000002,8.946040000000011e-05,4.716,0,0
0.001128378,-0.0008534459999999999,-0.0009534216,0.0020207660000000002,0.0015261504000000003,4.717,0,0
-0.0009082980000000001,0.0010150259999999998,-0.0016307017999999999,0.0016504398000000003,0.0006878540000000003,4.718,0,0
-0.0009296520000000002,0.006975542,-0.0014032558000000002,0.0027301480000000004,0.0030828880000000006,4.719,0,0
-0.00020076399999999998,0.010130872,0.0014329341999999997,0.0036882600000000005,0.004063128,4.72,0,0
-0.0009243660000000001,0.007242304,0.0021700059999999995,0.0011696860000000003,0.0002716460000000004,4.721,0,0
-0.0007042068,0.00517804,0.0013495059999999997,-0.0009465699999999999,-0.0014687980000000003,4.722,0,0
2.379919999999998e-05,0.0018872199999999998,0.002616896,-0.001659788,-0.0015288140000000003,4.723,0,0
-0.0011086228000000001,-0.0061389,0.0030302160000000005,-0.0040362819999999995,-0.004468954000000001,4.724,0,0
-0.0023013708,-0.0105086,0.00032290400000000027,-0.0062164559999999995,-0.005863718800000001,4.725,0,0
-0.0016362948000000002,-0.008348893999999999,-0.00014459519999999998,-0.004184182,-0.0017023988000000002,4.726,0,0
-0.0007684140000000004,-0.007849125399999999,0.0011470948000000003,-0.0016232339999999999,0.0010362032000000001,4.727,0,0
-0.0007533880000000001,-0.0086163654,0.0005723454000000001,-0.001224556,0.0008267532000000006,4.728,0,0
-0.0006679580000000002,-0.0067236654,0.0002287614000000002,-5.994999999999991e-05,0.0014601572000000006,4.729,0,0
9.7556e-05,-0.0053972194,0.0007430986000000004,0.000769944,0.0015193418000000007,4.73,0,0
0.000538668,-0.0058798512,-1.594019999999973e-05,-0.000182294,-0.00043174819999999993,4.731,0,0
0.0008983579999999999,-0.003800385799999999,-0.0014510281999999999,-0.000932372,-0.0018471254,4.732,0,0
0.00276779,0.0018839942000000004,-0.0012321247999999999,0.0002156240000000001,-0.00017511540000000013,4.733,0,0
0.00370607,0.0046864862,-0.0006036827999999998,0.00027434800000000005,2.0086599999999904e-05,4.734,0,0
0.0028124820000000003,0.0066748022,-0.00126659,-0.00023363399999999993,0.0002578569999999999,4.735,0,0
0.002821096,0.011760776,-0.00021153999999999986,0.0020047420000000003,0.0033402469999999997,4.736,0,0
0.0006464960000000001,0.0096188716,0.0015743380000000002,0.0026771120000000006,0.0033429379999999997,4.737,0,0
-0.004071104,0.0024608516,-0.000210626,0.0006705800000000003,0.0007454739999999994,4.738,0,0
-0.0059294,0.0013025056000000002,-0.0021728620000000002,0.00010686400000000013,0.0005653679999999997,4.739,0,0
-0.005429042,-0.00023673039999999975,-0.0015283822,-0.00041022399999999983,-0.0003166462000000004,4.74,0,0
-0.005497748000000001,-0.005518568400000001,-0.0023186322000000002,-0.0032785460000000002,-0.0039269802,4.741,0,0
-0.004154424,-0.004433982000000001,-0.0047800322,-0.0043477996,-0.003532146,4.742,0,0
-0.0001725780000000001,0.001106412,-0.0037567222,-0.0018691336000000002,0.0004922020000000004,4.743,0,0
0.0015028862000000002,-0.00038960600000000024,-0.0014183462,-0.0005183955999999997,0.0015086680000000003,4.744,0,0
0.00028903420000000036,-0.003709072,-0.0012720645999999998,-0.00011442960000000019,0.0008490080000000001,4.745,0,0
-0.0004162339219999999,-0.00436993,-0.0005635565999999998,0.0009921866,0.001430776,4.746,0,0
-0.0007242771219999999,-0.007846094000000001,0.0009561674,0.0009353967999999997,0.0006362620000000001,4.747,0,0
-0.0009370931219999998,-0.011680748000000001,0.0012581900000000002,-0.00047878320000000005,-0.001647732,4.748,0,0
0.00013283067800000023,-0.009532308400000002,0.00088931,-0.0007070352000000002,-0.0018024980000000005,4.749,0,0
0.002419028678,-0.004219700400000002,0.0017833486000000001,0.0007027928,-0.00013850800000000002,4.75,0,0
0.0023166912000000006,-0.0027273664000000007,0.0018305846000000003,0.0006912531999999999,-9.711600000000004e-05,4.751,0,0
0.0020270684,0.0026251136,0.0007030286,0.0012406606,0.001348526,4.752,0,0
0.0034437684000000004,0.0111487736,0.0018547260000000001,0.0032280126,0.0038475000000000002,4.753,0,0
0.0018161104,0.0110702118,0.0027001000000000004,0.0023724446000000002,0.0020203620000000004,4.754,0,0
-0.0016327976,0.0070127238000000005,0.001394882,2.0184599999999685e-05,-5.451599999999968e-05,4.755,0,0
-0.0027899220000000002,0.005214381800000001,0.001267088,-0.000774092,5.5594199999999956e-05,4.756,0,0
-0.0032866040000000003,0.0006206698000000004,0.0018233536000000002,-0.0022927140000000004,-0.0019463398,4.757,0,0
-0.004725052000000001,-0.0059737762,5.860359999999994e-05,-0.004910734000000001,-0.0052796738,4.758,0,0
-0.0030170080000000007,-0.004762064000000001,-0.0017497404000000002,-0.0040970880000000005,-0.0036571798,4.759,0,0
0.0009043680000000002,-0.0003626640000000004,-0.0007194244,-0.0008928440000000005,-7.260580000000016e-05,4.76,0,0
0.0024329639999999997,-7.161799999999964e-05,-0.0002608984000000001,0.00023011400000000007,-0.00029129400000000026,4.761,0,0
0.002801564,-0.00021915,-0.000825806,0.0008285339999999998,-0.00019321200000000022,4.762,0,0
0.00292716,-0.0009095180000000004,-0.00038126400000000003,0.002215826,0.0014447639999999999,4.763,0,0
0.0016471542,-0.004296816,-0.00024013199999999994,0.0018420228000000003,0.0009873689999999999,4.764,0,0
9.980779999999996e-05,-0.0067053300000000015,-0.0011706800000000001,0.00024619279999999995,-0.00040253099999999986,4.765,0,0
0.0008213138,-0.003863196,-0.0015068540000000002,0.0007218928000000001,0.0010756770000000001,4.766,0,0
0.0020371678,-0.0005716039999999996,2.4015999999999968e-05,0.0018040768,0.002456999,4.767,0,0
0.0012249078000000002,0.0007248270000000003,0.0001273481999999999,0.0008098368000000001,0.0014056010000000002,4.768,0,0
0.0015359164,0.005778727000000001,0.00022467419999999997,0.001458446,0.0028612280000000004,4.769,0,0
0.0023263248,0.009930061,0.0021270902,0.0029503439999999997,0.0034060200000000005,4.77,0,0
0.0003403748000000001,0.008164478400000001,0.0017769441999999998,0.00116164,-0.0001330159999999997,4.771,0,0
-0.0012536032,0.0065910764000000005,9.101999999999765e-07,-0.0005724,-0.0016874179999999998,4.772,0,0
-0.0010564291999999999,0.005738689400000001,0.00020613660000000003,-0.0006509040000000002,-0.0013783368,4.773,0,0
-0.001709296,0.0020504694000000006,9.890859999999986e-05,-0.00242235,-0.0035327588,4.774,0,0
-0.0022371440000000004,-0.0006413905999999999,-0.0022712773999999996,-0.004736364,-0.0047461228000000005,4.775,0,0
-0.0004385160000000001,0.0007740440000000002,-0.0026115873999999996,-0.00308789,-0.0006049287999999996,4.776,0,0
0.001001374,0.0004844520000000001,-0.0011854434000000001,-0.00048141399999999967,0.0020364632,4.777,0,0
0.00034658599999999996,-0.0029022579999999996,-0.0010172080000000003,-0.0001565119999999997,0.0009713320000000001,4.778,0,0
-0.00023540399999999993,-0.005858218,-0.000694974,0.0005604360000000001,0.0011567900000000002,4.779,0,0
-0.0002710439999999999,-0.008849688,0.000401022,0.0014435176,0.0013644722,4.78,0,0
-0.0007898320000000001,-0.011500864,0.0006143244000000001,0.00038567360000000005,-0.0007809838000000001,4.781,0,0
-0.0016425572000000003,-0.009734937999999999,-0.00032018359999999997,-0.0008245964000000001,-0.0019706058,4.782,0,0
-0.0009913792,-0.003313238,-0.00024865759999999993,0.00014771559999999997,0.00012081820000000004,4.783,0,0
-0.00027845720000000003,0.00033686199999999984,0.0005858484000000001,0.0004961752,0.00034862820000000004,4.784,0,0
-0.0008637492000000001,0.002462524,-0.0003246476000000001,0.0001795956,0.0003020750000000001,4.785,0,0
0.0006075428,0.007422652,-0.00029615960000000004,0.0021629816000000007,0.003303257,4.786,0,0
0.002008236,0.008042675999999999,0.0015266983999999999,0.0025619476000000004,0.0029919458,4.787,0,0
0.0009194540000000001,0.0049005920000000005,0.0011279138,0.00021665360000000002,-0.0004036322000000002,4.788,0,0
0.0008311860000000001,0.005577950000000001,0.00045181899999999995,-0.0005169259999999998,-0.0004596102000000001,4.789,0,0
0.0008515380000000001,0.005211690200000001,0.0017226589999999999,-0.0009583679999999999,-0.0008864592,4.79,0,0
-0.00172577,-0.0006544497999999999,0.0018460943,-0.0035238680000000003,-0.004569215200000001,4.791,0,0
-0.003206806,-0.0036168818,0.0004602133,-0.0042206784,-0.004391158,4.792,0,0
-0.000758456,-0.0009688897999999995,0.0011766759000000002,-0.0010462323999999995,-2.5842000000000096e-05,4.793,0,0
0.0013107519999999999,-0.0007010457999999996,0.0021025107,0.0010665716000000005,0.0009429979999999999,4.794,0,0
0.00138458,-0.0022585379999999996,0.0010620507,0.0014162596000000004,0.000278054,4.795,0,0
0.001946444,-0.0023400779999999998,0.0008235589999999999,0.0024460320000000003,0.00156437,4.796,0,0
0.002913168,-0.00345887,0.0009606240000000001,0.0026572474000000003,0.001243302,4.797,0,0
0.002173598,-0.006012942,-0.0003278020000000002,0.0009699534000000001,-0.0005250566,4.798,0,0
0.0007393482000000001,-0.006598008000000001,-0.0016423920000000003,9.435140000000003e-05,-0.00012443459999999986,4.799,0,0
0.0013236202,-0.003475714,-0.0011875086,0.0013715554,0.0016060434,4.8,0,0
0.0014028312,0.00022864200000000004,-0.0010076482,0.0011532692,0.0006109234000000003,4.801,0,0
0.0008980272000000002,0.005818382,-0.0018350122,0.0013491762,0.0010920334000000002,4.802,0,0
0.0015952132,0.011826806,-0.0006977082000000001,0.0036833642000000002,0.0033190560000000003,4.803,0,0
0.0005766549999999999,0.0116650386,0.0006904458000000001,0.0030794642,0.0009379500000000001,4.804,0,0
-0.001455473,0.007946724600000002,-3.5960000000000245e-07,0.0005173582000000002,-0.0015889499999999998,4.805,0,0
-0.002244638,0.004911834600000001,-7.820220000000002e-05,-0.0002565539999999999,-0.0007693935999999998,4.806,0,0
-0.003372046,-0.0006994853999999998,0.00048037900000000007,-0.0016070340000000002,-0.0018419716,4.807,0,0
-0.004873934,-0.007650417400000001,-0.0006248849999999999,-0.00449204,-0.004672537599999999,4.808,0,0
-0.0039235104,-0.00727861,-0.002133485,-0.004274604286000001,-0.0022301876,4.809,0,0
-0.0008636963999999997,-0.0028306499999999997,-0.0014489844,-0.001362082286,0.0020532323999999996,4.81,0,0
0.0009382616000000002,-0.002729884,-0.0010816622,-0.00018940028599999988,0.0021248346,4.811,0,0
0.0018220940000000002,-0.0031140440000000003,-0.0020289013999999998,-7.442859999998381e-07,0.0017536666,4.812,0,0
0.0030338280000000006,-0.0018771999999999999,-0.0016128814,0.0007058855140000002,0.0023811088,4.813,0,0
0.0032872704000000007,-0.0031851780000000003,-0.0012007588,0.0004995798000000003,0.0010106788,4.814,0,0
0.0024185604000000003,-0.004855052,-0.0018097693999999998,-0.0007089205999999999,-0.0013263608,4.815,0,0
0.0025378424000000004,-0.002560512,-0.0016983094,-0.00019774059999999984,-0.0008810514000000002,4.816,0,0
0.002888746,0.00027755,0.0002922126000000001,0.0010560974000000001,0.00026337,4.817,0,0
0.0016456319999999997,0.0004752780000000001,0.0004630654000000001,0.0007024075999999999,-0.0005768542,4.818,0,0
0.001052644,0.002777482,-5.213519999999988e-05,0.0018311876,0.0013013238000000001,4.819,0,0
0.0003702733999999999,0.004712336000000001,0.0018028688000000003,0.0033480360000000004,0.0032974314,4.82,0,0
-0.0023337186000000005,0.002292886,0.0017603508000000002,0.0016803640000000002,0.0005665434000000002,4.821,0,0
-0.004726190600000001,0.000620988,0.0004369468000000002,-0.00013609199999999998,-0.0009078179999999997,4.822,0,0
-0.005022384600000001,0.0005058600000000001,0.0014979180000000002,6.235999999999983e-05,-0.0003422461999999999,4.823,0,0
-0.0052540206,-0.002548194,0.0025317060000000003,-0.001692678,-0.0025640682,4.824,0,0
-0.00440262,-0.005960548,0.0006964600000000002,-0.003768054,-0.0047407262,4.825,0,0
-0.00122082,-0.0037134720000000006,0.00023901060000000013,-0.002471278,-0.0032787642000000005,4.826,0,0
0.0001701300000000001,0.0018762240000000001,0.00024168860000000004,-0.00145764,-0.0015550702000000003,4.827,0,0
0.00016886599999999994,0.010153712,-0.0010959174,-3.422800000000008e-05,0.001042446,4.828,0,0
-0.00016805200000000002,0.017493144000000002,0.00010666859999999985,0.00202145,0.0033013420000000005,4.829,0,0
-0.003407928,0.017469118000000002,0.0016475005999999999,0.0007871639999999999,0.0013034120000000008,4.83,0,0
-0.00798626,0.012669920000000001,0.0014019599999999996,-0.0024279220000000003,-0.0010045499999999995,4.831,0,0
-0.008634784000000001,0.0061457000000000005,0.0011785679999999996,-0.003136152,-0.0011661266000000002,4.832,0,0
-0.005439844,-0.0017678100000000003,0.0011908519999999998,-0.0028492300000000003,-0.0010593466000000003,4.833,0,0
-0.0008126140000000006,-0.007053872,-0.00035413688000000024,-0.0021095679999999996,0.000637351400000001,4.834,0,0
0.004857406,-0.006957372,-0.00020542688000000004,0.0022660360000000004,0.005335871400000001,4.835,0,0
0.008064996400000001,-0.009794552000000002,0.0020881171200000004,0.005591136,0.0062341914,4.836,0,0
0.0074420404000000015,-0.016218072,0.0018830291200000002,0.004275128000000001,0.001887680000000001,4.837,0,0
0.0061298224,-0.017390338,0.0006390411200000005,0.0027274644,-0.0003733019999999988,4.838,0,0
0.0057425024,-0.015114336,0.0005165682000000003,0.0031378564,-0.0008980619999999994,4.839,0,0
0.0057420624,-0.011260936000000001,-0.0002803418,0.0021114144,-0.002794258,4.84,0,0
0.006614956,-0.003245765999999999,-0.0019321778000000005,0.0010576563999999998,-0.0025402859999999997,4.841,0,0
0.007702320000000001,0.004250234000000001,-0.0009251465999999999,0.0023639304,0.00011897799999999984,4.842,0,0
0.0058594960000000005,0.005416090000000001,0.0004872724000000001,0.0014666479999999994,-0.000698234,4.843,0,0
0.001775782,0.005478310000000001,-0.0009304817999999999,-0.0016708400000000003,-0.002745274,4.844,0,0
-0.001570072,0.00832583,-0.0018565678000000002,-0.002674104,-0.0009877180000000007,4.845,0,0
-0.003393806,0.01091394,-0.0013264318000000002,-0.0023879799999999996,0.0008373767999999998,4.846,0,0
-0.0037490080000000003,0.01246442,-0.0015037370000000002,-0.003774014,-0.00029126720000000007,4.847,0,0
-0.004130030000000001,0.011743130000000001,-0.0018471200000000003,-0.005540368,-0.0011259772000000005,4.848,0,0
-0.004690424,0.008515218000000001,-0.0005690040000000001,-0.0048213836,-0.00020072120000000034,4.849,0,0
-0.004794396,0.002431362,-0.00011234979999999998,-0.003806947600000001,-0.00023448119999999956,4.85,0,0
-0.0030273019999999995,-0.0015127644000000003,-0.0010263662,-0.0015613735999999998,0.0022342720000000003,4.851,0,0
0.00044256600000000014,-0.0024583624000000005,0.00011565780000000019,0.0035716263999999998,0.006734922000000001,4.852,0,0
0.0016412409999999999,-0.0088193724,0.0009323638000000001,0.0057746763999999996,0.004764866000000001,4.853,0,0
0.001709545,-0.0164775604,-0.0009412862,0.003957594,-8.938999999999952e-05,4.854,0,0
0.003369975,-0.018263224400000003,-0.0017914724000000003,0.0031060099999999998,-0.0010702459999999997,4.855,0,0
0.004330693,-0.017790218000000003,-0.000982194,0.0030204420000000004,-0.0019155380000000005,4.856,0,0
0.002889897,-0.016030816000000003,-0.0013029680000000003,0.0008984700000000004,-0.004427638000000001,4.857,0,0
0.0016343160000000002,-0.00671015,-0.0013179780000000005,0.0002119680000000003,-0.003116742,4.858,0,0
0.001418726,0.00554901,0.00104185,0.0012992060000000007,-0.00021908600000000012,4.859,0,0
-0.0013627480000000002,0.01159111,0.002348916,-0.00032326799999999993,-0.00150789,4.86,0,0
-0.00547661,0.015410509999999999,0.0016359524,-0.002542444,-0.002362724,4.861,0,0
-0.007303914,0.019587706,0.0018481204,-0.002247726,-0.00025737800000000016,4.862,0,0
-0.007884306,0.018707268000000003,0.0025064764000000002,-0.0023068660000000003,0.00024306600000000012,4.863,0,0
-0.008399882000000001,0.013050912000000001,0.0018812584000000004,-0.0041591580000000005,-0.0018680700000000003,4.864,0,0
-0.007390598,0.008586488,0.0006971204000000004,-0.004520756000000001,-0.002398898,4.865,0,0
-0.004212909999999999,0.004185940000000001,0.0006647116000000001,-0.0034475080000000006,-0.0012711320000000003,4.866,0,0
-0.0014563580000000003,-0.0020452279999999996,-0.00015915239999999994,-0.002759694000000001,-0.0008415440000000001,4.867,0,0
0.002404764,-0.003414638,-0.0011834153999999999,0.0005136179999999998,0.003060976,4.868,0,0
0.006216776000000001,-0.003884622,0.0004640486,0.0049507660000000005,0.006608388,4.869,0,0
0.005989438000000001,-0.010402078,0.0014859824,0.004919874,0.0035730560000000002,4.87,0,0
0.005068339600000001,-0.014846690000000001,-0.0001143851999999999,0.0030239520000000008,0.00032439600000000023,4.871,0,0
0.0051858896,-0.014100622,-0.0009459272000000001,0.0028339420000000008,7.919599999999991e-05,4.872,0,0
0.0043341496,-0.013943178400000002,-0.0006083242000000002,0.0020766860000000003,-0.0016535399999999994,4.873,0,0
0.0023785876,-0.0123053304,-0.0016186762000000004,0.0003346184000000002,-0.0036242419999999997,4.874,0,0
0.0027870336,-0.0040959124,-0.00216718,0.0007293284000000003,-0.001160748,4.875,0,0
0.0038351639999999994,0.0035962876000000003,-0.00076201,0.0013229703999999998,0.00043939799999999997,4.876,0,0
0.0022384099999999997,0.0066716276000000005,-0.00016248999999999994,-0.0005353535999999998,-0.000998118,4.877,0,0
0.0006340459999999999,0.011010506,-0.000635214,-0.0015276816000000001,-0.00026202600000000027,4.878,0,0
3.5511999999999805e-05,0.015327178,-0.0001895340000000001,-0.00098293,0.00155105,4.879,0,0
-0.0016441020000000002,0.014540382,0.0007022640000000001,-0.0015357680000000003,0.0008260859999999995,4.88,0,0
-0.004868842,0.01043552,0.0005210359999999999,-0.003048252,-0.0011292140000000003,4.881,0,0
-0.006092086,0.007360927999999999,-0.00023868400000000018,-0.003127794,-0.0007019040000000005,4.882,0,0
-0.0052002279999999994,0.0033518140000000007,-4.358800000000005e-05,-0.002680708,-0.00037444200000000065,4.883,0,0
-0.003855738,-0.0002748300000000002,-0.0006790758,-0.0022129680000000005,4.2133999999999444e-05,4.884,0,0
-0.0003349500000000003,3.923399999999986e-05,-0.0007846918,0.0011416780000000006,0.004211284,4.885,0,0
0.00282228,-0.0026701240000000003,0.0013591722000000001,0.004016220000000001,0.00545359,4.886,0,0
0.00273495,-0.009646032,0.0018196002000000003,0.002679150000000001,0.0014214120000000004,4.887,0,0
0.002589256,-0.012365358000000002,0.0008492822000000003,0.001369262,-0.00023620099999999974,4.888,0,0
0.003326138,-0.011881842000000002,0.0012675960000000002,0.0016013960000000002,-0.00023808699999999967,4.889,0,0
0.001977454,-0.012033812000000001,0.0013503760000000001,0.0002662999999999998,-0.0027349584,4.89,0,0
-0.00040043999999999995,-0.0071269340000000014,-0.00065627,-0.0010728460000000003,-0.0034051944000000004,4.891,0,0
-0.0005220540000000001,0.002733266,-0.001350148,0.0005524780000000001,-0.0004790583999999999,4.892,0,0
-0.000791906,0.007764046,-0.00057506,0.0011351716000000001,-0.00044248059999999997,4.893,0,0
-0.0030357400000000003,0.007909208000000001,-0.00104111808,-0.0008011763999999999,-0.0018019409999999998,4.894,0,0
-0.00453761,0.008468918,-0.00137486248,-0.0008489523999999997,-0.0001422216000000001,4.895,0,0
-0.003725588,0.007543324400000001,-0.0005106844799999999,-0.00012186639999999996,0.0012384064,4.896,0,0
-0.0025222426,0.0037175004000000005,0.00018076152000000008,-0.0014327723999999998,-0.0001395436,4.897,0,0
-0.0025061084,0.0004153083999999998,-0.00022538647999999998,-0.0028029659999999996,-0.0013947224,4.898,0,0
-0.0010300804,-0.00037374359999999994,-0.00018642799999999993,-0.0021459845999999994,-0.00022124800000000006,4.899,0,0
0.0015794116,-0.0012717936,5.987840000000005e-05,-0.0020165846,-0.0005189199999999998,4.9,0,0
0.0035091996000000004,-0.000996442,-0.0006617998000000001,-0.0010049945999999997,0.0007076980000000001,4.901,0,0
0.0057803942,0.0009290980000000001,0.0007010101999999999,0.0031578734000000004,0.004864332000000001,4.902,0,0
0.006499990000000001,-0.0022475099999999994,0.0030189182,0.004499586,0.004364224,4.903,0,0
0.00420517,-0.008642072,0.0024994198,0.0026988606,0.0007951739999999996,4.904,0,0
0.002006646,-0.010794114,0.0017078998,0.0021651166,0.00010617999999999977,4.905,0,0
0.0005326354000000002,-0.011175452200000002,0.0020145904000000003,0.0013797086,-0.0004680280000000001,4.906,0,0
-0.0017408002,-0.0120536638,0.0005590324,-0.0010253238000000003,-0.0033702740000000004,4.907,0,0
-0.0023186902000000005,-0.0073250078,-0.0017784256000000001,-0.0014425104000000003,-0.0027204079999999997,4.908,0,0
-0.0005263261999999999,0.0012362322,-0.00130824356,0.00027473180000000007,0.0005130220000000001,4.909,0,0
3.1718000000000024e-06,0.0055125782,-0.00068265756,-8.414500000000002e-05,0.0002574340000000001,4.91,0,0
-0.0002743616000000001,0.0082514804,-0.0014120279600000002,-0.0009707250000000002,-0.000669736,4.911,0,0
-0.00010955660000000003,0.011943216,-0.00045854595999999994,-0.00040756259999999997,0.000719294,4.912,0,0
-0.0010394706,0.012231084000000001,0.00089983604,-0.0005365186,0.0006852780000000001,4.913,0,0
-0.0029173366,0.008993752,0.00015559599999999992,-0.0022824888,-0.00148992,4.914,0,0
-0.004092566600000001,0.006185812000000001,-0.000989298,-0.003136224,-0.0017428245000000002,4.915,0,0
-0.0039342626,0.003985702000000001,-0.0005882175999999999,-0.0022861239999999996,-0.0005322965000000002,4.916,0,0
-0.0038907200000000007,0.0003885938000000002,-0.0016808056000000003,-0.002299434,-0.0004842064999999999,4.917,0,0
-0.0023144660000000003,9.955580000000014e-05,-0.0031390016000000004,-0.0002725659999999999,0.0022420795,4.918,0,0
0.000999264,0.0011817738000000002,-0.0013812876000000001,0.0034939540000000005,0.0052330035000000006,4.919,0,0
0.002230656,-0.0031492662000000005,-0.00030962479999999994,0.003561838000000001,0.0022596540000000003,4.92,0,0
0.0019494340000000003,-0.0075741762,-0.0014773792,0.0020116279999999997,-0.0009787980000000003,4.921,0,0
0.0025049380000000004,-0.007546528,-0.0012052652,0.002132932,-0.001265558,4.922,0,0
0.0025625220000000002,-0.007521488,-0.00022799119999999988,0.0011816880000000002,-0.0032068920000000002,4.923,0,0
0.001769862,-0.006499352000000002,-0.0008193592,-0.001341472,-0.005430008,4.924,0,0
0.001762562,-0.0002704019999999999,-0.00052992,-0.0009096220000000001,-0.0023168672000000003,4.925,0,0
0.0009469079999999998,0.004220558,0.0015999520000000002,0.0005922640000000001,0.0010486208,4.926,0,0
-0.001555858,0.0038106800000000008,0.002326588,-0.00016435691999999995,0.000398881,4.927,0,0
-0.003926706,0.0039897100000000005,0.0018839042000000003,-0.0005968003199999999,0.000834093,4.928,0,0
-0.0052915440000000005,0.004577948,0.0020440202,0.0002239096800000001,0.0021534590000000004,4.929,0,0
-0.00637676,0.0017755660000000001,0.0017517712000000003,-0.00022522031999999996,0.0008185782,4.93,0,0
-0.00600881,-0.0013229140000000001,0.0005424332,-0.0018356663200000001,-0.0012785818000000003,4.931,0,0
-0.0024084300000000005,-0.00012315600000000013,0.00011660173999999997,-0.0019714536,-0.0005349399999999999,4.932,0,0
0.0018266460000000001,0.00018709400000000006,0.0008020995400000001,-0.0016326242,0.00019523,4.933,0,0
0.004633684,-0.00121588,-0.00021694445999999995,-0.0017167655999999999,0.00022156800000000022,4.934,0,0
0.00848903,0.002313092,-0.0006350554599999999,0.0007714843999999999,0.003284658,4.935,0,0
0.010453390000000002,0.0038710000000000003,0.00108497054,0.0033094844000000003,0.004179477000000001,4.936,0,0
0.006838774000000001,-0.0017302800000000007,0.0008331160000000001,0.0017088446000000001,0.0006483009999999996,4.937,0,0
0.0035598520000000005,-0.004099842000000001,-0.0002577840000000001,0.0006089006000000003,-0.000766185,4.938,0,0
0.0024836180000000004,-0.0037098280000000014,0.000797498,0.0013301680000000005,-0.0008467009999999999,4.939,0,0
7.955259999999997e-05,-0.007413202000000001,0.001349842,-0.00021693799999999972,-0.0032471430000000005,4.94,0,0
-0.0018134874,-0.00858593,-9.769300000000004e-05,-0.00201446,-0.004069654000000001,4.941,0,0
-0.0006369834000000001,-0.0029951120000000003,-1.973940000000009e-05,-0.00024713320000000003,-0.00081213,4.942,0,0
0.00036951659999999995,0.0009291239999999999,0.0008323505999999999,0.0009617748,0.00039291200000000004,4.943,0,0
5.612599999999879e-06,0.002206284,-2.5994000000000212e-06,-0.00020801120000000004,-0.0006453539999999999,4.944,0,0
0.0005998640000000001,0.005851418000000001,-0.0006500054000000001,4.246079999999992e-05,0.00035147399999999995,4.945,0,0
0.0011558760000000001,0.008944512,-0.0003621536,0.0005431991999999999,0.0007915279999999999,4.946,0,0
-0.00033572199999999967,0.0081385726,-0.0005759672,-0.0006133076,-0.0011623240000000002,4.947,0,0
-0.00344258,0.005786108600000001,-0.0014079872,-0.0019397556000000002,-0.0024199300000000003,4.948,0,0
-0.005809186,0.005181958600000001,-0.0013072160000000004,-0.0011683876,-0.0008025140000000003,4.949,0,0
-0.006948012000000001,0.004028444600000001,-0.000571952,-0.0006205975999999997,-0.00029785800000000013,4.95,0,0
-0.006796746000000001,0.00299822012,-0.0008806016,-7.792999999999993e-05,0.0008940959999999997,4.951,0,0
-0.004086806,0.0033783815200000003,1.4332399999999958e-05,0.003086554,0.005047624,4.952,0,0
-0.0010652199999999998,-0.0004975744800000004,0.0018489644000000002,0.0040052102000000004,0.004833207999999999,4.953,0,0
4.454200000000001e-05,-0.007572084480000001,0.0012357452,0.0015974802000000001,0.0010803899999999996,4.954,0,0
0.0013803780000000002,-0.01096467048,6.81051999999998e-05,0.0006978904000000003,0.00013638439999999973,4.955,0,0
0.0027746760000000002,-0.011452636,0.00030547819999999994,4.293960000000011e-05,-0.0007161318000000003,4.956,0,0
0.0030442560000000004,-0.010124762,-0.0006058458000000001,-0.0027338004000000003,-0.0038887678000000003,4.957,0,0
0.00426143,-0.0033093019999999996,-0.0028779778000000006,-0.0031688846000000005,-0.0033268000000000004,4.958,0,0
0.006233754,0.004446938,-0.0025851898000000006,-0.00047712259999999984,0.000535122,4.959,0,0
0.005287748,0.0061207219999999994,-0.0015272058000000003,8.212320000000004e-05,0.0009049635999999999,4.96,0,0
0.0023402559999999998,0.004818878,-0.0017618808000000002,-0.0004969900000000001,0.0003382678,4.961,0,0
-5.8897999999999937e-05,0.0025169499999999996,-0.0007295308000000002,0.00031180580000000007,0.0015811978000000004,4.962,0,0
-0.002853478,-0.001965296,0.0012000072,0.00014889580000000018,0.0011315180000000002,4.963,0,0
-0.005296316,-0.004956820000000001,0.0019309652,-0.0016558602,-0.0011041299999999998,4.964,0,0
-0.0051315686,-0.003029210000000001,0.0019021512,-0.002238268,-0.0012709319999999998,4.965,0,0
-0.0016446246000000003,0.0015611100000000003,0.00271668,-0.000952926,0.0002687480000000002,4.966,0,0
0.0015180514000000002,0.0035967300000000002,0.002509472,-0.0009055384,-0.00019312659999999983,4.967,0,0
0.0036829794000000004,0.005522076000000001,0.0009702300000000001,0.00032985360000000006,0.0014149074,4.968,0,0
0.005754117400000001,0.006586952,0.001139464,0.0033113496,0.0043033554,4.969,0,0
0.004738870000000001,0.00040791800000000017,0.001443162,0.0027536214000000005,0.0019698294000000008,4.97,0,0
0.001306822,-0.006713522,-0.00019608600000000005,0.0006620254000000002,-0.0009986246000000002,4.971,0,0
-0.0016257500000000002,-0.008457676,-0.0009813,0.0005149420000000003,-0.000972774,4.972,0,0
-0.0036726040000000003,-0.009594708,-0.0005341526,-0.0003462849999999997,-0.002263322,4.973,0,0
-0.005934956000000001,-0.010244584000000001,-0.0014769846,-0.002749451,-0.004785066,4.974,0,0
-0.0062644940000000015,-0.004463053999999999,-0.0024990166,-0.002418589,-0.00266411572,4.975,0,0
-0.0042978040000000006,0.0017056940000000002,-0.0013676336,-0.00015703500000000003,0.0005339062800000001,4.976,0,0
-0.00295974,0.0023043580000000003,-0.0007159336000000001,0.0002177690000000001,0.00013199548000000007,4.977,0,0
-0.0015605980000000003,0.0032415820000000002,-0.0009399269999999999,0.00011470800000000004,3.278348000000013e-05,4.978,0,0
0.00119872,0.005203092,-5.768999999999978e-06,0.0008415580000000001,0.0009566694800000002,4.979,0,0
0.003434998,0.004823512,0.0005852618000000001,0.000662866,0.00020376520000000024,4.98,0,0
0.003561186,0.004166166000000001,-2.8577199999999968e-05,-0.001111156,-0.0017818608,4.981,0,0
0.0037204119999999998,0.00606403,-0.0003824638,-0.0015360794,-0.0009293019999999999,4.982,0,0
0.0033345488,0.006693704,0.0002749822,-0.0005265214,0.00032527800000000013,4.983,0,0
0.0010405988,0.004223816,-0.0006067838,-0.0006536185999999999,-0.000390398,4.984,0,0
0.00038888880000000005,0.0039334008,-0.0010405526,0.0010995734,0.0021192480000000002,4.985,0,0
0.0009977648,0.0026434236,0.0009728714000000002,0.0036224333999999997,0.003969390000000001,4.986,0,0
0.00010236279999999989,-0.0017795763999999999,0.0009878922000000003,0.0024506927999999994,0.0006798719999999998,4.987,0,0
-0.0007343580000000002,-0.0032318714,-0.0006452317999999999,0.0009076787999999999,-0.0008838320000000002,4.988,0,0
-0.0008670420000000002,-0.0031095894,-0.00047859779999999977,0.0008851525999999997,0.00015074799999999992,4.989,0,0
-0.002338316,-0.0054004842,-6.609139999999976e-05,-0.0007950194000000001,-0.0018382360000000005,4.99,0,0
-0.003978932,-0.006428747,-0.0017959794,-0.0027938194,-0.0031660340000000003,4.991,0,0
-0.0028841820000000003,-0.0032055530000000003,-0.0019192464,-0.0010160894,0.0007362500000000001,4.992,0,0
-0.00132485,-0.001323484,0.0003282535999999999,0.0011781506,0.002912866,4.993,0,0
-0.000670019,-0.0007987917999999999,0.0006120339999999999,0.0009315813999999999,0.0016949820000000003,4.994,0,0
0.000474935,0.0011646982,-5.494400000000013e-06,0.0010933074,0.0020538274000000004,4.995,0,0
0.0007404190000000002,0.0014405201999999999,0.0005054936,0.001562227,0.0021198592,4.996,0,0
-0.00041716500000000005,-0.00013633380000000015,0.00035793439999999994,0.00019296699999999994,-0.0004215228000000001,4.997,0,0
-0.0011196294,-0.0012176458000000001,-0.0010370876000000001,-0.0018315850000000002,-0.0020258682,4.998,0,0
-0.0011018836,-0.000729372,-0.0012392488000000004,-0.0015632824000000002,-0.0005159261999999998,4.999,0,0
-0.0009902602000000003,-0.0002778339999999999,-0.0003987308,-0.0008799664,-0.0006910819999999999,5.0,0,0
0.0009721378,0.002085898,-0.0009738868,-0.0005795360000000001,-0.00047661439999999996,5.001,0,0
0.0043703338,0.006884318,-0.00014074479999999989,0.0018212880000000001,0.0030703635999999998,5.002,0,0
0.0051873042,0.007175092,0.0022747392,0.003066912,0.0029068190000000006,5.003,0,0
0.0027816133999999998,0.003349346,0.002442912,0.001417318,-0.00042450699999999975,5.004,0,0
0.00029124999999999984,0.0015533440000000003,0.0023579960000000002,0.000567796,-0.0008325585999999997,5.005,0,0
-0.0025029180000000007,-0.0008999679999999997,0.0036328040000000003,0.00012762380000000024,-0.0011893120000000003,5.006,0,0
-0.006063598000000001,-0.0064700140000000005,0.003379688,-0.0022189202,-0.0042479860000000005,5.007,0,0
-0.005950058000000001,-0.006429416,0.001206112,-0.0034816342,-0.004087243200000001,5.008,0,0
-0.0010863380000000005,0.00032988400000000034,0.0008796400000000002,-0.0013219462000000001,-0.00014447120000000003,5.009,0,0
0.003056158,0.0028436560000000004,0.0009780960000000001,-6.446620000000007e-05,0.0009980588000000003,5.01,0,0
0.004739702000000001,0.002234692000000001,-0.000131417,-0.00034501599999999986,0.0006754308,5.011,0,0
0.006111430000000001,0.003254338000000001,-0.0002443578,0.00046165440000000006,0.0016664068,5.012,0,0
0.005003203,0.0010386620000000005,-0.00023675580000000003,0.0005356804,0.00129489,5.013,0,0
0.0013428810000000002,-0.003650832,-0.0010901178,-0.0010622536000000002,-0.0008965980000000001,5.014,0,0
-0.000746121,-0.0037952120000000005,-0.0021325918,-0.0019956746,-0.0013831400000000002,5.015,0,0
-0.0003470169999999999,-0.000512162,-0.0018969050000000002,-0.0010682126,0.0001108560000000001,5.016,0,0
-0.000892233,-0.00045620200000000006,-0.0016631201999999998,-0.0008219510000000001,-0.00031090600000000006,5.017,0,0
-0.001685146,0.0010470380000000001,-0.0019285442000000002,0.00033325900000000014,0.0007283020000000001,5.018,0,0
-0.00025254179999999995,0.004992792,-0.0001185502,0.003331969,0.0035943380000000003,5.019,0,0
-0.0006211438,0.0030316419999999993,0.0014573538,0.0036225878,0.0021421260000000003,5.02,0,0
-0.0025740258,-0.0005848299999999999,0.00043713599999999986,0.0021128158,-0.00043242200000000023,5.021,0,0
-0.0024880082,-0.0001370127999999998,0.00011441699999999994,0.0020329644,0.00031392399999999993,5.022,0,0
-0.0014527313999999998,-0.0012335668,0.0011977729999999998,0.0011773524,-3.969620000000016e-05,5.023,0,0
-0.0008271796,-0.0046244528,0.00028340699999999995,-0.0018749615999999998,-0.0026390482000000002,5.024,0,0
0.0008219964000000001,-0.0031304548,-0.001188217,-0.0026125494,-0.0013431106000000002,5.025,0,0
0.0031254484000000004,-0.0003762148,-0.00020041540000000004,-0.0007363574,0.0014258114,5.026,0,0
0.0037381068,-0.0012734,0.00013866160000000003,-0.000470102,0.000801673,5.027,0,0
0.003536361,-0.0011252320000000003,-0.0006906524000000001,-0.00090081,-0.0001982227999999999,5.028,0,0
0.0026707018000000004,1.5999999999999793e-05,-7.367439999999995e-05,-0.00013505600000000002,-8.329079999999986e-05,5.029,0,0
0.0003224998,-0.0017639060000000002,0.00045093920000000004,-3.056400000000012e-05,-0.0012655744,5.03,0,0
-0.0023623762,-0.003958054,-0.0005089404,-0.001389908,-0.0031628744,5.031,0,0
-0.0032098130000000006,-0.002171374,-0.0010647076,-0.0016140999999999998,-0.002347332,5.032,0,0
-0.002914166,0.00037529800000000004,-0.00018458359999999976,-0.0005875139999999999,-0.0006889780000000002,5.033,0,0
-0.0038624408000000002,0.0009547840000000002,-0.0009210015999999998,-0.0005576008,-0.0005357001999999997,5.034,0,0
-0.0028091368,0.004898424,-0.0015877132,0.0010387872000000003,0.0023814778,5.035,0,0
-0.00040299680000000014,0.008604334,0.00024361080000000006,0.0032818232,0.0048785878000000005,5.036,0,0
-0.001132468,0.004815102,0.0002052872000000001,0.0020936492,0.0018794178000000003,5.037,0,0
-0.001911712,0.0008992120000000004,-0.0014009568,0.0007531212000000001,0.00019557779999999968,5.038,0,0
-0.00012111799999999981,0.0005394639999999999,-0.0006498027999999999,0.0010059046000000002,0.0010190679999999997,5.039,0,0
0.0014754700000000002,-0.0020847037999999997,0.00035588520000000024,-0.0005376354,-0.0014502340000000001,5.04,0,0
0.0019212600000000002,-0.0033643258000000003,-0.0008435948,-0.0028394654,-0.003831166,5.041,0,0
0.0032000920000000003,0.0023778142000000003,-0.0006936197999999999,-0.0014353013999999999,-0.000799624,5.042,0,0
0.0039258128,0.0065056142,0.0012595702,0.0008232726,0.001440786,5.043,0,0
0.0025401588,0.0045092742,0.0013604062000000003,0.0006782926,0.00022090200000000003,5.044,0,0
0.0003401688000000001,0.002375802,0.0008876862000000001,0.0009452397999999999,0.00031476600000000007,5.045,0,0
-0.0019010592000000002,-0.0013512759999999998,0.0016711622,0.0018387358,0.0005131580000000001,5.046,0,0
-0.0031968811999999996,-0.008265856,0.0017708558000000003,0.0007466937999999999,-0.001416844,5.047,0,0
-0.0029465980000000004,-0.011747452,0.0005757178000000001,-0.0010983342000000001,-0.003245714,5.048,0,0
-0.001272676,-0.008830852,-4.4171600000000036e-05,-0.0006171068000000001,-0.002058182,5.049,0,0
-0.00036504599999999973,-0.005871336,0.0003604414,-0.00027794880000000014,-0.0013057379999999999,5.05,0,0
-0.0004452379999999998,-0.003123333,-0.0005037986000000001,-0.0008912368000000002,-0.0009130695999999998,5.051,0,0
0.001083972,0.003233667,-0.0008482324000000001,0.0011294992,0.0026700304,5.052,0,0
0.0014977360000000002,0.005395055,0.0006040275999999999,0.0025639452000000003,0.0036760744000000007,5.053,0,0
-0.00011046599999999993,0.0022834890000000005,0.00036266299999999994,0.0005058371999999999,0.0009644584000000002,5.054,0,0
0.00046179400000000007,0.0024483770000000003,-0.00045638800000000017,-0.00037228399999999996,0.0010046764,5.055,0,0
0.0023246,0.002784524,0.0004287539999999997,-0.00023768040000000018,0.0014958800000000002,5.056,0,0
0.0017510306000000002,-0.001057002,0.0005023099999999997,-0.0026834384,-0.0015558759999999999,5.057,0,0
0.0008266166000000001,-0.00209724,-0.0012973560000000002,-0.0041214064,-0.0024342640000000002,5.058,0,0
0.0020920346,0.0020688020000000002,-0.0009920164000000002,-0.0014403644,0.0009475219999999999,5.059,0,0
0.0021179046,0.0026108300000000006,0.0002597555999999998,0.0003756336000000002,0.001709614,5.06,0,0
0.0006545106,0.0003862420000000002,-0.0002899214000000001,0.00028882400000000013,0.00039662599999999997,5.061,0,0
0.0001811239999999999,0.0013337880000000007,-0.00041495340000000005,0.001329284,0.0010517902,5.062,0,0
-0.0006688980000000002,0.0006902500000000004,-0.0002079654000000001,0.0014607280000000001,0.0008174422000000001,5.063,0,0
-0.0027083360000000004,-0.0033896580000000003,-0.0011432349999999998,-0.00042481599999999995,-0.0015176218,5.064,0,0
-0.0035957920000000004,-0.004339892000000001,-0.002408107,-0.0015434000000000001,-0.0022493538,5.065,0,0
-0.00231913,-0.0015161680000000005,-0.0023904576,-0.0006493780000000002,-0.0003042037999999999,5.066,0,0
-0.0017715616,-0.0015753620000000005,-0.0020552769000000003,-0.0005121996000000001,-0.00031505838,5.067,0,0
-0.0008936118000000003,0.0003833379999999998,-0.0019039508999999998,-1.3893599999999999e-05,0.0005912136200000001,5.068,0,0
0.0021165922,0.005681286000000001,0.0002917731000000002,0.0023774504000000003,0.0038243516200000003,5.069,0,0
0.0026501422000000004,0.004118396000000001,0.0028304111,0.0022575252,0.0023771796200000002,5.07,0,0
0.0008931582000000001,0.0006670900000000004,0.0028109605600000003,7.109919999999988e-05,-0.0005053403800000002,5.071,0,0
0.0010787358,0.0017397880000000008,0.0028254516000000003,-0.0001070920000000002,-0.00012874600000000038,5.072,0,0
0.0009515820000000003,0.0003957200000000006,0.0037858036,-0.0005097860000000001,-0.0008140720000000002,5.073,0,0
-0.000129738,-0.0024077219999999997,0.0031579356000000004,-0.002712134,-0.0032805900000000003,5.074,0,0
0.0006342920000000002,0.0010784900000000005,0.0017875676,-0.0023682428000000003,-0.001512386,5.075,0,0
0.001146772,0.004520690000000001,0.0020509737400000003,0.00044286719999999996,0.0022023200000000002,5.076,0,0
-0.000727916,0.0026839099999999994,0.0013791440000000001,0.0011936119999999997,0.0019991498000000003,5.077,0,0
-0.002467604,0.001742333999999999,-0.0006529960000000002,0.0011647259999999998,0.0011829438,5.078,0,0
-0.0036288740000000002,0.0005616039999999996,-0.0012400538,0.0018830417999999999,0.0013882218,5.079,0,0
-0.0048375020000000005,-0.0037857800000000003,-0.0021082638000000003,0.0009847438,-0.0003853042000000002,5.08,0,0
-0.004010784,-0.0062472840000000005,-0.0034327218,-0.0011110062000000002,-0.0031814222,5.081,0,0
-0.0007187579999999999,-0.0034524580000000003,-0.0032388138,-0.0016983762000000002,-0.003121326,5.082,0,0
0.0033499380000000002,0.0003067100000000004,-0.0015076817999999997,-0.0011146558,-0.0020273946000000003,5.083,0,0
0.004118274000000001,0.0013663260000000004,-0.0013782951999999997,-0.0016592636,-0.0028714386000000002,5.084,0,0
0.0033816700000000007,0.004186126000000001,-0.0018516311999999997,-0.0003485955999999999,-0.0007240085999999998,5.085,0,0
0.0025551860000000005,0.0056348970000000016,0.0001160448000000001,0.0022258684000000003,0.0021560314000000002,5.086,0,0
-0.0018557819999999998,0.0005454470000000001,0.0009397968000000002,0.0013377704000000004,0.0002994934000000004,5.087,0,0
-0.00551281,-0.003035577000000001,-0.00034393719999999996,-0.00023346399999999963,-0.0009145639999999999,5.088,0,0
-0.0048527959999999995,-0.003400459000000001,-0.0003348868,0.0001238164,0.00011494520000000015,5.089,0,0
-0.003209922000000001,-0.0053347310000000005,0.000609276,-0.0008896736000000001,-0.0013060288,5.09,0,0
-0.0018279140000000004,-0.005197461000000002,-0.0003936170000000001,-0.0030206176,-0.0030709065999999998,5.091,0,0
0.002226084,-0.000306029,-0.0008195704000000001,-0.0014857816,9.752139999999986e-05,5.092,0,0
0.005508648,0.0017974150000000001,0.0010580676,0.0015112524,0.0034164694000000002,5.093,0,0
0.004744318800000001,8.244099999999994e-05,0.0017015124,0.0020870619999999998,0.0033356042,5.094,0,0
0.003483248800000001,0.0001530049999999999,0.0015196148,0.0022779425999999996,0.0033800921999999995,5.095,0,0
0.0027155216,-0.0006442179999999998,0.0020945378,0.0026289458599999998,0.002850498,5.096,0,0
0.0012222534,-0.0032615940000000005,0.00203847,0.0012247638599999998,0.0001781199999999995,5.097,0,0
-0.0005411576000000001,-0.0036592560000000005,0.0005760040000000002,-0.0007150821400000002,-0.002426342,5.098,0,0
-0.0007925854000000001,-0.0010140219999999998,-0.00014539600000000003,-0.00101482234,-0.0021513240000000005,5.099,0,0
-0.0009403134,-0.0005092479999999999,0.0004850108000000001,-0.00114642694,-0.0015745572000000002,5.1,0,0
-0.0017621082000000001,-0.00092762,-0.0006138771999999999,-0.0018216342,-0.0013302464000000001,5.101,0,0
-0.0009355740000000001,0.0025941440000000005,-0.00097493,-0.0005118542,0.0017220036,5.102,0,0
0.0001778610000000002,0.0033271080000000005,0.0006900120000000003,0.0006251838000000001,0.0031112056,5.103,0,0
8.571799999999995e-05,0.0010409580000000005,0.00027029800000000025,-0.0007728639999999998,0.0009308516000000001,5.104,0,0
0.00024983800000000006,0.00341775,-0.0009971079999999998,-0.0012817999999999998,0.0002763927999999998,5.105,0,0
0.000591622,0.0070602680000000015,-0.0005166377999999999,-0.0007629003999999998,0.0001597680000000003,5.106,0,0
-0.000735612,0.0047176380000000006,-0.0007778977999999999,-0.0018403723999999998,-0.002449144,5.107,0,0
-0.0034273520000000003,0.0009216760000000002,-0.0025467698,-0.0026718904,-0.0030758440000000003,5.108,0,0
-0.00392141,0.0011084060000000001,-0.0020156252,-0.0003179563999999998,0.0008144119999999998,5.109,0,0
-0.002929396,-0.0013262,-0.0003439011999999998,0.0018818716,0.002679548,5.11,0,0
-0.002056342,-0.005648398000000001,9.061459999999997e-05,0.00203746826,0.0017331360000000004,5.111,0,0
0.0005481360000000003,-0.005465315000000001,0.0007669278000000002,0.0025093940600000005,0.001818138,5.112,0,0
0.003659148,-0.003561651,0.0016169798,0.00223981206,0.000754994,5.113,0,0
0.004643824,-0.0030245050000000007,0.0010641212,0.00019842405999999997,-0.0025196059999999998,5.114,0,0
0.0041955314,-0.0010569810000000005,-0.00027755880000000007,-0.0013380733400000001,-0.003687964,5.115,0,0
0.0038072132,0.002003361,-0.00010452080000000004,-0.0008703535999999999,-0.001863548,5.116,0,0
0.0018873566000000002,0.0013407319999999999,0.00031820599999999997,-0.0012664614,-0.0024313020000000006,5.117,0,0
0.00022106960000000002,0.0019938924000000003,-0.0006893660000000001,-0.0016956474,-0.0020736960000000003,5.118,0,0
0.0010653576,0.0060119444,-2.4571999999999994e-05,0.00026279860000000027,0.001232804,5.119,0,0
0.0013496082,0.0061165303999999995,0.001469694,0.0005349046000000003,0.0004064399999999999,5.12,0,0
-0.00012168159999999999,0.0032954724,0.000333264,-0.0010123213999999998,-0.001956432,5.121,0,0
-0.001271323,0.0024260223999999996,-0.0004535620000000001,-0.0005906313999999998,-0.0005224680000000001,5.122,0,0
-0.002021334,0.00027569799999999957,0.00018956699999999997,-1.3120599999999808e-05,0.00026238400000000005,5.123,0,0
-0.0041154500000000005,-0.005785222,-0.000942999,-0.0012532186000000002,-0.0015465259999999999,5.124,0,0
-0.005051678,-0.007578247999999999,-0.002835781,-0.0006863612000000001,0.0001875659999999999,5.125,0,0
-0.002920888,-0.003572334,-0.0018968470000000003,0.0025953108,0.004244982,5.126,0,0
-0.0006137499999999999,-0.0011538219999999994,-0.0007624370000000001,0.0038493768,0.0044418439999999995,5.127,0,0
0.0009741220000000002,0.0003992119999999999,-0.0009243880000000002,0.00336086,0.0028549079999999998,5.128,0,0
0.0025111340000000004,0.0015433919999999998,0.0003449599999999999,0.0033066259999999996,0.0020771860000000004,5.129,0,0
0.002807362,-0.001501660000000001,0.0017462180000000001,0.0018092439999999998,-0.0003290080000000002,5.13,0,0
0.0012575580000000002,-0.0060948800000000004,0.0014025860000000002,-0.001391932,-0.0037846160000000006,5.131,0,0
-0.0005185539999999998,-0.007156207400000001,0.0007951106000000001,-0.003246002,-0.0038661119999999997,5.132,0,0
-0.0016845500000000002,-0.006458869400000001,0.0015875366000000003,-0.0026130886800000003,-0.0021409660000000002,5.133,0,0
-0.0027322460000000007,-0.0058648854,0.0008863726000000003,-0.0028144406800000004,-0.002180486,5.134,0,0
-0.001906782,-0.00018070539999999946,-0.0007839533999999998,-0.0016273366800000004,0.0009245559999999998,5.135,0,0
0.00038679799999999983,0.006488074599999999,3.306260000000025e-05,0.0015631393199999999,0.005350584,5.136,0,0
0.001446914,0.007694326,0.0004675860000000003,0.00189638432,0.00460529,5.137,0,0
0.002580506,0.009166024,-0.0008221299999999998,0.0017173364,0.0041459178,5.138,0,0
0.004191652,0.012747020000000001,-0.0004868739999999998,0.0037773104,0.0061836558,5.139,0,0
0.004221224,0.0124517,0.0006318282,0.0046001744,0.0048873418,5.14,0,0
0.0033362120000000003,0.009544568000000002,-0.0004985498,0.0036906444000000004,0.0021440338000000003,5.141,0,0
0.00383999,0.011486798000000001,-0.0015519678,0.0057624614,0.0043307138,5.142,0,0
0.004482158,0.013830788,-7.144380000000008e-05,0.008361710000000001,0.006578142,5.143,0,0
0.0034102312,0.01217108,0.0010291682,0.007429758000000001,0.004047686,5.144,0,0
0.0021956292,0.010824602,0.0010954764,0.005668722,0.0016320959999999998,5.145,0,0
0.0009851391999999997,0.008723824000000002,0.0022211404,0.004114422,5.118199999999988e-05,5.146,0,0
-0.0021763508,0.002247564,0.0031839764,0.0008824359999999999,-0.003612436,5.147,0,0
-0.006233940800000001,-0.004808016,0.0025469916,-0.003099978,-0.007299404000000001,5.148,0,0
-0.007713508,-0.009084008000000001,0.0018471955999999998,-0.004897422,-0.007207254000000001,5.149,0,0
-0.007719261999999999,-0.01460983,0.0022138732,-0.005886444000000001,-0.0064608040000000005,5.15,0,0
-0.007474422,-0.01771646,0.0007473392000000001,-0.00735593,-0.0065948560000000005,5.151,0,0
-0.00349777,-0.013131663999999998,-0.00036799079999999995,-0.0060919984,-0.0035153740000000004,5.152,0,0
0.0016146299999999995,-0.008997203999999998,0.000872844,-0.004415062799999999,-0.0016111620000000004,5.153,0,0
0.0033189059999999995,-0.008065577999999999,0.00026837799999999994,-0.0054518888000000005,-0.0031840419999999998,5.154,0,0
0.004318188,-0.0036356700000000006,-0.0009460900000000001,-0.0050451648,-0.002487102,5.155,0,0
0.00491115,0.00039626600000000026,8.33439999999999e-05,-0.0031143672000000003,-0.0007895759999999998,5.156,0,0
0.0027459719999999997,-0.0013057679999999997,0.00037092999999999995,-0.0030994582,-0.0020633184000000003,5.157,0,0
0.000382472,-0.00254146,-0.001821948,-0.0028814518000000004,-0.0018150064000000002,5.158,0,0
0.0005473979999999999,0.0009316880000000002,-0.0021107260000000003,0.0006884302,0.0030359736,5.159,0,0
0.0011652440000000002,0.002666718,-0.0006895040000000001,0.0035252382,0.0050790236,5.16,0,0
0.0008222336000000001,0.0005745800000000003,-0.0007055980000000001,0.0031529602000000003,0.003311705600000001,5.161,0,0
0.0006602116,-0.0003676879999999995,-0.0003806615999999999,0.0028454756,0.0022471820000000003,5.162,0,0
-0.00022681039999999984,-0.0019004199999999997,0.0006789764000000001,0.0020115576000000004,0.0002563559999999997,5.163,0,0
-0.0027888544,-0.006566114,0.0005377544000000002,-0.0008751284000000003,-0.0036314560000000004,5.164,0,0
-0.0053865344,-0.009804964,-0.0008907416,-0.0037802704000000006,-0.006093777999999999,5.165,0,0
-0.005802548000000001,-0.008762638,-0.0017782255999999998,-0.004355516,-0.005166696,5.166,0,0
-0.006215846,-0.00906535,-0.002321244,-0.005015004000000001,-0.00513084,5.167,0,0
-0.007013518000000001,-0.008522256,-0.0039086500000000005,-0.005692526,-0.004266258,5.168,0,0
-0.004464002,-0.002476456,-0.003836368,-0.0032015299999999993,-0.00011744599999999935,5.169,0,0
-0.002248472,0.0001294719999999995,-0.002435304,-0.0016180160000000001,0.0012769980000000005,5.17,0,0
-0.0028341779999999997,-0.0008046040000000003,-0.002676328,-0.002199256,0.00038096600000000016,5.171,0,0
-0.00158359,0.00224396,-0.00263136,-0.00116741,0.0020509480000000004,5.172,0,0
0.00137641,0.004322426,-0.0009365579999999999,3.598539999999996e-05,0.0029765940000000004,5.173,0,0
0.0021567160000000004,0.001875902,-0.000422953,-0.0009477033200000001,0.000646964,5.174,0,0
0.002806494,0.0026359540000000002,-0.001384409,-0.00052783932,0.0012112,5.175,0,0
0.0055567640000000005,0.007147006000000001,0.00037967100000000004,0.0030067026800000003,0.004619476,5.176,0,0
0.0062603220000000005,0.007048894,0.0027299670000000002,0.00447176868,0.0044992,5.177,0,0
0.004875478600000001,0.004077137999999999,0.0029123410000000006,0.0034982812800000004,0.002489092,5.178,0,0
0.004419350600000001,0.002514512000000001,0.003600442,0.0029955440000000006,0.0016644760000000007,5.179,0,0
0.004217718600000001,0.000381816,0.004558586,0.0019378420000000006,-0.0003567959999999997,5.18,0,0
0.0032750486000000002,-0.0020024280000000005,0.0033924000000000003,-0.0008167179999999998,-0.003690702,5.181,0,0
0.0025590886,-0.002685496,0.0015269528,-0.0024721435999999998,-0.004844038,5.182,0,0
0.0021529479999999996,-0.001963612,0.0014524448,-0.0014390534000000002,-0.0036286639999999998,5.183,0,0
-0.0005634359999999996,-0.0024208360000000004,0.00042829080000000006,-0.0014949914,-0.003887828,5.184,0,0
-0.003471548,-0.0017293576000000001,-0.0014540892,-0.0009576654,-0.002210118,5.185,0,0
-0.004337222399999999,-6.0253600000000334e-05,-0.0010711840000000002,0.0009832106,0.0013240080000000002,5.186,0,0
-0.0058201343999999995,-0.0008964016000000002,-0.0010187064,0.0005170001999999998,0.0008230840000000004,5.187,0,0
-0.0068098284,-0.00024187960000000017,-0.0028540104000000003,-0.00023428200000000026,0.0007563180000000004,5.188,0,0
-0.005222480400000001,0.0020684364,-0.0032900184,0.000489841,0.002981572000000001,5.189,0,0
-0.0034573604,0.001016496,-0.0023469744,7.000999999999806e-06,0.002503804,5.19,0,0
-0.0021659100000000005,-0.0012848658,-0.0027794516000000003,-0.00137555148,0.0008314140000000004,5.191,0,0
0.0013284820000000002,0.0013537362,-0.002853444,0.0002687305199999999,0.0038000600000000005,5.192,0,0
0.004911334,0.0040328102000000005,-0.000374746,0.0030696265200000003,0.006618341999999999,5.193,0,0
0.0054684638,0.0022451602,0.001708246,0.00341900352,0.004970970000000001,5.194,0,0
0.0050491298000000006,0.0012586681999999997,0.0022600680000000005,0.00312037952,0.0035927019999999997,5.195,0,0
0.004012893599999999,0.00037191199999999985,0.003109192,0.0032544030000000003,0.0024615459999999994,5.196,0,0
0.0018934457999999997,-0.002293732,0.0033226602000000004,0.0018944530000000004,-0.0007470260000000005,5.197,0,0
0.0008733958000000002,-0.0030134079999999995,0.0023577068,-0.0006128490000000002,-0.004011116,5.198,0,0
0.002289818,0.0005991,0.0016767488,-0.0011524638000000001,-0.0038630732000000004,5.199,0,0
0.004393126000000001,0.004217988000000001,0.0020062508,-0.0007350458,-0.0032628972000000003,5.2,0,0
0.00447155,0.0048917017999999994,0.0013355326000000002,-0.0017587648000000002,-0.0038770532,5.201,0,0
0.004351521600000001,0.0067441978,0.0009083964,-0.0007990248000000002,-0.0008237711999999999,5.202,0,0
0.0031192425999999997,0.0062209218,0.0026657358,0.0013016552,0.0019219348000000002,5.203,0,0
-0.0017910274,0.0008529217999999998,0.0024956738,0.00032635599999999987,0.0005594059999999999,5.204,0,0
-0.0056996814,-0.0013554462000000002,-0.0003406702,-0.0004256440000000001,0.0009012322000000003,5.205,0,0
-0.0062746072,-0.00018921800000000033,-0.0019190840000000002,0.0005171498000000001,0.0023809902000000004,5.206,0,0
-0.007144999,-0.002010434,-0.0028027040000000005,-0.0007354862000000002,-0.0001260797999999998,5.207,0,0
-0.0071471882,-0.003290056,-0.005733996000000001,-0.0029379042000000004,-0.0026472838000000005,5.208,0,0
-0.0030640762000000003,0.00048819000000000005,-0.006412882000000001,-0.0011189602,9.945620000000022e-05,5.209,0,0
0.0002045418000000002,0.001594644,-0.0032269460000000005,0.0016595897999999998,0.0017476760000000005,5.21,0,0
0.00013035980000000014,-0.0011294380000000002,-0.0012598340000000007,0.00214482,9.874400000000022e-05,5.211,0,0
-0.0005751582000000002,-0.0021620640000000004,-0.00033852800000000005,0.0026104760000000005,0.0002083920000000005,5.212,0,0
-0.0018528100000000003,-0.0038454500000000003,0.00100255,0.0031623046000000005,0.0004179700000000003,5.213,0,0
-0.004021416,-0.007255796,0.0010528119999999998,0.0023151214000000004,-0.001655644,5.214,0,0
-0.0047748248,-0.007341358000000001,-0.00022707000000000003,0.00034473300000000006,-0.0026494280000000005,5.215,0,0
-0.0019616808,-0.0034422200000000006,2.1137999999999973e-05,3.873899999999998e-05,-0.00053444,5.216,0,0
0.0007706952000000001,-0.002281526,0.001334174,9.794999999999997e-06,-0.0004703060000000001,5.217,0,0
0.0020453432000000003,-0.00041525199999999985,0.0007642980000000001,-0.0006524716,-0.0007121380000000001,5.218,0,0
0.0055225572,0.006921188000000002,0.00121506,0.0003932915999999999,0.0021500100000000004,5.219,0,0
0.007662808,0.009784018000000002,0.00296571,0.0002665265999999999,0.0015757210000000004,5.22,0,0
0.00502336,0.007036518,0.0023531902000000003,-0.0017580774,-0.0014625909999999996,5.221,0,0
0.003263022,0.007484512600000001,0.0015203102,-0.0021589654,-0.0010300209999999997,5.222,0,0
0.003336986799999999,0.0071826406,0.0025308722,-0.0019176333999999999,-0.0006139089999999997,5.223,0,0
0.0010616388000000002,0.0015661806,0.0023374868,-0.003064917,-0.003007737,5.224,0,0
-0.0009461452000000001,-0.0010202534000000002,0.0002807228,-0.0023611295999999998,-0.0019452319999999999,5.225,0,0
0.0006164848000000003,0.0018318866000000002,0.00020240739999999996,0.0016637164,0.003566668,5.226,0,0
0.0023256588000000003,0.002318886,0.0003951554,0.004134702400000001,0.00567083,5.227,0,0
0.0024585825000000006,0.0011272139999999999,-0.0007065526,0.004084144400000001,0.004834151999999999,5.228,0,0
0.0027918699000000005,0.000614004,-0.0008251832000000001,0.0037232339999999997,0.004770155999999999,5.229,0,0
0.0021026419000000005,-0.002356902,-0.0006714292,0.0021726299999999996,0.0027000579999999987,5.23,0,0
-0.0008129181,-0.006944942000000001,-0.0015147100000000003,-0.0008507120000000002,-0.0017098200000000003,5.231,0,0
-0.0030280561,-0.008114856,-0.00257789,-0.0023575500000000004,-0.0033990860000000004,5.232,0,0
-0.0029093374,-0.005538942000000001,-0.0019914000000000004,-0.0016013680000000004,-0.0025212362,5.233,0,0
-0.0034959528,-0.004687102,-0.0015471320000000003,-0.0021420140000000002,-0.0043501922,5.234,0,0
-0.0035625588,-0.0013760600000000003,-0.0017966440000000002,-0.0013730200000000002,-0.0030856226,5.235,0,0
-0.0011982448,0.00438714,-3.0069999999999988e-05,0.0017249620000000005,0.0018519954,5.236,0,0
-0.00043825879999999986,0.00422218,0.0016185420000000002,0.0016592300000000003,0.0016322794,5.237,0,0
-0.00136444,0.002817946,0.0006352760000000002,0.00014830000000000008,0.0006949516000000001,5.238,0,0
-0.0004874620000000001,0.005644456,0.00049798,0.0007079320000000002,0.0032589996,5.239,0,0
0.00018403259999999998,0.005695952,0.001910362,0.00017927799999999995,0.0019410000000000002,5.24,0,0
