bandpass 1,bandpass 2,bandpass 3,bandpass 4,bandpass 5,time,onset,mark
0.00014102500000000003,-0.004453674,-0.0009195386000000001,-0.00012096180000000005,0.001036958,2.828,0,0
-6.595699999999995e-05,-0.003505614,-0.0024701226,0.00033817619999999994,0.002077734,2.829,0,0
0.0007676130000000001,-0.0005755740000000001,-0.0011299646,0.0025878961999999998,0.003861278,2.83,0,0
-0.000388035,-0.0013849720000000002,-0.0011750964000000002,0.0015903299999999996,0.0006829799999999999,2.831,0,0
-0.0013592600000000002,0.00019789499999999966,-0.0032161964000000003,-0.00024123400000000076,-0.0009943760000000002,2.832,0,0
-0.000439264,0.004123043000000001,-0.0026301224,7.81999999999942e-06,-0.00010180420000000025,2.833,0,0
4.743999999999999e-05,0.003294182,-0.0016553423999999999,-0.0013406520000000006,-0.0020153022,2.834,0,0
-0.000978572,0.0007623999999999999,-0.0037880244,-0.00434525,-0.004437560200000001,2.835,0,0
-0.000775122,0.003773528,-0.004588590000000001,-0.00290859,-0.0022799542000000003,2.836,0,0
-0.0002884480000000001,0.005918649,-0.0024602460000000006,0.00046932400000000035,0.00016464379999999996,2.837,0,0
-0.001922246,0.002525039,-0.001413134,0.0010652280000000003,-0.00017954800000000002,2.838,0,0
-0.00321673,3.141999999999945e-05,-0.001460546,0.001618408,-7.338800000000008e-05,2.839,0,0
-0.0031572732,-0.002272314,-0.00047555,0.0024884236000000002,0.000277064,2.84,0,0
-0.0031956672,-0.0071004580000000005,0.00047908000000000005,0.0013250775999999998,-0.001146756,2.841,0,0
-0.0030888152,-0.010115706000000002,-4.576799999999996e-05,-0.0007056904000000002,-0.00257490224,2.842,0,0
-0.0016073382,-0.006687244,-0.000787012,-0.0006526444000000001,-0.0009290042399999997,2.843,0,0
-0.0004563683999999999,-0.002649992,-0.00012717160000000008,-0.0005606444,0.0001328077599999998,2.844,0,0
-0.0010979312,0.00023116599999999977,-0.0006934676000000001,-0.001191182,-3.934424000000009e-05,2.845,0,0
-0.0008422206000000001,0.006861546,-0.0018699436000000002,0.0010612080000000001,0.0027707617600000005,2.846,0,0
-0.00011385059999999996,0.010167314,-0.0012821636,0.00255256,0.0036210360000000002,2.847,0,0
-0.0010476596,0.007328286000000001,-0.0022112496000000004,0.0003365419999999998,0.0002177720000000002,2.848,0,0
-0.0006759434000000001,0.006801052000000001,-0.004270854000000001,-0.0004352280000000004,-0.0007579459999999998,2.849,0,0
0.0020501006000000002,0.007808964000000001,-0.004184322,2.8858599999999656e-05,-0.00041890599999999965,2.85,0,0
0.003180718,0.004180534200000001,-0.0032813072000000007,-0.0024739654,-0.0032401700000000005,2.851,0,0
0.0026498220000000005,0.0013089062,-0.0032356932000000005,-0.0043260213999999995,-0.00457545,2.852,0,0
0.0036175652,0.0028480301999999997,-0.0007732952000000003,-0.0010769453999999999,-0.001087726,2.853,0,0
0.0039380432000000005,-0.0004082678000000002,0.0032201447999999997,0.0019629786,0.0006292819999999999,2.854,0,0
0.0019832872,-0.006983081800000001,0.0051310508,0.0018751053999999999,-0.000281814,2.855,0,0
0.0010320226,-0.009118032000000002,0.006504162,0.0024055754,0.00042807400000000013,2.856,0,0
0.0015232886000000002,-0.009940502,0.007756764,0.0027907342,0.0006002140000000001,2.857,0,0
0.0012025564,-0.010826681999999999,0.0073688220000000006,0.0006248562000000001,-0.0009038099999999999,2.858,0,0
0.00030736639999999997,-0.007217246000000001,0.005657172,-0.0016361618000000002,-0.0016139820000000001,2.859,0,0
0.00042356260000000004,-0.0004623660000000001,0.0049711220000000006,-0.0009663972,-0.00010504399999999988,2.86,0,0
0.00015371920000000004,0.002102212,0.004276328,-0.0010320012000000001,-0.00022581999999999995,2.861,0,0
-0.0007787088,0.00462666,0.0016674719999999997,-0.0015816200000000002,8.486306000000008e-05,2.862,0,0
-0.0002120518,0.009647424,0.0005354919999999998,0.0012780260000000002,0.0031725630600000004,2.863,0,0
-0.0005371018,0.0080966438,0.001043758,0.002385132,0.0029791878600000004,2.864,0,0
-0.001639574,0.0031582437999999997,-0.000521214,0.00038476599999999993,0.00118460786,2.865,0,0
-0.000283576,0.0022813678,-0.0021833060000000003,0.0004238479999999998,0.0019130198600000004,2.866,0,0
0.001098962,-7.872200000000199e-06,-0.001581762,0.000804866,0.0012199068000000005,2.867,0,0
0.0005886825999999999,-0.0060171982,-0.00236132,-0.001919418,-0.0022742772,2.868,0,0
0.0009434433999999999,-0.006591568,-0.005106106,-0.0027918860000000004,-0.001655438,2.869,0,0
0.0023651894000000003,-0.0019530280000000005,-0.005395024,0.00020165000000000005,0.0020119940000000005,2.87,0,0
0.0014617514,-0.0009068720000000005,-0.0044624190000000005,0.0012418080000000003,0.002296512,2.871,0,0
-0.0002487486,-0.0018783620000000002,-0.004916193,0.0007549660000000001,0.0013727380000000003,2.872,1,1
-0.0006660972,-0.0016011080000000002,-0.004200767,0.0012114260000000005,0.0011692940000000004,2.873,0,0
-0.001325486,-0.00279151,-0.0020327974,0.0007022960000000001,-0.0005156079999999999,2.874,0,0
-0.002023404,-0.0051183520000000005,-0.0009081494,-0.0013763260000000002,-0.0031475900000000005,2.875,0,0
-0.0013981180000000003,-0.0037856700000000005,7.338960000000019e-05,-0.0020930397599999997,-0.002845508,2.876,0,0
4.688599999999978e-05,-0.00024222399999999965,0.0028446576,-0.0008577617600000003,-0.00024532000000000026,2.877,0,0
8.993599999999988e-05,0.00041825800000000024,0.004632423599999999,-0.0012628877600000003,0.00056687,2.878,0,0
0.0007268714,0.0037299960000000006,0.0043858768,-0.0005540159600000001,0.002497216,2.879,0,0
0.0026069414000000008,0.007848818,0.0051335847999999995,0.00219501804,0.005086598,2.88,0,0
0.0026712954000000003,0.005373326000000001,0.0049196628,0.0015385697999999999,0.0033571600000000005,2.881,0,0
0.0020488854,0.0036132560000000005,0.0021232348,-0.0004543062000000001,0.00094564,2.882,0,0
0.0019178374000000003,0.005013206000000001,0.0005521368000000001,-1.641220000000033e-05,0.0005369619999999998,2.883,0,0
0.0009283180000000002,0.0017695740000000003,-0.00020539599999999994,-0.0009072280000000003,-0.0013306920000000003,2.884,0,0
-0.001398776,-0.00382069,-0.0034508860000000002,-0.003602716,-0.0038552899999999995,2.885,0,0
-0.002717572,-0.0031848474,-0.006476428,-0.0018164660000000005,-0.001471632,2.886,0,0
-0.0027990958000000004,-0.0015185094,-0.005999738,0.0022174580000000003,0.0021218000000000005,2.887,0,0
-0.0035712798000000004,-0.0033768894000000002,-0.004817526,0.0030156560000000002,0.0023246380000000004,2.888,0,0
-0.0037070858,-0.0027834614000000002,-0.0035486380000000002,0.00305937,0.0024784140000000004,2.889,0,0
-0.0026961278000000003,-0.0006898921999999997,-2.545800000000012e-05,0.00326735,0.0020700220000000004,2.89,0,0
-0.00229404126,-0.0018080748,0.0034773700000000005,0.000851068,-0.001053356,2.891,0,0
-0.00210000466,-0.0032568142,0.004689656,-0.0027839380000000006,-0.004355642000000001,2.892,0,0
0.00019688334000000007,-0.00011601219999999982,0.005392962,-0.0033691454800000007,-0.004163324800000001,2.893,0,0
0.00241687534,0.0029404398,0.0068513359999999995,-0.0029890954800000005,-0.0037483588000000005,2.894,0,0
0.00163339534,0.0029888006,0.0058103468,-0.00379697548,-0.0042149948,2.895,0,0
0.0014837316,0.006771892600000001,0.0034418368,-0.0011314154800000002,-0.0010483748000000006,2.896,0,0
0.0021486928,0.009542418,0.0022222408,0.0018376225200000002,0.0012198412,2.897,0,0
-0.00020422319999999997,0.005940204,-0.0011679832000000001,0.0005111760000000003,-0.0005351120000000001,2.898,0,0
-0.0030826752,0.003459096000000001,-0.0053755852000000005,6.418400000000022e-05,-0.00023631600000000003,2.899,0,0
-0.0033618052,0.00037561000000000105,-0.006751662,0.0012876797999999997,0.0015380659999999998,2.9,0,0
-0.0034003722,-0.0070339899999999995,-0.006956748,-0.0004645521999999999,-0.00042677599999999997,2.901,0,0
-0.0034272962,-0.010518422,-0.007786626,-0.0023509708000000002,-0.001535818,2.902,0,0
-0.0005289301999999998,-0.006946108,-0.006974719999999999,0.0003890012000000002,0.002028698,2.903,0,0
0.0026906158,-0.004407216,-0.00524577,0.0028249852000000004,0.003420816,2.904,0,0
0.0037478138000000003,-0.0021602399999999995,-0.005487814000000001,0.0025918942000000005,0.0020413,2.905,0,0
0.003922064,0.0010570100000000002,-0.005045074000000001,0.0026682502000000006,0.002066562,2.906,0,0
0.0033094678000000002,-0.0005164980000000002,-0.001445922,0.0024574128000000002,0.0014732479999999997,2.907,0,0
0.0016374282,-0.004778040000000001,0.0025338319999999998,0.0002962688,-0.0010179540000000002,2.908,0,0
9.378379999999998e-05,-0.0066421632000000005,0.005689782000000001,-0.0018572372000000001,-0.0024854934,2.909,0,0
0.0003017218,-0.0040183292,0.010110852,-0.0016908236000000001,-0.0015540474,2.91,0,0
0.000502175,-0.0016626412,0.012434976000000002,-0.0025147296,-0.0020029914,2.911,0,0
0.00018262159999999999,0.0018035148,0.00804206,-0.0033887356,-0.0019803014,2.912,0,0
0.0010285612000000002,0.009231634800000001,0.0025339199999999994,-0.0009662616000000001,0.0008432186,2.913,0,0
0.0013062146000000002,0.011834224,-0.001061448,-0.0001761216,0.0006296260000000001,2.914,0,0
-0.0005073654000000001,0.008647068,-0.006047982,-0.0024244920000000003,-0.0017885000000000004,2.915,0,0
-0.0026654246000000006,0.006267056000000001,-0.008465052,-0.002325614,-0.0011919780000000004,2.916,0,0
-0.0038600050000000006,0.0031308000000000004,-0.006131650000000001,-0.001698166,-0.0008431546000000002,2.917,0,0
-0.004605954400000001,-0.003935,-0.003405934,-0.0035353044,-0.0030211764,2.918,0,0
-0.0037151594000000006,-0.0071303700000000005,-0.0010864119999999993,-0.0028503024000000004,-0.0014852664000000002,2.919,0,0
-0.00044775540000000034,-0.0038133240000000003,0.0031397820000000002,0.0019114775999999997,0.0035143736000000005,2.92,0,0
0.0024542626,-0.00186697,0.006728916,0.004980327600000001,0.0048668976000000004,2.921,0,0
0.0037396998000000002,-0.0011216,0.007984056000000002,0.005542241400000001,0.0040889381999999995,2.922,0,0
0.0044184972,0.0007486697999999999,0.00897918,0.005859906000000001,0.0040838654,2.923,0,0
0.0037478312000000006,-0.00040767419999999987,0.008508796,0.004349378000000001,0.0021510153999999997,2.924,0,0
0.0018715554,-0.0047898142,0.005854296,0.0012956040000000005,-0.0010563646000000002,2.925,0,0
0.0015815254000000002,-0.005976390200000001,0.0024711,-0.000293636,-0.0017819386000000007,2.926,0,0
0.0024754042,-0.0044312202000000005,0.0003312880000000002,0.0002572522,-0.0005774066000000002,2.927,0,0
0.0020015064000000003,-0.005027420000000001,-0.0015918899999999999,-0.00044240800000000004,-0.0009894960000000003,2.928,0,0
0.0019193524000000002,-0.002023222,-0.003760586,0.00026595800000000006,0.0006864160000000001,2.929,0,0
0.0029889382,0.004099518000000001,-0.002628976,0.003096352,0.004044496000000001,2.93,0,0
0.0023974886000000003,0.0046307286,-0.0003632940000000001,0.0018918680000000001,0.00252765,2.931,0,0
0.00027451059999999993,0.0037682406,-2.0147999999998913e-06,-0.0006839520000000003,0.00019167000000000012,2.932,0,0
-0.0013858256,0.0057926686,0.0008602380000000001,-0.0008295020000000001,0.0005193546000000004,2.933,0,0
-0.0030642596,0.004768104600000001,0.0022696765999999998,-0.0022360160000000004,-0.0011069533999999996,2.934,0,0
-0.005547771600000001,0.0011258986000000002,0.0009907346,-0.005648856,-0.0045386774,2.935,0,0
-0.006396440000000001,0.0018908660000000002,-0.0010637214,-0.0047690592,-0.0027081354,2.936,0,0
-0.004670130000000001,0.0034035440000000005,-0.0006399386,-0.0007717352,0.0008249786,2.937,0,0
-0.0029287342,0.000997002,-0.0012611114,0.0005194228000000001,0.000262414,2.938,0,0
-0.0015878806,-0.000876244,-0.0031439280000000003,0.0009648608000000001,-0.000143468,2.939,0,0
7.087940000000012e-05,-0.0012578972,-0.0032419320000000003,0.0021330764000000004,-7.984399999999998e-05,2.94,0,0
0.0006930204000000001,-0.0032327152000000002,-0.0030656940000000003,0.0012924176000000003,-0.0018377480000000002,2.941,0,0
-0.0002490816,-0.0047022852,-0.004661242,-0.0013375104000000002,-0.0035710280000000004,2.942,0,0
-0.0007213334,-0.0023509152000000004,-0.005467336000000001,-0.0017152004000000002,-0.002273656,2.943,0,0
-0.000789619,0.0006001788000000001,-0.003933024,-0.00098971758,-0.000882788,2.944,0,0
-0.002079615,0.00123025,-0.004688744,-0.00158303318,-0.0008169280000000002,2.945,0,0
-0.002218248,0.004485152000000001,-0.006236284,0.0006245448200000002,0.001975442,2.946,0,0
-0.0006881999999999999,0.008041192,-0.004236234,0.00356394882,0.0036400960000000007,2.947,0,0
-0.0009006819999999999,0.0048534020000000015,-0.0025585820000000002,0.0023284568199999998,0.0010478280000000002,2.948,0,0
-0.002463308,-2.8265999999999448e-05,-0.0027856240000000004,0.0012573040000000003,-0.0004513739999999996,2.949,0,0
-0.002958062,-0.002611338,-0.0007821179999999999,0.0015872171999999996,-0.00020086279999999946,2.95,0,0
-0.002888852,-0.006204964,0.0017877080000000003,-0.0010123388000000003,-0.0024748727999999998,2.951,0,0
-0.0018309640000000005,-0.00837232,0.001511722,-0.003992788800000001,-0.0040325326,2.952,0,0
0.0018281880000000001,-0.002919836,0.0023198340000000002,-0.0017267328,-0.0003271146000000005,2.953,0,0
0.005774306,0.0033190440000000006,0.005154548,0.0014930572000000002,0.0026540953999999997,2.954,0,0
0.008181438000000001,0.0054513354,0.005889418,0.001961892,0.0020883861999999994,2.955,0,0
0.009136860000000002,0.0075776674,0.0051702398,0.0030004838000000002,0.0020179321999999997,2.956,0,0
0.007633200000000001,0.007255843400000001,0.0043781798000000005,0.0041372218,0.0018602619999999995,2.957,0,0
0.003860242,0.0031754254,0.0019757537999999996,0.0029588486000000002,-0.0005031000000000001,2.958,0,0
0.000423374,0.00012427340000000008,-0.0015922282,0.0012528326000000002,-0.0024781157999999998,2.959,0,0
-0.0006935064000000002,0.000866766,-0.0031119302,0.0021447246,-0.0010552198,2.96,0,0
-0.0014019592400000003,-6.548999999999997e-05,-0.0021392,0.0025374188000000003,-0.00042369979999999993,2.961,0,0
-0.0025478652400000006,-0.0015225400000000002,-0.0018559418,0.0015842908000000002,-0.0004147718,2.962,0,0
-0.0019315876800000001,0.002086318,-0.0005189904000000001,0.003425118,0.0027352122000000004,2.963,0,0
-0.00129595968,0.003549162,0.0026898896,0.004237478,0.0032610520000000004,2.964,0,0
-0.00225196928,0.0006941979999999996,0.0036459456,0.001459022,8.165399999999958e-05,2.965,0,0
-0.0015364524400000006,0.001330374,0.0031935816000000002,-3.00140000000003e-05,-0.00041663400000000047,2.966,0,0
0.0003537755599999998,0.0020044919999999996,0.0043288334,-0.0012446660000000002,-0.0005317079999999999,2.967,0,0
0.0005977379999999998,-0.0024742600000000003,0.004024955,-0.0055096780000000005,-0.00423399,2.968,0,0
0.0009361279999999998,-0.0043030559999999995,-7.40430000000002e-05,-0.008433248,-0.005171572000000001,2.969,0,0
0.0027905499999999997,-0.0017524080000000002,-0.0024939690000000004,-0.0067594308,-0.0014032680000000003,2.97,0,0
0.0032861600000000006,-0.002484376,-0.001557767,-0.004951574799999999,-1.7369999999999842e-05,2.971,0,0
0.0017772620000000002,-0.004392204,-0.0008854710000000005,-0.0043790128,-0.00039046999999999997,2.972,0,0
0.0008455720000000003,-0.0047094780000000004,-0.0002869019999999999,-0.0028396068,0.0008571495000000001,2.973,0,0
0.0002986380000000004,-0.006668634000000001,0.0016306976,-0.0018160428,0.0009144095000000003,2.974,0,0
-0.0009961879999999998,-0.009071560000000001,0.0023703036000000005,-0.0029747640000000004,-0.0011611325,2.975,0,0
-0.0021719580000000003,-0.008372900400000001,-3.338439999999994e-05,-0.0040420000000000005,-0.0016459664999999997,2.976,0,0
-0.001711796,-0.005038984400000001,-0.0020188224,-0.0027963458000000003,-4.8196500000000086e-05,2.977,0,0
-0.0009983416,-0.004344440400000001,-0.0032128124,-0.0026456798,-0.0004639120000000001,2.978,0,0
-0.00010107859999999996,-0.0017518034,-0.005625092,-0.0020213578,0.0006986919999999999,2.979,0,0
0.0018190854000000002,0.0050177346,-0.006008832,0.0015285422,0.00411943,2.98,0,0
0.0018729212000000001,0.006533107,-0.004075368,0.0019493404,0.002547512,2.981,0,0
-7.312279999999996e-05,0.004376565,-0.003515008,-0.00012800780000000013,-0.0005847700000000001,2.982,0,0
-0.0017682892000000002,0.004602811,-0.0025815822000000007,-3.7977999999999927e-06,-0.0007809560000000001,2.983,0,0
-0.0037617502000000004,0.0017663339999999996,0.0006252638000000002,-0.0008901057999999999,-0.0028092800000000004,2.984,0,0
-0.006588328200000001,-0.006087446,0.0022081598,-0.0046824118,-0.006563826000000001,2.985,0,0
-0.0071597760000000005,-0.008312342,0.0013398647600000003,-0.005022012000000001,-0.0049741640000000005,2.986,0,0
-0.004330854,-0.005357804,0.0017202327600000004,-0.00134915,-0.0008501100000000007,2.987,0,0
-0.0011706460000000002,-0.004064302,0.00233244296,-0.00012737800000000004,-0.0002045254000000005,2.988,0,0
0.0006699958,-0.002519136,0.00158085976,0.0001295020000000001,0.0003928345999999999,2.989,0,0
0.0017634217999999999,-5.598199999999967e-05,0.0018428057600000003,0.001898448,0.0020463286000000002,2.99,0,0
0.0021037186000000003,0.000885736,0.0021217588000000003,0.0022703156000000004,0.0015231418,2.991,0,0
0.0011649326000000002,0.0003769700000000001,0.0009414208,0.0011420976000000001,2.471979999999998e-05,2.992,0,0
0.0006242665999999998,0.0020550840000000004,-1.547819999999999e-05,0.0018822716000000002,0.0011565212,2.993,0,0
0.0013633667999999998,0.004477282,0.0001840896,0.0035490656000000003,0.0026461372,2.994,0,0
0.0013010828000000001,0.004782026,-0.0008624024000000001,0.0030850856,0.0018406832000000001,2.995,0,0
0.0015920987999999997,0.007375828000000001,-0.0025323624,0.004503826000000001,0.004033490000000001,2.996,0,0
0.0020249848,0.009737862,-0.0015332123999999996,0.006622326,0.0064312580000000005,2.997,0,0
7.537280000000004e-05,0.006199122,-0.0011233673999999998,0.0044634,0.003078136,2.998,0,0
-0.0010764932,0.004005774000000001,-0.002065014,0.0021530819999999997,0.000453436,2.999,0,0
-0.0006915203999999999,0.004511030000000001,-0.0008336219999999997,0.0016308799999999997,0.00010980599999999994,3.0,0,0
-0.0021239612,-0.0003381660000000002,0.0016093300000000002,-0.0009429120000000002,-0.00316302,3.001,0,0
-0.0034243752,-0.005068714,0.0017706980000000002,-0.0038956900000000007,-0.0058212136400000005,3.002,0,0
-0.0016370792,-0.0019603180000000004,0.001215528,-0.0017139880000000003,-0.0019711876399999997,3.003,0,0
0.00015581679999999987,0.000611992,0.0026006600000000003,0.001955144,0.0017616543600000004,3.004,0,0
0.0006917940000000001,-0.0012737460000000003,0.0028202360000000003,0.00276805,0.0017675063600000006,3.005,0,0
0.0019381716000000005,-0.0011353360000000002,0.0018228854000000004,0.0032817700000000007,0.0025895643600000007,3.006,0,0
0.0029279656000000005,-0.0011720080000000004,0.001349915,0.0037724300000000002,0.0027127814000000006,3.007,0,0
0.0025023676000000003,-0.0044410660000000005,0.0007483289999999998,0.0023277127200000006,0.0008602512000000004,3.008,0,0
0.0016754416000000002,-0.005106196,-0.0005238190000000001,0.00035021471999999995,-0.0004392367999999999,3.009,0,0
0.0025254056,-0.0004896920000000008,-0.0013939192000000003,0.00107215472,0.0010115852000000002,3.01,0,0
0.0034622600000000004,0.0026758420000000003,-0.0010139926000000002,0.00215814072,0.0015784660000000002,3.011,0,0
0.002818442,0.004017068,-0.0013140392,0.00195877832,0.0012854798000000002,3.012,0,0
0.003084596,0.008685350000000001,-5.5865199999999954e-05,0.0041899116,0.003925424,3.013,0,0
0.002933154,0.008898958000000002,0.0030950268,0.0053330415999999995,0.004136764,3.014,0,0
0.00026953000000000003,0.002758858,0.003922743,0.0023139976,0.000939306,3.015,0,0
-0.00166196,0.0002411319999999996,0.0033059822000000003,0.0002493395999999999,0.00020926120000000004,3.016,0,0
-0.0018745820000000003,-0.000933838,0.0037267952000000003,-0.0010139040000000002,-0.000463524,3.017,0,0
-0.0031623400000000005,-0.005390414,0.0030283352,-0.004831798,-0.004224534,3.018,0,0
-0.00394996,-0.006182508000000001,-0.0004214927999999998,-0.00738046,-0.0050123862,3.019,0,0
-0.002001958,-0.0010941400000000002,-0.0029686108000000003,-0.004647846,-0.0012020781999999997,3.02,0,0
-0.000330632,0.00122461,-0.005139216,-0.001822958,0.00045431180000000027,3.021,0,0
5.189320000000011e-05,0.0010087520000000001,-0.009654180000000002,-0.0011270439999999998,0.0005587778,3.022,0,0
0.0009790612,0.0030826200000000003,-0.013147658,9.904400000000012e-05,0.0019690784,3.023,0,0
0.0019044012,0.003796504,-0.012778883999999999,0.0007726740000000003,0.0017395805999999999,3.024,0,0
0.0017938952000000003,0.0031794740000000003,-0.009732862,-0.00022277999999999995,-0.00046388739999999993,3.025,0,0
0.0017822672000000002,0.0040806620000000005,-0.004796042,-0.00095862,-0.0009899114000000001,3.026,0,0
0.0023966540000000002,0.004447644000000001,0.002584878000000001,0.0007931619999999999,0.0008805766,3.027,0,0
0.0017022720000000003,0.0012523920000000002,0.009129938,0.001620874,0.00040369799999999986,3.028,0,0
0.00018126800000000027,0.00023326659999999997,0.010924442000000003,0.0019409740000000003,0.000778181,3.029,0,0
-0.0003476062000000001,0.0024461086,0.010767384000000003,0.004255734000000001,0.003979901,3.03,0,0
-0.0020055502,-0.00038347740000000015,0.009936892000000001,0.0034628720000000005,0.0021207430000000005,3.031,0,0
-0.0041027542,-0.0032418574,0.0068553542,-0.0005461800000000003,-0.002257343,3.032,0,0
-0.0035225862000000004,-0.0017590434,0.0042114882,-0.002452992,-0.003013249,3.033,0,0
-0.0022178662,-0.0034969860000000005,0.0038102862000000005,-0.004017538,-0.004493544,3.034,0,0
-0.001990284,-0.008991032,0.0027684674,-0.007620008000000001,-0.008082524,3.035,0,0
-0.0005568899999999998,-0.0083295,0.0008046634,-0.0074433424,-0.0062184119999999996,3.036,0,0
0.0019823840000000002,-0.003052290000000001,0.0016963052,-0.0027618504000000003,-0.0005590920000000002,3.037,0,0
0.002124298,-0.0024906860000000006,0.0031791932000000004,-3.570439999999982e-05,0.0011672420000000002,3.038,0,0
0.0010063040000000002,-0.0028709319999999997,0.0024766682,0.0012831736000000003,0.001600938,3.039,0,0
0.0006229044,-0.002017134,0.0018363490000000001,0.0032250356000000004,0.0028237014,3.04,0,0
5.6530600000000045e-05,-0.003963578,0.0012457949999999998,0.003159716800000001,0.0015662174,3.041,0,0
-0.0007944886,-0.006036508,-0.0012147790000000002,0.0010680688000000004,-0.0010306208,3.042,0,0
-0.0006948966000000002,-0.003029626,-0.003825213,0.0007151168000000001,-0.0007598107999999997,3.043,0,0
0.0006704053999999999,0.0022168940000000005,-0.00354706,0.0020841268,0.0006975992000000001,3.044,0,0
0.001003092,0.004413674000000001,-0.00338152,0.0014873167999999999,0.00018529180000000008,3.045,0,0
0.0013060302,0.008536872000000001,-0.004516292,0.002278316,0.0021990958,3.046,0,0
0.0018537734,0.012394572000000001,-0.0036656379999999997,0.004499232,0.004336626,3.047,0,0
0.0003189953999999998,0.008893114,-0.0024538958,0.0024360779999999995,0.001513656,3.048,0,0
-0.0018387446000000004,0.005215842000000001,-0.0028298786000000003,-0.0005315200000000002,-0.0008827340000000003,3.049,0,0
-0.003138523600000001,0.0047320700000000005,-0.0020151666,-0.0014597140000000004,-0.001049866,3.05,0,0
-0.004627178000000001,0.000772666,0.0001496114,-0.004159594000000001,-0.0035442900000000003,3.051,0,0
-0.006157076000000001,-0.005469094000000001,0.00018453139999999985,-0.007905014,-0.006286824,3.052,0,0
-0.004631988,-0.006763896000000001,-0.0009431208,-0.006990446000000001,-0.003557506,3.053,0,0
-0.0008675739999999999,-0.007283622000000001,-0.0006124580000000002,-0.003767648,-0.00017536599999999993,3.054,0,0
0.0012535860000000001,-0.010191602000000001,-0.0008163380000000002,-0.0028357380000000004,-0.0002628439999999999,3.055,0,0
0.0017697240000000003,-0.010799498000000001,-0.0014671900000000002,-0.0016113140000000002,0.00030926200000000004,3.056,0,0
0.0021013340000000003,-0.009752306,-0.00018446800000000002,0.0004484359999999999,0.0014538119999999999,3.057,0,0
0.0013749600000000002,-0.009134076000000001,0.001118564,0.00041996999999999987,0.00026116,3.058,0,0
-0.00039360799999999994,-0.007364408,0.000462208,-0.00066383,-0.0009157099999999999,3.059,0,0
-0.0002836220000000003,-0.0017279680000000003,-0.0001936660000000001,0.0008421239999999999,0.000697242,3.06,0,0
0.00110998,0.002973052,0.00018162820000000007,0.002495724,0.0013852676000000001,3.061,0,0
0.001940366,0.0050215,-0.0012552878,0.002271703,0.000915773,3.062,0,0
0.004025276,0.010642470000000001,-0.0021120898,0.004634947,0.0035401670000000003,3.063,0,0
0.004759972,0.01334136,-0.0001420957999999999,0.006713165,0.0044851990000000005,3.064,0,0
0.0017599340000000003,0.008314432000000002,0.0001589578000000002,0.004560521,0.001292521,3.065,0,0
-0.0001290919999999997,0.005521776,-0.0010972943999999999,0.0025749170000000004,0.00017882139999999972,3.066,0,0
-0.0004694207999999998,0.0044632100000000004,-0.0005901023999999999,0.0013422340000000003,-0.0003279880000000002,3.067,0,0
-0.0023548478,-0.00196481,-0.00021745839999999988,-0.00273787,-0.0038336560000000004,3.068,0,0
-0.0032165198000000004,-0.006770712000000001,-0.001644133,-0.006283958,-0.0050486756,3.069,0,0
-0.0005973138000000001,-0.004568192,-0.0012225445999999999,-0.0045170340000000005,-0.0012263576000000006,3.07,0,0
0.0018215522,-0.00398695,0.0005978774,-0.002299782,0.0008707824,3.071,0,0
0.0016968209999999998,-0.005555824000000001,0.0007591426,-0.001488692,0.0002255464,3.072,0,0
0.001407344,-0.0043870079999999995,0.0005872886,0.00042362120000000007,0.0008167424000000001,3.073,0,0
0.001704686,-0.004457778,0.0014510672,0.0014316696000000002,0.0005694600000000003,3.074,0,0
0.0011161446,-0.006458338,0.0018609232,0.00015825759999999996,-0.0013127680000000002,3.075,0,0
-7.71252e-05,-0.005597948,0.0014752016,-0.0006363924000000001,-0.00159792,3.076,0,0
0.0006311968,-0.0010657279999999997,0.0024878484,0.0006363796000000001,0.0008456080000000001,3.077,0,0
0.0013353148,0.0016414020000000004,0.0032203364,0.0006924826000000002,0.0014758344,3.078,0,0
0.00019453280000000014,0.0055282740000000006,0.0009607044000000001,0.0010698582000000002,0.0020439784000000003,3.079,0,0
-0.0001190218,0.012430482,6.045259999999997e-05,0.0039382382,0.0049744284,3.08,0,0
-0.001225036,0.012518254000000001,0.0012756762000000002,0.0041918802,0.0037015144000000005,3.081,0,0
-0.004042246,0.008118234,-0.00016396179999999996,0.0012482241999999997,0.0005356324,3.082,0,0
-0.004943936,0.0067485290000000005,-0.0011196818,-0.00012905800000000004,0.0007514987999999998,3.083,0,0
-0.003913314000000001,0.003391433,0.0006616721999999999,-0.0019949520000000004,-0.00027922720000000023,3.084,0,0
-0.0029772280000000006,-0.003571481,0.000788935,-0.006170168,-0.003927939200000001,3.085,0,0
-0.0006867220000000003,-0.005029475,-0.00063299,-0.00708406,-0.0032495032000000004,3.086,0,0
0.0032764379999999996,-0.0020656330000000003,0.00069358,-0.003816390000000001,0.0005129607999999999,3.087,0,0
0.004801199999999999,-0.0030376080000000007,0.0025850380000000004,-0.0016974280000000002,0.0005530916000000001,3.088,0,0
0.0033456,-0.004758272000000001,0.0016735180000000006,-0.0008430740000000002,-0.0003516063999999999,3.089,0,0
0.001889184,-0.0037614140000000003,0.00045915900000000043,0.0007819574000000001,0.00031006360000000006,3.09,0,0
0.00029828399999999957,-0.0033186672,-0.0008035019999999996,0.0012247308,-0.0005106364000000001,3.091,0,0
-0.002030308,-0.004236533,-0.003846888,0.0003248208000000001,-0.0023489666,3.092,0,0
-0.0028413472,-0.002576729,-0.007399832,0.0005883828000000002,-0.0013764422,3.093,0,0
-0.0007734192000000001,0.0018480530000000001,-0.008538816,0.0024394107999999998,0.0009612218000000002,3.094,0,0
0.00015272679999999984,0.0024658198,-0.00795703,0.0025571688,0.0007034558000000001,3.095,0,0
0.00016782479999999996,0.003367945,-0.005794882,0.0032660754,0.0022231178000000004,3.096,0,0
0.0020236728,0.0065270688,-5.0281999999999584e-05,0.0055750634,0.00438859,3.097,0,0
0.0019892869999999997,0.0045086688,0.0045454580000000005,0.0041114054,0.001482378,3.098,0,0
-0.00013900899999999994,0.0013759547999999994,0.004898246,0.0014668454000000002,-0.0012466280000000005,3.099,0,0
-0.000944315,0.0012767631999999994,0.004585408000000001,0.0010723240000000002,-0.0008946940000000001,3.1,0,0
-0.001314959,-0.0014550268000000006,0.0035590234000000007,-0.0008360299999999998,-0.0023573000000000005,3.101,0,0
-0.003037459,-0.006174986800000001,-0.0005730446000000002,-0.004775056,-0.0046599166,3.102,0,0
-0.0030692358000000003,-0.0045604388,-0.0036102666,-0.0045314564,-0.0019551966000000004,3.103,0,0
-0.0009444697999999995,-0.0017676908000000002,-0.0017920126000000001,-0.0019453123999999997,0.0014423633999999998,3.104,0,0
0.00012679220000000015,-0.0033416160000000004,0.0005644793999999999,-0.0018676604,0.0009390493999999998,3.105,0,0
0.0008504362000000002,-0.003322822,0.00242342,-0.0013638424,0.00020200739999999984,3.106,0,0
0.0020923742,-0.0014291960000000002,0.0051651679999999995,-5.160159999999985e-05,-4.360200000000001e-05,3.107,0,0
0.0024999600000000007,-0.0015280619999999997,0.006753324,-0.0003950672,-0.0015098260000000001,3.108,0,0
0.0016804460000000002,-0.00133663,0.006553394,-0.0013310498000000002,-0.002587618,3.109,0,0
0.001809508,0.003699616,0.005947696,-1.471580000000027e-05,-0.0007639020000000001,3.11,0,0
0.0025454960000000004,0.008284826,0.0056378539999999994,0.0012686922,0.000885286,3.111,0,0
0.00207113,0.010061960000000002,0.00394543,0.0007131633999999999,0.000846074,3.112,0,0
0.0020715720000000003,0.014913547999999999,0.0021671660000000003,0.0029212333999999998,0.003269314,3.113,0,0
0.0017762712000000001,0.01676192,0.0013009640000000002,0.005112468,0.004638514,3.114,0,0
-0.00046153480000000005,0.00912226,-0.001893402,0.002645152,0.00167975,3.115,0,0
-0.0026119128,0.001547360000000001,-0.006744428,0.0006196499999999998,0.0005543539999999997,3.116,0,0
-0.0040395168,-0.00279068,-0.010070064,7.425599999999997e-05,0.0011824313999999998,3.117,0,0
-0.0060394768000000005,-0.01095826,-0.012350054000000001,-0.003313018,-0.0014106186000000004,3.118,0,0
-0.0070254440000000005,-0.0166663,-0.013719562000000001,-0.006497094,-0.0035224126,3.119,0,0
-0.005559898600000001,-0.012085332,-0.010902204,-0.0044225919999999995,-0.0006138046000000003,3.12,0,0
-0.0041003362000000005,-0.0073735318,-0.004474364,-0.0016857559999999996,0.0014577554000000002,3.121,0,0
-0.0031502182000000003,-0.0076002518,0.0014902559999999997,-0.0011794479999999996,0.0003626460000000002,3.122,0,0
-0.0012974662000000002,-0.006119207799999999,0.006550444,0.0001167700000000003,0.00029929,3.123,0,0
0.0013599017999999998,-0.0045446157999999995,0.010024822000000001,0.0011726082000000002,0.0004715479999999999,3.124,0,0
0.0041945784,-0.004929829399999999,0.009634473000000001,0.0001406122000000002,-0.001030098,3.125,0,0
0.006814458000000001,-0.002981413599999999,0.006180185,-0.0005742618000000001,-0.001897922,3.126,0,0
0.008879044,0.0020077464000000005,0.003053566,0.0013783302000000002,-0.0002879959999999999,3.127,0,0
0.009046188,0.0044428284,0.0010752644000000002,0.0021398722,-5.331800000000001e-05,3.128,0,0
0.007135182,0.006529522400000001,-0.0022368196000000003,0.0021861339999999997,0.0003230380000000001,3.129,0,0
0.005435958000000001,0.011712048000000001,-0.0043949486,0.004863006,0.0035086120000000004,3.13,0,0
0.003363956,0.011507214000000002,-0.0042798206,0.0050782660000000006,0.0032856560000000005,3.131,0,0
0.00017088600000000008,0.007271743999999998,-0.005648577600000001,0.0020723979999999996,0.00044748000000000053,3.132,0,0
-0.000925072,0.0070160280000000005,-0.006790190000000001,0.000910206,0.0005543320000000005,3.133,0,0
-0.0009145179999999999,0.005644245799999999,-0.004785122000000001,-0.00016930799999999996,-0.00022255199999999945,3.134,0,0
-0.0027049540000000003,-0.0004947082000000001,-0.0028698858000000002,-0.003531208,-0.004009914,3.135,0,0
-0.0035967840000000004,-0.002123545,-0.0023136618,-0.00468133,-0.0040566796,3.136,0,0
-0.0018463340000000005,0.0014055510000000001,0.0009375101999999996,-0.0017250819999999997,-0.0001257696000000004,3.137,0,0
-0.000974352,0.0007834262,0.0042042162,0.0002530200000000003,0.0005823583999999999,3.138,0,0
-0.001051968,-0.0014241376000000004,0.0050248522,0.0003527100000000001,-0.00023543760000000022,3.139,0,0
-0.00020609749999999993,-0.0011783376000000004,0.006454338,0.0013796500000000005,0.0007649962000000001,3.14,0,0
6.0091900000000054e-05,-0.0019621348,0.007530064,0.0016779528,0.00022446780000000006,3.141,0,0
-0.0010198381,-0.0048295548,0.006190732,-9.595919999999997e-05,-0.0018926662000000002,3.142,0,0
-0.0016367061,-0.005200760000000001,0.0040756298,-0.0007648351999999999,-0.0016600121999999998,3.143,0,0
-0.0010290460999999999,-0.003535106,0.0034486858000000002,0.0007896168,0.0001997237999999999,3.144,0,0
-0.0015786026,-0.005172472,0.0023644278,0.0004738708,-0.0002996380000000001,3.145,0,0
-0.0017313839999999999,-0.0038097359999999998,4.229799999999964e-06,0.0009125700000000001,0.000870868,3.146,0,0
-0.00023079800000000005,0.0014252180000000002,-5.7122199999999905e-05,0.0037485700000000005,0.0036068320000000004,3.147,0,0
-0.0007251000000000002,0.0014667940000000002,0.0013571120000000002,0.0031279886000000006,0.0018071180000000004,3.148,0,0
-0.0028992,0.0006971579999999998,0.0006838712000000002,0.0007780526000000004,-0.0005758039999999996,3.149,0,0
-0.0035680400000000006,0.0035397,0.0006371744000000003,0.00046964860000000045,-0.0006171719999999998,3.15,0,0
-0.004287004,0.0018053420000000001,0.0020989904000000004,-0.0012253233999999999,-0.0024288039999999997,3.151,0,0
-0.005925746,-0.0036997980000000002,0.0008972144,-0.0052091594,-0.0049599050000000006,3.152,0,0
-0.004754012,-0.00286342,-0.0014898816000000002,-0.005106231,-0.0024010670000000002,3.153,0,0
-0.0007253660000000003,0.00036120399999999974,-0.0012588374000000002,-0.001869711,0.0018313829999999998,3.154,0,0
0.0020187699999999996,-0.0009182639999999999,-0.0009443666000000003,-0.0008831970000000001,0.0026965769999999995,3.155,0,0
0.003444206,-0.0022617900000000005,-0.0018374146,-0.00019071899999999957,0.0030626789999999996,3.156,0,0
0.005010684,-0.002717104,-0.0013869586,0.0013546560000000003,0.0033700884,3.157,0,0
0.00429854,-0.0054313980000000005,-0.0009318645999999999,0.0011860576000000001,0.0014861704,3.158,0,0
0.0017541060000000003,-0.0070875980000000005,-0.0019467440000000003,-0.00029269879999999993,-0.0010126136,3.159,0,0
0.00020145600000000017,-0.003855092,-0.002457065,0.00016933720000000016,-0.0007001536000000001,3.16,0,0
-0.000713864,0.00033107399999999956,-0.0012520830000000002,0.0011531472000000003,-4.602840000000007e-05,3.161,0,0
-0.002172056,0.0030423019999999998,-0.0013851930000000003,0.0004514782000000001,-0.0009485848000000002,3.162,0,0
-0.0006985840000000001,0.009688982,-0.001799671,0.0017785816000000002,0.0012471112,3.163,0,0
0.00277605,0.014398339999999999,0.000569405,0.0034228980000000006,0.0026922692,3.164,0,0
0.0025901917999999998,0.010521362,0.001204508,0.0009723080000000003,-0.0006948668000000004,3.165,0,0
0.0016383898,0.007555886,-0.0016221740000000005,-0.0011210659999999998,-0.0026207160000000004,3.166,0,0
0.0024109366,0.006489233,-0.003776156000000001,-0.0010324,-0.0026023960000000003,3.167,0,0
0.0010389306,-0.0005542270000000005,-0.005431428000000001,-0.003057198,-0.005038054,3.168,0,0
-0.0025172454,-0.007326675000000001,-0.009273,-0.005227722000000001,-0.0059428680000000005,3.169,0,0
-0.0023145271199999998,-0.005306143000000001,-0.011693702,-0.0024394939999999995,-0.0008149279999999999,3.17,0,0
0.0005586848799999999,-0.003616319000000001,-0.009287586,0.001128146,0.003374722,3.171,0,0
0.00144589608,-0.006124480000000002,-0.005434312,0.0015891026,0.0033829679999999997,3.172,0,0
0.00214410408,-0.0060914800000000015,-0.00171086,0.0018992786,0.003572438,3.173,0,0
0.00367751808,-0.005825402000000001,0.00444122,0.0022098945999999993,0.002985994,3.174,0,0
0.0039949140000000005,-0.008253674,0.012184302000000001,0.0008490966,-0.0002560360000000002,3.175,0,0
0.0021067500000000005,-0.008740888,0.016003226,-0.0007329314000000002,-0.0023566410000000005,3.176,0,0
0.0007826339999999998,-0.00450036,0.0147252276,0.00019875999999999997,-0.000748465,3.177,0,0
0.00020274999999999997,-0.0016530520000000003,0.0115954356,0.0009541762000000001,-0.00034288699999999984,3.178,0,0
-0.001013082,0.000887066,0.0043582156,0.0004607861999999999,-0.0002298119999999999,3.179,0,0
-0.0007227819999999999,0.008046484,-0.0052510044,0.0024107662,0.0029318980000000005,3.18,0,0
-0.0001086767999999999,0.011579064,-0.0112180844,0.0032734122,0.0030538070000000004,3.181,0,0
-0.0006043788,0.010956316000000002,-0.013006712,0.0008655662000000002,-0.0004053069999999997,3.182,0,0
-0.0005048418,0.013408768000000001,-0.01004275,-0.00022055600000000022,-0.0013333589999999999,3.183,0,0
-0.00048620779999999995,0.012739692000000002,-0.00192451,-0.0006164819999999998,-0.0017917719999999999,3.184,0,0
-0.0022887378,0.005495462,0.0060577700000000005,-0.003792566,-0.0050929999999999994,3.185,0,0
-0.0035959390000000003,0.0017599240000000002,0.009019866,-0.005604576,-0.005751081999999999,3.186,0,0
-0.0026472326,0.0026551860000000004,0.010530653999999999,-0.0026688239999999998,-0.0016017019999999996,3.187,0,0
-0.0027091222000000005,-0.002519594,0.010297179999999998,-0.00072054,0.000566556,3.188,0,0
-0.0038577941999999995,-0.009772146,0.005439298,-0.000546708,0.00016193800000000014,3.189,0,0
-0.0033859742,-0.011120236,0.0005918040000000004,0.00090002566,0.0011614596000000003,3.19,0,0
-0.0021962485399999996,-0.012420762000000002,-0.0007847,0.00154975166,0.0016528210000000005,3.191,0,0
-0.0017401569399999998,-0.014471830000000001,-0.00156366,0.00012930945999999993,0.00021744459999999992,3.192,0,0
-0.0007997643399999996,-0.00996987,-0.0032972800000000005,-0.00040848254000000006,0.00014228660000000003,3.193,0,0
0.00103639366,-0.0016792360000000006,-0.0033263660000000003,0.00088122946,0.0021911606,3.194,0,0
0.0017920730600000001,0.0008172699999999999,-0.0028560446,0.0003558678,0.0018391049999999997,3.195,0,0
0.0026895494,0.002650998,-0.0033458946,0.0007714697999999999,0.0022890816000000003,3.196,0,0
0.0040794514,0.005746104,-0.0017322326,0.0034880220000000003,0.005066398,3.197,0,0
0.0032555146000000004,0.0028353820000000004,0.0009007853999999998,0.002733006,0.0031501900000000006,3.198,0,0
0.0019156126000000003,-0.00018769200000000037,0.0014964714,0.00040125000000000013,-0.00021982399999999997,3.199,0,0
0.0017019426000000003,0.0017922620000000004,0.00256661,0.000389362,-0.0001218320000000001,3.2,0,0
0.00043889860000000005,0.00213573,0.004362258,-0.00108143,-0.001734998,3.201,0,0
-0.0017934674000000001,-0.0009120310000000002,0.00343154,-0.004678832000000001,-0.0055267860000000005,3.202,0,0
-0.0021707686,8.145820000000009e-05,0.00106571,-0.0042695068000000004,-0.003824976,3.203,0,0
-0.0011141064,0.0024936822,0.000714332,-0.0007678388000000001,0.00024619200000000033,3.204,0,0
-0.001073867,0.00012698819999999982,0.00027486000000000003,0.0002609292,0.0002945060000000003,3.205,0,0
-0.000999347,-0.0024724538000000006,-0.0012179680000000003,0.0005176571999999998,0.0001576520000000003,3.206,0,0
0.000503243,-0.0026186928000000004,-0.0010975680000000002,0.0014771966,0.0010897046000000001,3.207,0,0
0.001666771,-0.0035814320000000003,-0.0005790400000000001,0.0008846574,9.568860000000023e-05,3.208,0,0
0.0009236488000000001,-0.004699784,-0.00166463,-0.0008610294000000003,-0.0014959832,3.209,0,0
-0.00013344000000000008,-0.0030633320000000006,-0.003101808,-0.0006357294,-0.00010874120000000016,3.21,0,0
-0.001535502,-0.00205641,-0.003387744,0.0008285626,0.0016889008,3.211,0,0
-0.004698814000000001,-0.003158502,-0.004599008,0.00041784719999999996,0.0011386002,3.212,0,0
-0.005917408,0.0001053699999999996,-0.005912602,0.0017327232,0.0031748342,3.213,0,0
-0.00411121,0.003950258,-0.0049366308,0.00380033,0.005108998,3.214,0,0
-0.0018954719999999998,0.00308912,-0.0041837262,0.0019342300000000003,0.001856352,3.215,0,0
0.0015039400000000005,0.005124158,-0.0038145322000000003,-0.0002875439999999998,-0.0004369599999999999,3.216,0,0
0.0048025080000000005,0.00869403,-0.0018270662,-0.0007720060000000003,-0.000496236,3.217,0,0
0.004782066000000001,0.0060885312,-0.0003676618,-0.0031300440000000002,-0.0034208680000000005,3.218,0,0
0.0026714460000000005,0.0023313692,-0.0016559370000000001,-0.006239886,-0.006056112,3.219,0,0
0.0014134860000000003,0.0042552032,-0.0034777236000000005,-0.00436954,-0.002653786,3.22,0,0
0.0004809460000000001,0.0049544892,-0.0036106456,-0.0005178159999999995,0.0007996339999999998,3.221,0,0
-0.000825742,0.0016683872000000002,-0.0030916416,0.0010916560000000005,0.0006980799999999997,3.222,0,0
-0.00021238719999999988,0.0007220220000000003,-0.0015529840000000003,0.0024445010000000004,0.0013297079999999998,3.223,0,0
0.0025062428,0.0007477299999999997,0.00190797,0.0036715452,0.00168618,3.224,0,0
0.003998088800000001,-0.001072394,0.004735898,0.0026410152,-0.00037809200000000045,3.225,0,0
0.0038945228000000004,-0.0019170920000000002,0.005082034,0.0003297404,-0.0021867620000000005,3.226,0,0
0.004417378800000001,-0.0008938075999999998,0.0042480484,0.00011830640000000002,-0.000767024,3.227,0,0
0.0033546960000000008,-0.0028713436000000004,0.0033940744,2.3593400000000058e-05,-0.0005366959999999999,3.228,0,0
-0.0003362279999999996,-0.0048668696000000004,0.0010843404,-0.0008383848,-0.001079564,3.229,0,0
-0.0020399059999999998,-0.0017729195999999997,0.0003814694000000001,0.0013347972000000003,0.002074302,3.23,0,0
-0.0026516108,-0.0012252936000000003,0.0031501754000000004,0.0028800100000000006,0.003250086,3.231,0,0
-0.0044518968,-0.0033939359999999997,0.0045051250000000004,0.0006315280000000003,0.0006652279999999999,3.232,0,0
-0.0039508088,-0.0001625459999999999,0.004871949,-1.4345999999999717e-05,0.000195064,3.233,0,0
-0.0012378088000000002,0.0028855240000000004,0.006927221000000001,0.0002685820000000002,0.000286728,3.234,0,0
4.2681199999999885e-05,-0.0004285020000000001,0.007641768000000001,-0.002870698,-0.0028100660000000004,3.235,0,0
0.00017766399999999998,-0.002239262,0.0049316690000000005,-0.004645748,-0.003730078000000001,3.236,0,0
0.0016038906000000002,0.0012801159999999998,0.0030156190000000006,-0.0009482980000000004,0.00023728799999999978,3.237,0,0
0.0023668706,0.0017622239999999997,0.0022463396,0.0018326619999999999,0.002423986,3.238,0,0
0.00043952460000000015,-0.0011933460000000005,-0.0001888444,0.0018004559999999995,0.0018561019999999994,3.239,0,0
-0.0013774514000000002,-0.0022956920000000002,-0.0020712264,0.0028771245999999998,0.0019326079999999997,3.24,0,0
-0.0015450952000000003,-0.003942676000000001,-0.0027134114000000003,0.0027225806,0.0010791219999999994,3.241,0,0
-0.0017320810000000001,-0.0073387339999999995,-0.0038017514,-0.00018396540000000026,-0.001866706,3.242,0,0
-0.0011930030000000006,-0.007841332,-0.004801008,-0.0024741194000000005,-0.0036395340000000003,3.243,0,0
0.001319283,-0.004745208000000002,-0.0037752400000000005,-0.0020815382,-0.0025082108,3.244,0,0
0.002841671,-0.003711644000000001,-0.0021571720000000006,-0.0028106288,-0.0027844248,3.245,0,0
0.0036190248,-0.0002540959999999999,-0.0017610560000000002,-0.0030886108,-0.0019780818,3.246,0,0
0.0050007639999999996,0.006464564,0.000332496,-0.00021692480000000012,0.0017261262000000002,3.247,0,0
0.0034203999999999997,0.0064316484,0.002822462,0.00021107119999999984,0.0021022006,3.248,0,0
0.0001675239999999994,0.0043070004,0.002980468,-0.001185842,0.0008721234000000002,3.249,0,0
-0.001032462,0.0068377344,0.002634658,-0.0007755360000000002,0.0023561334,3.25,0,0
-0.0026246860000000006,0.0053435505399999994,0.002540062,0.00014376799999999987,0.0023737564,3.251,0,0
-0.005347058,-0.00078314746,-0.00025299000000000046,-0.0009344800000000001,-0.0012908356000000001,3.252,0,0
-0.00484182,0.00045945214000000026,-0.005600362,-0.0009468140000000001,-0.0013429844000000001,3.253,0,0
-0.0025317919999999997,0.005430816140000001,-0.01057435,0.0008043239999999999,0.0010701076,3.254,0,0
-0.0016005180000000002,0.01062177014,-0.015089924000000001,0.0028367080000000003,0.0027403996000000003,3.255,0,0
-0.0003901159999999999,0.018839546000000002,-0.015569340000000001,0.0053830020000000004,0.0050854876,3.256,0,0
-0.0003087159999999999,0.021325648000000003,-0.01128386,0.004142926000000001,0.004578277600000001,3.257,0,0
-0.002965174,0.015540184000000005,-0.005871396,-3.7423999999999444e-05,0.0010974760000000009,3.258,0,0
-0.0054706519999999995,0.008141424000000001,0.00019251799999999916,-0.0033162840000000005,-0.0018474319999999995,3.259,0,0
-0.0057678936,-0.0008934039999999987,0.006830698,-0.004893265400000001,-0.0029399059999999995,3.26,0,0
-0.005055479600000001,-0.011007498,0.010248698,-0.0059208814,-0.003167545999999999,3.261,0,0
-0.001443297599999999,-0.013170978,0.010993138,-0.0024745034000000004,0.0005788360000000005,3.262,0,0
0.004302822400000001,-0.012505958000000001,0.012979474000000001,0.0040128966,0.004375846000000001,3.263,0,0
0.006906564400000001,-0.018727998000000003,0.012282079999999999,0.0048654766,0.0018757160000000004,3.264,0,0
0.007492046000000001,-0.02280847,0.00823704,0.0038591199999999997,-0.0005415199999999993,3.265,0,0
0.008629726,-0.018882096000000004,0.005449098,0.0053353160000000005,0.0001525200000000006,3.266,0,0
0.008773246000000002,-0.013197940000000002,0.0031935780000000003,0.005808855999999999,-0.00013136000000000007,3.267,0,0
0.006739660000000001,-0.006250800000000001,0.0001988640000000003,0.004944268,-0.0004242900000000003,3.268,0,0
0.00534374,0.005396842,-0.000761156,0.006665964,0.0029503340000000006,3.269,0,0
0.004361314000000001,0.013833222,0.00022787800000000015,0.007514372000000001,0.004297995200000001,3.27,0,0
0.0009467639999999997,0.015235442,-0.00017889199999999994,0.0037897820000000002,0.0013192501999999997,3.271,0,0
-0.0027089900000000005,0.016748622,-0.0014788459999999998,0.000676724,0.00043085019999999983,3.272,0,0
-0.004727626,0.017689782,-0.0014858439999999998,-0.0005823400000000002,0.0008846702,3.273,0,0
-0.00720493,0.0133019,-0.001209472,-0.0035042360000000004,-0.0016047138,3.274,0,0
-0.010771346000000001,0.005526259999999999,-0.0019183280000000002,-0.008049440000000001,-0.005634845,3.275,0,0
-0.012118876,-0.0019049999999999987,-0.0029908500000000006,-0.010491770000000001,-0.006762102000000001,3.276,0,0
-0.011142533999999999,-0.009995400000000002,-0.0037846960000000006,-0.010984950600000001,-0.006679294,3.277,0,0
-0.008438952,-0.014237617600000002,-0.006175460000000001,-0.009975722599999999,-0.00559387,3.278,0,0
-0.0019083119999999992,-0.0099468416,-0.007536360000000001,-0.0046123846,-0.00041048399999999916,3.279,0,0
0.004322368,-0.0079862416,-0.004769466000000001,0.0003225023999999998,0.0021131179999999998,3.28,0,0
0.006309516000000001,-0.0116841016,-0.0027257982000000003,0.0004191424000000001,-0.0007932600000000005,3.281,0,0
0.006992056,-0.0114003656,-0.0018155382000000003,0.00022124900000000019,-0.0018047400000000009,3.282,0,0
0.007403698,-0.008655888,0.0010272637999999999,0.0017246130000000003,-0.00025576400000000077,3.283,0,0
0.005985788000000001,-0.007739784000000002,0.0033033838000000003,0.0019054550000000003,-0.0003659120000000008,3.284,0,0
0.0047093180000000005,-0.004363036539999999,0.0024722658,0.0019245636000000004,0.00034898399999999956,3.285,0,0
0.005476408,0.00244940546,0.0023549366,0.0047299662000000004,0.0041439552000000004,3.286,0,0
0.0051083884,0.006453109460000001,0.0034632926000000004,0.0057115742000000014,0.0047372612000000005,3.287,0,0
0.0025015163999999998,0.00801026946,0.0020607386,0.0032640682000000002,0.0023112552,3.288,0,0
0.00010525239999999993,0.01144006946,0.00023234660000000012,0.0019397522,0.0022428692,3.289,0,0
-0.0018637296000000004,0.014390562,-0.00015336540000000006,0.0012364466,0.0023981771999999997,3.29,0,0
-0.0042687276,0.013169380000000001,-0.0012407260000000002,-0.0019476959999999998,-0.0005354940000000005,3.291,0,0
-0.00626857,0.008456200000000002,-0.0037860420000000003,-0.006192992,-0.0039046480000000006,3.292,0,0
-0.005801814000000001,0.003341008000000001,-0.005054134,-0.0076672699999999995,-0.004190086000000001,3.293,0,0
-0.0043599120000000005,-0.003762112,-0.004946267999999999,-0.008067728,-0.0044714920000000005,3.294,0,0
-0.003062118000000001,-0.008157956000000001,-0.0053051899999999996,-0.00654634,-0.002593278,3.295,0,0
-0.00033020800000000024,-0.007546450000000001,-0.0024766399999999996,-0.0008153999999999991,0.002339036,3.296,0,0
0.0014270200000000002,-0.01119435,0.00269176,0.0025129840000000007,0.002705136,3.297,0,0
0.0009502759999999999,-0.016604978,0.00419384284,0.0015380480000000006,-7.470000000000003e-05,3.298,0,0
0.001009338,-0.015961914,0.00412430284,0.002188678000000001,5.975999999999768e-06,3.299,0,0
0.001944858,-0.01240901,0.005123662840000001,0.003912680000000001,0.0008363559999999997,3.3,0,0
0.00196741,-0.008956224,0.00357046684,0.003035996,-0.00026531200000000084,3.301,0,0
0.0020984162,-0.0009387080000000003,3.203484000000002e-05,0.0031079074000000006,0.0011270239999999995,3.302,0,0
0.0028702284000000004,0.008894912,-0.00010821539999999997,0.0053623792,0.0037249746,3.303,0,0
0.0020798762,0.013277128,0.0007385746000000001,0.0046329332,0.0023052942,3.304,0,0
0.0007927414,0.015647768,-0.00038659140000000007,0.0019903606000000003,0.0004286441999999999,3.305,0,0
0.0003058908,0.018638356000000002,8.341860000000002e-05,0.0010151306000000001,0.0007395861999999999,3.306,0,0
-0.0004809554,0.01736374,0.0022907606,-0.00028991879999999996,-0.00016334779999999994,3.307,0,0
-0.0019553116,0.011520800000000001,0.003261756,-0.0038330106000000006,-0.0031648384000000002,3.308,0,0
-0.0032734734,0.005619008000000001,0.0031237637999999997,-0.006841920600000001,-0.004574766000000001,3.309,0,0
-0.0038724766000000008,-0.00036370200000000047,0.0037898138,-0.007246148000000001,-0.004134284,3.31,0,0
-0.004213018000000001,-0.006796058000000001,0.0027445718000000006,-0.007370076,-0.004391798000000001,3.311,0,0
-0.0026791020000000005,-0.007354453,0.00038212580000000003,-0.004483188,-0.0014580659999999996,3.312,0,0
-0.00027539000000000014,-0.005854957,0.0010406338000000003,0.0010846319999999999,0.0026161060000000004,3.313,0,0
0.000350458,-0.010493645,0.0022694020000000002,0.0025208300000000004,0.0015860920000000003,3.314,0,0
0.0008812726,-0.013535914999999999,0.0016242100000000005,0.001791574,0.00018755200000000023,3.315,0,0
0.0023515106000000004,-0.011144899,0.0020793136000000004,0.003347636,0.0018205180000000001,3.316,0,0
0.0033206606000000002,-0.009311486,0.0033112136000000006,0.004399102,0.002226828,3.317,0,0
0.0031069345999999998,-0.006699002,0.0023513816,0.0031662220000000002,0.0010498855999999997,3.318,0,0
0.0025902346,0.0018705160000000005,0.0009480221999999999,0.0044281042000000005,0.0029960836000000003,3.319,0,0
0.002231172,0.009847156000000001,0.0009958622000000002,0.006409626200000001,0.004457495600000001,3.32,0,0
0.0009838546799999996,0.011752436,-1.1041399999999965e-05,0.0043942372,0.0021687599999999996,3.321,0,0
-0.0012739453199999999,0.013274578,-0.0022886234,0.0020607134,0.0008080460000000001,3.322,0,0
-0.0030375193200000003,0.014385798000000002,-0.0037886514000000007,0.0017228054000000001,0.0011231924,3.323,0,0
-0.00399489332,0.010873722,-0.005174876,-0.00012108879999999994,-0.0003462055999999998,3.324,0,0
-0.00499284932,0.004490262,-0.0070506679999999995,-0.0039918748,-0.0034937896,3.325,0,0
-0.005539834,-0.000272846,-0.007902826000000002,-0.0054200458,-0.004393894000000001,3.326,0,0
-0.0048831716,-0.0050251440000000005,-0.006934790000000001,-0.005365063000000001,-0.0043975360000000005,3.327,0,0
-0.0037100096,-0.009436962000000002,-0.006790007999999999,-0.005595227,-0.0038518900000000006,3.328,0,0
-0.0005445175999999998,-0.007504140000000001,-0.005707599999999999,-0.001735893,0.00052731,3.329,0,0
0.0026197464,-0.005547282,-0.00139302,0.002672845,0.003128196,3.33,0,0
0.0026586564,-0.008469894,0.0015291439999999999,0.0017607450000000002,0.001011236,3.331,0,0
0.0027737592,-0.008644112,0.002556214,0.0005895599999999998,0.0004615506,3.332,0,0
0.0041340812,-0.006088827999999999,0.0053444600000000005,0.001961074,0.0013434026000000003,3.333,0,0
0.0038743192,-0.006008998,0.007668390000000001,0.0011880480000000001,-0.00022049540000000005,3.334,0,0
0.0023909988000000004,-0.0046465659999999995,0.006262514,-0.0004013083999999999,-0.0009924934,3.335,0,0
0.0031958188000000007,0.0023680740000000004,0.0049851828,0.0017311778000000002,0.0018515090000000003,3.336,0,0
0.0034205876000000003,0.00738897,0.0049338708,0.0029593218,0.0024985364,3.337,0,0
0.0010441336,0.008591884000000001,0.0027766098,0.0008373378000000001,0.0003099744,3.338,0,0
-0.0009761664000000001,0.01130527,0.0006926269999999999,-0.00030219759999999997,4.618440000000003e-05,3.339,0,0
-0.001519144,0.01296414,0.0008438810000000001,-0.00018325081999999999,0.00017992840000000007,3.34,0,0
-0.0018643254000000001,0.009971262,0.0009207151600000001,-0.00158053902,-0.001459926,3.341,0,0
-0.0022465348,0.004997829999999999,0.00027733716,-0.00362680702,-0.003037722,3.342,0,0
-0.00014164679999999989,0.002179523999999999,0.0006071099600000001,-0.0037160410199999997,-0.0025946446,3.343,0,0
0.0018922172000000004,-0.0017553260000000004,0.00095058096,-0.00370179162,-0.0029918920000000003,3.344,0,0
0.0020000412000000006,-0.0037325418000000005,-0.00100356304,-0.003120736,-0.0019586620000000003,3.345,0,0
0.0031158766000000003,-0.0014164178000000002,-0.001628774,0.0006496859999999998,0.0023673900000000005,3.346,0,0
0.0035807720000000007,-0.0034255658000000005,-0.000740966,0.002915168,0.0029107540000000006,3.347,0,0
0.0013657220000000002,-0.0074001398,-0.0039067418,0.0017391980000000004,0.0008305846000000003,3.348,0,0
0.00010700799999999991,-0.006180143800000001,-0.008496336,0.0021334120000000003,0.001874302,3.349,0,0
0.000631064,-0.004648644,-0.009882450000000001,0.0030929220000000006,0.0027594500000000005,3.35,0,0
8.304000000000048e-06,-0.005855054000000001,-0.011268014000000002,0.001453564,0.00045547399999999993,3.351,0,0
-0.00043153599999999983,-0.0029262340000000006,-0.014244680000000003,0.0010563206000000001,0.0007368400000000002,3.352,0,0
0.0007582820000000001,0.0022842160000000004,-0.012891108000000002,0.0036146566,0.003775052,3.353,0,0
0.001339562,0.0023592,-0.008077202,0.0038664286,0.003147116,3.354,0,0
0.000771484,0.0015431720000000002,-0.002966022000000001,0.0020849246,0.001395092,3.355,0,0
0.00010010199999999997,0.003623636,0.0035151180000000002,0.0018754166,0.00167161,3.356,0,0
-0.001015786,0.004022552,0.009141098,0.0008935419999999999,0.0005010379999999999,3.357,0,0
-0.002752234,0.001690546,0.012010952000000002,-0.002503548,-0.003057754,3.358,0,0
-0.003951682,0.0007209579999999998,0.0117024824,-0.004926322,-0.004719168,3.359,0,0
-0.00399937,-3.854820000000035e-05,0.0091580128,-0.00468687408,-0.003938352,3.36,0,0
-0.003966928,-0.0033810902,0.0050069968,-0.0050661736,-0.0044533376,3.361,0,0
-0.0027167234,-0.0021554082000000002,0.0011921088000000002,-0.0033298396000000004,-0.0020894276,3.362,0,0
-0.0003435033999999999,0.0021937878000000003,0.00047100680000000005,0.0014366204,0.0024186004000000005,3.363,0,0
-0.0001821994000000001,0.00044528579999999996,0.0007896944000000001,0.0022337284,0.0014185284000000006,3.364,0,0
-0.00039484740000000006,-0.001408904,-0.00045999400000000003,0.0007330824799999995,-0.0009201355999999996,3.365,0,0
0.0010212566,0.0011725120000000001,-0.001101458,0.001660496,0.00030919200000000045,3.366,0,0
0.0009306582000000001,0.0005812880000000001,-0.00019649400000000007,0.001744678,0.00024987600000000055,3.367,0,0
-0.0008695998,-0.0031211460000000004,-0.0005447272000000001,-0.0003023626000000002,-0.0018555751999999996,3.368,0,0
-0.0011059178,-0.0019284519999999998,-0.0012788871999999999,0.0006676558,0.0007715628,3.369,0,0
-0.0005480341600000001,0.00019562999999999991,-0.00021599540000000002,0.0033140497999999997,0.0042496308,3.37,0,0
-0.00116124816,-0.0015213403999999999,0.00044858859999999997,0.0027338078000000003,0.0028373156000000006,3.371,0,0
-0.0011730359599999999,-0.0010425923999999999,-0.0001771874000000001,0.0013973058000000002,0.0015354396000000002,3.372,0,0
-5.326595999999981e-05,0.0017604956000000001,0.0001429938,0.0011649652000000003,0.0017021010000000006,3.373,0,0
0.0009122514400000002,0.0020963056000000003,0.0008212718,-0.0005744272,-0.0004461309999999998,3.374,0,0
0.0005429258000000001,0.0007310275999999997,0.0005827879999999999,-0.0038579332,-0.003946133,3.375,0,0
-0.00041318219999999996,0.0006871886,0.00043174199999999993,-0.005093811199999999,-0.004154347800000001,3.376,0,0
-0.00034372099999999996,-0.00016085359999999985,0.001336298,-0.0046790372,-0.0035125818000000006,3.377,0,0
-0.00031241499999999997,-0.0029076916,0.0007285052,-0.00499887,-0.0038478420000000006,3.378,0,0
0.0005104756,-0.0017850016,-0.0005725788000000001,-0.00209189,-0.00022403199999999988,3.379,0,0
0.0018489316,-0.0009403935999999999,0.00024893920000000006,0.001878762,0.0030345320000000004,3.38,0,0
0.0013634116000000001,-0.0049515181999999994,-0.0002912408,0.001368116,0.001241878,3.381,0,0
0.0010892576000000001,-0.006225172,-0.0022699768,0.000844836,0.0008958790000000005,3.382,0,0
0.0020358396000000004,-0.004050892,-0.0020105716,0.002426244,0.002524923000000001,3.383,0,0
0.0017939076000000002,-0.004116521999999999,-0.0007249495999999999,0.0017934979999999997,0.0006172700000000002,3.384,0,0
0.0007048196000000002,-0.003082338,-0.0011780348,-8.149880000000024e-05,-0.001196366,3.385,0,0
0.0014167608000000005,0.004280442000000001,-0.0013814068,0.0020800012,0.001674764,3.386,0,0
0.0020313592000000004,0.010216696,-0.0008716648,0.0044172852,0.003253109,3.387,0,0
0.0009363770000000001,0.011704760000000002,-0.0022234412000000005,0.0036113452000000002,0.0016585690000000001,3.388,0,0
0.0005100774,0.014105696000000003,-0.0039697292,0.0033739052,0.0016842156,3.389,0,0
0.0004662798,0.015135546000000003,-0.0042437184,0.0034428954000000006,0.001999088,3.39,0,0
-0.0003507194000000001,0.011578224000000003,-0.0033565644000000004,0.0008195774000000001,-0.0003842200000000002,3.391,0,0
-0.0017564234000000001,0.004998860000000001,-0.0023119222,-0.0027163526,-0.0027890680000000004,3.392,0,0
-0.0023695912000000004,-0.001988019999999999,-0.0007563941999999999,-0.0031851274,-0.0019380920000000002,3.393,0,0
-0.0024687211800000007,-0.009474139999999999,0.0019814238000000002,-0.0037969522,-0.0016306156000000006,3.394,0,0
-0.0025799875800000005,-0.012936672000000001,0.0027778542000000002,-0.0043347676,-0.0013189480000000003,3.395,0,0
-0.0008974975800000001,-0.00994217,0.0032261942,-0.0008385355999999998,0.0022212079999999997,3.396,0,0
0.0007210464200000001,-0.007741612,0.00583525,0.0011526804000000002,0.002471048,3.397,0,0
0.0003684464200000001,-0.006792732000000001,0.006715904,-0.0009059187999999998,-0.00085523,3.398,0,0
0.00013057200000000002,-0.003147054,0.0059564380000000005,-0.0009346755999999997,-0.0010573948000000002,3.399,0,0
0.0006919419999999999,-0.0014646732,0.0069071900000000006,-2.167159999999968e-05,-0.0005288948,3.4,0,0
0.00019412,-0.0047977592,0.0072808560000000005,-0.0019994276,-0.0027222088,3.401,0,0
-0.0003658442,-0.0048128471999999995,0.004388174000000001,-0.0025272855999999995,-0.0024307067999999998,3.402,0,0
0.0009838138,0.0010777728000000001,0.0025763960000000003,0.00046456640000000016,0.0014235872,3.403,0,0
0.0021520678,0.0037916748000000004,0.0019370776000000001,0.0018813320000000003,0.001953476,3.404,0,0
0.0023225458000000004,0.0038152414000000006,-0.0005925723999999999,0.0013664892000000003,0.000629786,3.405,0,0
0.0028486578000000004,0.0061950594,-0.0029031744,0.0020096892000000003,0.0015191039999999999,3.406,0,0
0.003035486,0.006060721,-0.0032534024,0.0018039972,0.0010629699999999997,3.407,0,0
0.0012214460000000002,0.001614159,-0.0036035584,-0.0005108588,-0.0020641640000000003,3.408,0,0
-0.001239348,-0.0004701950000000001,-0.004533598,-0.0023355928,-0.0035343180000000003,3.409,0,0
-0.0020101700000000004,0.0005014956,-0.002739798,-0.001902172,-0.002282586,3.41,0,0
-0.0029062968,-0.0013794704,-0.00047269800000000013,-0.0021976287,-0.0026549380000000003,3.411,0,0
-0.0033324794000000003,-0.0003046580000000002,-0.000507362,-0.0013832326999999999,-0.0008216739999999999,3.412,0,0
-0.0012939094000000003,0.005278364000000001,0.001231536,0.0021957113,0.0039101660000000005,3.413,0,0
-0.00048082940000000014,0.0038302160000000004,0.003696916,0.0025392553000000003,0.003215868,3.414,0,0
-0.0017272634,-0.0005151559999999997,0.0027008068000000003,0.0007546453000000001,0.00027125399999999985,3.415,0,0
-0.0009915266000000002,5.378000000000061e-05,0.0018169028,0.0008843646000000001,0.0006531820000000003,3.416,0,0
0.000554114,-0.0015104819999999996,0.0023933917999999998,0.00033203660000000006,-0.0001013439999999998,3.417,0,0
-0.0005556120000000005,-0.006108206000000001,0.00048058980000000007,-0.0022879974,-0.003006778,3.418,0,0
-0.0013596760000000002,-0.00437933,-0.0021517962,-0.0018265934000000002,-0.001228252,3.419,0,0
-0.00022461800000000016,0.0005255520000000001,-0.0021709793999999997,0.0013050866000000002,0.0025518520000000003,3.42,0,0
-0.0010917360000000003,0.001006048,-0.0017313073999999998,0.0019990100000000003,0.0019743692,3.421,0,0
-0.0026448576000000007,0.0014547576,-0.0019234038,0.0020628926000000004,0.0008565852000000003,3.422,0,0
-0.0008735556,0.0035429016000000004,-0.0009673125999999998,0.0029911306,0.0010585432000000002,3.423,0,0
0.0018861124,0.0025248036,0.0004818994000000002,0.0018496106000000004,-0.0003579187999999999,3.424,0,0
0.0025093904000000004,-0.0005683184000000001,0.00012587180000000022,-0.0014496254000000003,-0.0027400988,3.425,0,0
0.0026087692,-0.0010319423999999998,-0.0015658302,-0.0027628134000000004,-0.002787734,3.426,0,0
0.0026612122,-0.0011411177399999997,-0.0017123187999999998,-0.0023328780000000005,-0.0019774204000000003,3.427,0,0
0.0009153161999999999,-0.00276998374,-0.002371014,-0.0032054080000000007,-0.0025871464000000004,3.428,0,0
0.0003629622,0.0009172202600000003,-0.00416591,-0.001545608,-0.0001388584000000001,3.429,0,0
0.0015508342000000001,0.005007460260000001,-0.0031582880000000004,0.00173496,0.0023466256,3.43,0,0
0.0008543514000000002,0.0018923062600000005,-0.0016076220000000004,0.0008283079999999998,0.00015514559999999953,3.431,0,0
-0.00018774199999999975,-0.00019940600000000006,-0.0019378800000000005,-0.0005742260000000004,-0.0003345700000000003,3.432,0,0
0.00026694000000000023,-8.196599999999983e-05,-0.0008697920000000002,0.0002808079999999999,0.0016462679999999998,3.433,0,0
-3.22719999999998e-05,-0.004080638,0.0013537800000000002,-0.0005603222000000003,0.0008773539999999999,3.434,0,0
-0.000928738,-0.007104230000000001,0.0013324620000000002,-0.0025638402000000005,-0.00039638200000000003,3.435,0,0
0.0005178000000000001,-0.00260436,0.001407148,-0.0006676922000000001,0.002451074,3.436,0,0
0.002755672,0.0020730600000000003,0.002854758,0.0022675778,0.003929060000000001,3.437,0,0
0.0030989580000000006,0.0028982260000000003,0.0025590028,0.0022380678,0.0016448120000000003,3.438,0,0
0.002202198,0.0043681554,0.0009162487999999998,0.0021158319999999998,0.0007142080000000002,3.439,0,0
0.0010693620000000004,0.0040899254,2.987999999996523e-07,0.0022958492,0.00047556500000000006,3.44,0,0
-0.0005628000000000001,-0.0004144245999999998,-0.0011222972,0.0006645372,-0.001180213,3.441,0,0
-0.0027696940000000005,-0.0046681506000000005,-0.0029913912,-0.0019906207999999996,-0.0023450570000000002,3.442,0,0
-0.003961844,-0.004767026600000001,-0.0034599340000000004,-0.002376822272,-0.0007561489999999998,3.443,0,0
-0.004057174,-0.00485438,-0.0024369186,-0.002073691272,-0.0004771632000000001,3.444,0,0
-0.0038567660000000006,-0.004930862,-0.0025502586,-0.002432238472,-0.0009293682,3.445,0,0
-0.0017236980000000005,-2.9620000000000167e-06,-0.0026200686000000003,0.0001540395280000002,0.0018825638000000001,3.446,0,0
0.00085589,0.0028453280000000003,-0.0012701566,0.0020528835279999998,0.0020689848,3.447,0,0
0.0014593686000000002,-4.5955999999999775e-05,-0.0025775106,0.00016108500000000005,-0.0012757312,3.448,0,0
0.0021347732,-0.0003791460000000001,-0.0047951,-0.0002258800000000003,-0.001772399,3.449,0,0
0.0026298655999999997,0.0011864240000000002,-0.0032153520000000003,0.0009779979999999999,-0.0012856304,3.45,0,0
0.0009914076000000003,-0.001261454,9.657200000000006e-05,-0.0004980020000000002,-0.0034220624000000006,3.451,0,0
-0.0011234024,-0.0024214472000000007,0.0030139720000000006,-0.0013639548000000002,-0.0031981246000000003,3.452,0,0
-0.0010669788000000002,0.0022319128,0.008076668000000002,0.0021313412,0.0011956934,3.453,0,0
-0.00034666340000000023,0.0046333788,0.013415628000000002,0.004168857200000001,0.0031571874000000002,3.454,0,0
-0.00015196980000000012,0.0035390368,0.013401628000000002,0.0031473112,0.0023316148000000004,3.455,0,0
0.0004655523999999999,0.0036454146,0.010423998000000002,0.0029152412,0.0022751228,3.456,0,0
0.0009595383999999999,0.0016064037999999996,0.007294861000000001,0.001956598,0.0009637720000000001,3.457,0,0
0.0007542362,-0.0028027161999999994,0.0033537190000000002,-0.0012568000000000002,-0.002277056,3.458,0,0
-5.419180000000001e-05,-0.004580770200000001,-0.001977701,-0.00388102,-0.0038941840000000006,3.459,0,0
0.00019552619999999997,-0.0030616522,-0.005864429000000001,-0.0037405542,-0.002595086,3.46,0,0
0.00019213500000000002,-0.003033886,-0.006430309,-0.0040233402,-0.0021473584,3.461,0,0
-0.00015406700000000003,-0.000703452,-0.0067117922,-0.0032895618,-0.00015227239999999977,3.462,0,0
0.000785495,0.005083548,-0.0053672341999999994,0.0007330022,0.0042504376,3.463,0,0
0.00012455699999999986,0.004233776,-0.0019225922,0.0023057962,0.0036325596,3.464,0,0
-0.0020777010000000004,0.0003428139999999999,0.0004707118,0.0011186884,0.0011219916,3.465,0,0
-0.002568274,0.0009066179999999998,0.0011802296,0.0016857034000000001,0.0017107940000000003,3.466,0,0
-0.0025248580000000005,0.0004560905999999999,0.0014164078000000002,0.0016203180000000001,0.0008013118,3.467,0,0
-0.0037529760000000003,-0.0031270526,-6.029620000000001e-05,-0.0012011460000000002,-0.0024205842,3.468,0,0
-0.002862884,-0.0014381606000000002,-0.0023506922,-0.001527788,-0.0013567861999999999,3.469,0,0
-0.00012242799999999973,0.0030485794,-0.0017984588000000002,0.0013757920000000002,0.0023197998000000003,3.47,0,0
0.0008299300000000001,0.0022652554,-0.0011326646,0.002158437,0.0020969438000000003,3.471,0,0
0.0010830462,0.0013344407999999997,-0.0016327166000000002,0.0015710860000000002,0.0009454720000000002,3.472,0,0
0.0020383842,0.0016736539999999995,-0.0010276426000000003,0.0018730780000000002,0.0011324598000000002,3.473,0,0
0.0024255862,-0.0005825560000000003,-0.0004047406000000001,0.000737334,-0.00019735219999999967,3.474,0,0
0.0014907710000000001,-0.0030695880000000007,-0.001153214,-0.001917924,-0.0032900562000000005,3.475,0,0
0.000786878,-0.0015414920000000004,-0.002015098,-0.0028719836000000005,-0.0037136230400000004,3.476,0,0
0.0009448296000000001,0.0009135599999999999,-0.0014682464,-0.0019432416000000003,-0.0019797710400000002,3.477,0,0
-5.527240000000012e-05,0.0007503981999999998,-0.0017331584,-0.0021819896000000003,-0.0020772268400000007,3.478,0,0
-0.0012861524000000002,0.0034021402,-0.0024883704000000003,-0.0006395436,0.00033675516,3.479,0,0
-0.0011637452,0.005964634200000001,-0.0009721844000000001,0.0025112184,0.00333502916,3.48,0,0
-0.0017285182000000001,0.0026715722000000006,0.00043135759999999993,0.0014037580000000002,0.0016038039999999995,3.481,0,0
-0.002972398,-0.0014931118000000004,0.0003211127599999999,-0.00037689599999999983,0.00040958399999999973,3.482,0,0
-0.0025836780000000003,-0.00388622,0.0015308747599999998,5.9698600000000106e-05,0.0011262820000000002,3.483,0,0
-0.00156863,-0.007582598,0.0032030247600000005,-0.0011212753999999998,-0.0008704880000000002,3.484,0,0
-0.001817564,-0.010824288,0.0023095297600000003,-0.0032297660000000002,-0.0028487960000000002,3.485,0,0
-0.0010480508,-0.008138984000000002,0.00173632976,-0.000971836,2.0377999999999933e-05,3.486,0,0
0.0011240952,-0.003289644,0.0033136290000000007,0.0028109800000000002,0.00259954,3.487,0,0
0.0026257732,-0.00042340399999999973,0.0035097470000000006,0.0033501154,0.0017683859999999998,3.488,0,0
0.0035066272000000005,0.003156906,0.0024726530000000004,0.0036115864000000005,0.0016077399999999999,3.489,0,0
0.0044801792,0.005582888,0.0028727820000000004,0.0038880452,0.0017960393999999998,3.49,0,0
0.005074554,0.0033273219999999997,0.0023763262000000003,0.0019662572,-0.0004178926000000002,3.491,0,0
0.004345042,3.4842000000000206e-05,-0.0007638958000000001,-0.0008625808000000001,-0.0028689666,3.492,0,0
0.0024964159999999996,-0.00025343800000000036,-0.0028859938,-0.0014560018,-0.0020950806000000002,3.493,0,0
-0.00020543199999999997,-0.0015713994000000004,-0.0028950258,-0.0016714408,-0.0015976686000000004,3.494,0,0
-0.003096404,-0.002626957,-0.0048246258,-0.002797145,-0.0022726860000000003,3.495,0,0
-0.003949306,0.0022653649999999997,-0.005805736,-0.000785383,0.0004179059999999998,3.496,0,0
-0.0028478979999999997,0.005399645,-0.0021905060000000005,0.0009009830000000002,0.0016570159999999999,3.497,0,0
-0.0020548396,0.002735524999999999,-0.0003183260000000003,-0.001146126,-0.0009188500000000006,3.498,0,0
-0.00028919759999999987,0.0022122023999999996,-0.0007580080000000003,-0.001941636,-0.0010062380000000004,3.499,0,0
0.0024031764,0.002913983999999999,0.0007018381999999997,-0.00134703,1.224399999999958e-05,3.5,0,0
0.0022179504000000004,-0.0013131720000000003,0.0009480582,-0.003272332,-0.0018273300000000003,3.501,0,0
-0.00010486160000000003,-0.004147732000000001,-0.0022389198,-0.0044498654,-0.0023613838,3.502,0,0
-0.00020416600000000006,0.00014451000000000004,-0.0036307277999999997,-0.0010231953999999999,0.0013916782,3.503,0,0
0.000246578,0.002410764,-0.0020565718,0.0016985226,0.0034241542000000005,3.504,0,0
-0.0004237286000000001,0.0010757800000000001,-0.00138972,0.0019270644000000002,0.0026397822000000003,3.505,0,0
0.0006256914000000001,0.002465934,-0.0006956940000000003,0.0029805424000000002,0.0026305162,3.506,0,0
0.0021375594,0.003024774,0.000787156,0.0031216402000000002,0.0018919219999999999,3.507,0,0
0.0014776274000000002,-0.00026761199999999975,0.0014160350000000002,0.0007309121999999999,-0.0006206340000000001,3.508,0,0
0.00016252940000000004,-0.00204658662,0.0006271257999999999,-0.0012713898,-0.0022512092,3.509,0,0
0.0004909739999999999,-0.00047567661999999976,0.0005628738,-0.0006879836000000002,-0.0011525392000000002,3.51,0,0
0.0003207440000000001,-0.0011296166199999999,0.0014135298,-0.0012893496,-0.0012778252,3.511,0,0
-0.00045888799999999985,-0.0003824066199999998,0.0010104130000000002,-0.0019293960000000003,-0.0008502222000000003,3.512,0,0
0.0009982900000000002,0.00458385738,0.002056502,0.0008251680000000001,0.0023287518,3.513,0,0
0.002434152,0.004906538,0.004394897200000001,0.0014815562000000003,0.001979423,3.514,0,0
0.0023029720000000004,0.002233754000000001,0.004605361200000001,-0.0007379778,-0.00046875300000000014,3.515,0,0
0.0027202880000000004,0.0033770759999999997,0.0036620308000000004,-0.00043458480000000007,-4.4071200000000047e-05,3.516,0,0
0.0022705439999999998,0.0025290980000000005,0.0028228456000000007,0.00015692920000000016,-1.776939999999996e-05,3.517,0,0
-0.001180872,-0.0029610079999999998,0.00013157360000000005,-0.0020832548,-0.0024100752000000003,3.518,0,0
-0.003528496,-0.004173462,-0.0046452664000000005,-0.0020355550000000005,-0.0014255311999999997,3.519,0,0
-0.003288746,-0.0012810279999999998,-0.006802488400000001,0.001467295,0.0026617048000000003,3.52,0,0
-0.004496904,-0.002510018,-0.006296874,0.0027119200000000005,0.0036718670000000005,3.521,0,0
-0.00537145,-0.00465611,-0.00567929,0.0023009460000000008,0.0029902402,3.522,0,0
-0.0038642620000000003,-0.004063690000000001,-0.0030772200000000003,0.0026505054000000006,0.0029436940000000006,3.523,0,0
-0.0037633420000000002,-0.005382062000000001,0.0014766400000000002,0.0017311154000000007,0.001432358,3.524,0,0
-0.006021818,-0.008289898,0.0038370400000000003,-0.0008524686,-0.0018491620000000001,3.525,0,0
-0.00674705,-0.007812925400000002,0.0042410600000000005,-0.0021770142,-0.003228334,3.526,0,0
-0.0039578619999999995,-0.004004951400000001,0.006068742,-0.0012847662,-0.002203716,3.527,0,0
-0.0004410499999999997,-0.0013981354000000004,0.005502236000000001,-0.0017852596,-0.002499864,3.528,0,0
0.0032414740000000003,0.0036159245999999997,0.002430352,-0.0009413724,-0.000908376,3.529,0,0
0.006987328000000001,0.0098769666,0.0021731880000000004,0.0021563176000000002,0.0020773120000000004,3.53,0,0
0.008003634,0.009995826000000001,0.0019502000000000002,0.0013923892000000005,0.0006993200000000005,3.531,0,0
0.006374006000000001,0.008890431800000001,-4.1339999999999845e-05,-0.0007613347999999996,-0.0012895919999999998,3.532,0,0
0.00387954,0.0093315858,0.0001179440000000002,-0.00020340799999999968,-0.001046348,3.533,0,0
0.00115031,0.0067041392000000005,0.0013588780000000002,-0.0009147331999999999,-0.002377208,3.534,0,0
-0.0009979432000000001,0.0012623532,0.0004828120000000001,-0.0038137772,-0.004345379,3.535,0,0
-0.0005274811999999999,-0.0011143488,-0.0008100840000000002,-0.0023972092000000005,-0.0012266689999999997,3.536,0,0
0.0010551548,-0.0024296086,-2.6736000000000186e-05,0.0013580608000000002,0.0027995290000000003,3.537,0,0
0.0012518286000000002,-0.0054019205999999995,0.000679346,0.002005752,0.002682013,3.538,0,0
0.0010191306000000002,-0.0064052480000000005,-3.3439999999999924e-05,0.001792174,0.0022455749999999997,3.539,0,0
0.0010197450000000003,-0.005597563200000001,5.7449599999999986e-05,0.00210101,0.001957602,3.54,0,0
0.0006577064000000001,-0.004350919200000001,0.0006284744000000001,0.0007596180000000001,-0.000651132,3.541,0,0
-0.00043004360000000006,-0.0031597192000000006,-0.0006173375999999999,-0.00208292,-0.003308248,3.542,0,0
-0.0006884668,-0.0005002812000000005,-0.0029506716000000004,-0.00222446,-0.002454626,3.543,0,0
-0.00039059280000000005,0.0009813907999999998,-0.0037611756000000005,-0.00107994,-0.0014293860000000002,3.544,0,0
-0.0013505460000000002,-1.175200000000029e-05,-0.0056978872000000005,-0.0016231400000000001,-0.0018212560000000003,3.545,0,0
-0.0012629342000000003,0.002137912,-0.007812748,0.000573816,0.00073059,3.546,0,0
-0.0001793242000000001,0.0031469640000000004,-0.006646836000000001,0.003280182,0.002460774,3.547,0,0
-0.0011139368000000003,-0.0013415060000000003,-0.0051114540000000005,0.001250088,8.0042e-05,3.548,0,0
-0.0017653708000000003,-0.003038082000000001,-0.003378658,-0.00025007399999999987,5.45188e-05,3.549,0,0
-0.0005667323999999998,-0.0012358940000000002,0.0005507579999999997,0.0006959778000000002,0.0019399187999999997,3.55,0,0
-0.0008918407999999999,-0.002855580000000001,0.004702563999999999,-0.0011931142,-0.0001670052000000002,3.551,0,0
-0.0021061262000000003,-0.003488818000000001,0.006205454,-0.0031645628000000004,-0.0019620812,3.552,0,0
-0.0005391042000000001,0.0015072080000000001,0.007792558000000001,-0.00018505880000000015,0.0013966928,3.553,0,0
0.0015693458,0.004184018,0.009710462,0.0024818772,0.002610096,3.554,0,0
0.0019409994000000002,0.003004692,0.007642861999999999,0.0023423974,0.0003663159999999998,3.555,0,0
0.0024645506000000005,0.0026675559999999997,0.0032471360000000003,0.0025638074000000005,0.0005059899999999997,3.556,0,0
0.0029877840000000007,0.0011523259999999997,-0.00016698600000000004,0.002344842,0.0004313679999999996,3.557,0,0
0.0026365682000000002,-0.0013996100000000004,-0.003591848,0.00022438599999999992,-0.0017180260000000005,3.558,0,0
0.001701306,-0.0023633180000000005,-0.006790482,-0.0017190360000000002,-0.00228683,3.559,0,0
0.0011826666,-0.0018014982000000004,-0.006187450000000001,-0.0013965140000000002,-0.00011893600000000026,3.56,0,0
0.00015922059999999994,-0.0029191562,-0.00278277,-0.001608792,0.0004554959999999998,3.561,0,0
-0.0021673814,-0.0027411742,-0.0009926420000000002,-0.00182465,0.0007251699999999998,3.562,0,0
-0.0031526256000000002,0.0013366758000000005,0.000818678,0.00095363,0.003359174,3.563,0,0
-0.0037799994,0.0019858058000000005,0.00311711,0.0022005419999999998,0.002525638,3.564,0,0
-0.005213358,0.00048213600000000063,0.0026982599999999996,0.00025014200000000007,-0.00085285,3.565,0,0
-0.004884452,0.0027560200000000005,0.0014861700000000002,0.000293132,-0.0012513020000000001,3.566,0,0
-0.002665402,0.00408541,0.0012690764000000002,0.0006188673999999999,-0.0014734200000000002,3.567,0,0
-0.0008052100000000002,0.0015287480000000001,0.00038327040000000025,-0.0021831326,-0.003975112,3.568,0,0
0.001171152,0.002574794,-0.0015566676,-0.0030614214000000005,-0.003339518,3.569,0,0
0.004286558,0.006868806000000001,-0.001580944,0.0003749946,0.0010304620000000002,3.57,0,0
0.005727808,0.0065071792,-0.00019476400000000005,0.0024506246000000004,0.0023434840000000003,3.571,0,0
0.0051804419999999995,0.0039180432,0.0003421416,0.0022303532,0.0015851200000000002,3.572,0,0
0.004149244999999999,0.0015089531999999998,0.0011895115999999999,0.0027734840000000005,0.00188496,3.573,0,0
0.0025558154,-0.003171426800000001,0.0014568236,0.0023052928,0.0010010600000000002,3.574,0,0
0.0006281634000000001,-0.007601832800000001,-0.00012026199999999989,-0.0003858952,-0.00162143,3.575,0,0
-0.0006235892,-0.007217110000000001,-0.002479202,-0.0024592552,-0.002262126,3.576,0,0
-0.0004645752,-0.0040547260000000016,-0.003940026,-0.0023031552,-0.00057587,3.577,0,0
-0.0019594142,-0.0037935260000000006,-0.005618074,-0.003030062,-0.001054942,3.578,0,0
-0.0043470926000000005,-0.001486403456,-0.006772182,-0.0023468914000000004,8.90540000000002e-05,3.579,0,0
-0.004774598600000001,0.0034514225440000004,-0.00404213,0.0010086146000000005,0.0032277440000000003,3.58,0,0
-0.005465590000000001,0.002734016544,-0.001131319999999999,0.0009945046000000004,0.0017583420000000004,3.581,0,0
-0.006022398000000002,0.001179524544,-0.0005202739999999998,-0.0003994033999999999,-0.00041451599999999976,3.582,0,0
-0.004234804,0.0032479805439999997,0.0014193960000000003,0.0006137611999999998,0.0005389060000000001,3.583,0,0
-0.0005922520000000001,0.002874796,0.0036512020000000005,0.0002963982000000002,-0.000319754,3.584,0,0
0.002743178,-0.0006595014,0.0025663054,-0.0023799298000000005,-0.0029506046000000005,3.585,0,0
0.00514505,-0.0007840414,0.0010478608000000001,-0.0012014758,-0.0005843966000000005,3.586,0,0
0.0064231060000000005,0.0008721146,0.0026243348,0.0027481722,0.0032535434,3.587,0,0
0.005628632000000001,-0.0007625594000000001,0.0033822628000000003,0.0032788336000000003,0.0025815434,3.588,0,0
0.0027067040000000007,-0.0029739574,0.0024643890000000004,0.0027377020000000003,0.0011047314,3.589,0,0
-0.001197038,-0.003762984,0.0027324396000000003,0.0032777120000000003,0.0004614059999999995,3.59,0,0
-0.0036456540000000003,-0.004542316,0.0028093534000000002,0.0018965860000000005,-0.0016060460000000003,3.591,0,0
-0.004766348,-0.00633153,0.0013130194,-0.001393424,-0.003977922,3.592,0,0
-0.0044795716,-0.005367384,0.0003275954,-0.0021630748000000003,-0.0031877100000000007,3.593,0,0
-0.0025271936,-0.00308498,0.0013945832,-0.0015491158000000003,-0.0017577720000000001,3.594,0,0
-0.00027303760000000027,-0.002437128,0.0011050600000000002,-0.0029728798,-0.002112346,3.595,0,0
0.0037352423999999994,0.003279122,0.00024425680000000004,-0.0018851338000000003,0.00028318799999999997,3.596,0,0
0.0075877424,0.008670428,0.0017517768000000003,0.0005229582000000001,0.002190888,3.597,0,0
0.0077011372,0.006945012,0.0023430968,-0.000994349,-0.00019094399999999997,3.598,0,0
0.006581181199999999,0.005980796,0.0010694988,-0.0023575560000000002,-0.0009172340000000001,3.599,0,0
0.0052446732,0.005949918,0.001343648,-0.001589176,8.073720000000006e-05,3.6,0,0
0.0011358032000000008,0.0002286779999999993,0.00225749,-0.002678052,-0.0019708788,3.601,0,0
-0.0035220908,-0.004343015,0.0009421494,-0.004406,-0.0034964228000000006,3.602,0,0
-0.003999914,-0.00027463500000000007,-2.5406399999999994e-05,-0.0017250560000000002,0.0006886971999999999,3.603,0,0
-0.00227305,0.003579437,0.0005344076000000001,0.0018762299999999998,0.0041037472000000005,3.604,0,0
-0.001889541,0.0035559750000000003,-0.0005265564,0.0025156679999999996,0.0035452239999999996,3.605,0,0
-0.001540863,0.004265861000000001,-0.0031428843999999996,0.0029571759999999997,0.003629072,3.606,0,0
-0.0008421710000000001,0.003206886000000001,-0.0054843178,0.0033444896,0.003149938,3.607,0,0
-0.001116415,-0.001946694,-0.008253996,0.0016778776,9.370000000000081e-06,3.608,0,0
-0.0017093089999999998,-0.005738358,-0.010972876,-0.000530154,-0.0023519022,3.609,0,0
-0.0013318219999999999,-0.00484672,-0.01123383,-0.00013474000000000006,-0.0009142682,3.61,0,0
-0.0008972953999999998,-0.005231508,-0.009017751400000001,-7.083280000000003e-05,-0.0003284141999999999,3.611,0,0
-0.0007282554000000001,-0.004901322,-0.0067777334,-0.0006754864,1.7339800000000077e-05,3.612,0,0
0.0005499106,0.0007346380000000001,-0.0031888054000000004,0.0015422416000000002,0.0031396078000000003,3.613,0,0
0.0010991806000000002,0.003096384,0.0020220745999999998,0.0021610652000000003,0.0027993400000000004,3.614,0,0
0.00017041060000000006,0.0012213719999999999,0.0052379846,-0.0003755548,-0.0008732719999999996,3.615,0,0
-0.00060253,0.0014011500000000003,0.007190192000000001,-0.0008579280000000002,-0.0017518600000000003,3.616,0,0
-0.0017411400000000002,-0.00010834799999999986,0.009736874,-0.0003561508000000002,-0.002151018,3.617,0,0
-0.003808624,-0.005463008,0.010939016000000001,-0.0021553988000000005,-0.00470818,3.618,0,0
-0.005995044000000001,-0.007413294,0.009294124,-0.0022321168000000004,-0.0035658840000000005,3.619,0,0
-0.006182623999999999,-0.00441912,0.007856186,0.0017323131999999997,0.001743836,3.62,0,0
-0.004854246000000001,-0.0027156360000000004,0.0069609419999999995,0.0042102612,0.003943692,3.621,0,0
-0.002855504,-0.0012829100000000004,0.004797725399999999,0.0042389433999999995,0.003450916,3.622,0,0
0.00011747199999999998,0.0016932619999999996,0.00289448,0.0050311114,0.0034104240000000004,3.623,0,0
0.0025735920000000004,0.0018805999999999996,0.0015721519999999998,0.0047626634,0.002006168,3.624,0,0
0.0031656588,-0.001009616,-0.0007367780000000003,0.0023089174,-0.0007226859999999999,3.625,0,0
0.0030929948000000002,-0.0009120300000000001,-0.00392168,0.0008817173999999999,-0.0013984980000000002,3.626,0,0
0.0039430708,0.0015855539999999999,-0.0059240534000000004,0.0016130699999999999,0.0003028880000000002,3.627,0,0
0.0032001068,0.00043158599999999965,-0.007751590000000001,0.0004748059999999999,0.0005388314,3.628,0,0
0.0018733487999999998,0.0018191619999999998,-0.010370270000000001,-0.00014091600000000004,0.0020762074,3.629,0,0
0.002428206,0.00673899,-0.009874711999999999,0.00224435,0.005166921400000001,3.63,0,0
0.0017494759999999998,0.0055322570000000005,-0.005667026,0.0013587120000000002,0.0037851454,3.631,0,0
-0.00020744600000000007,0.002709367,-0.000564316,-0.001759054,0.0012869274,3.632,0,0
-0.0001600280000000001,0.004280129,0.004712036,-0.002175672,0.0014239041999999998,3.633,0,0
0.000865122,0.0030869350000000007,0.009020776000000001,-0.003302134,-0.0003466318000000001,3.634,0,0
0.0010155479999999998,-0.001294575,0.009188158000000002,-0.006969248000000001,-0.004100387800000001,3.635,0,0
0.002237884,-3.20120000000001e-05,0.0047349720000000005,-0.007185498,-0.0029380778,3.636,0,0
0.004830646000000001,0.003472368,-0.0003246019999999998,-0.003918934000000001,0.0004044102000000001,3.637,0,0
0.005372430000000001,0.002026622,-0.004957670000000001,-0.0028394034,-0.00046164999999999997,3.638,0,0
0.0036264920000000003,-0.0003770940000000001,-0.00872603,-0.0027642694,-0.00186987,3.639,0,0
0.0021786560000000006,-0.0011966,-0.009877101999999999,-0.0017270654000000002,-0.0021513620000000004,3.64,0,0
0.0006871160000000006,-0.003714052,-0.009054882,-0.0023672794,-0.004862900000000001,3.641,0,0
-0.0016254379999999999,-0.00644249,-0.007106809600000001,-0.0047941614,-0.00816349,3.642,0,0
-0.0027518044,-0.00469639,-0.0027734015999999998,-0.00563518,-0.00793166,3.643,0,0
-0.001771195952,-0.0010669280000000002,0.0034245984000000006,-0.005203234,-0.007060520000000001,3.644,0,0
-0.0011947219519999998,4.5111999999999984e-05,0.007779118400000002,-0.006614544000000001,-0.008368252000000001,3.645,0,0
-3.0009952000000103e-05,0.0035283280000000003,0.011143670400000001,-0.006329906000000001,-0.006965356000000001,3.646,0,0
0.001768814048,0.007041666000000001,0.013459692,-0.004567098,-0.0051918458,3.647,0,0
0.001285666448,0.004374978000000001,0.010564278,-0.00657876,-0.0077335818,3.648,0,0
0.0004441339999999999,0.0023987260000000008,0.0048744980000000005,-0.008350542,-0.0085501218,3.649,0,0
0.00034314799999999993,0.0027548774000000008,0.0013775919999999997,-0.006647148,-0.0056909838,3.65,0,0
-0.0013692020000000001,-0.0009399565999999997,-0.001388704,-0.004569104,-0.0041727938,3.651,0,0
-0.004223636,-0.005371902600000001,-0.004947644,-0.0017008739999999998,-0.0024349439999999988,3.652,0,0
-0.004816926000000001,-0.0033897706000000005,-0.006389482,0.006233026000000001,0.004430136,3.653,0,0
-0.004153772400000001,-0.0013667846,-0.0045309104,0.014943686000000001,0.010397676000000002,3.654,0,0
-0.004786316400000001,-0.003121488,-0.0027346783999999996,0.018945152,0.011493944000000002,3.655,0,0
-0.0054546964,-0.0037957140000000004,-0.0018348123999999996,0.021308100000000003,0.012526642000000001,3.656,0,0
-0.0048896304,-0.004227646,-0.0004381124,0.022200100000000004,0.01361571,3.657,0,0
-0.0041113364,-0.005823480000000001,0.00048240960000000004,0.0198095,0.012675510000000001,3.658,0,0
-0.00356965,-0.00589921,4.517400000000004e-05,0.017029839999999997,0.01272855,3.659,0,0
-0.0017828259999999995,-0.003079562,-0.00016813799999999997,0.017287120000000003,0.016495644,3.66,0,0
2.0731600000000166e-05,-0.00142729,0.000967362,0.016912280000000002,0.01903354,3.661,0,0
-0.00044768239999999995,-0.0001894580000000001,0.000634962,0.014213994,0.0197986,3.662,0,0
-0.0011265344000000001,0.003948652,0.0010796360000000001,0.013699554000000001,0.02276762,3.663,0,0
-0.0009919064000000002,0.005983606000000001,0.0037482800000000005,0.011168858,0.02215226,3.664,0,0
-0.0019646324000000006,0.0036175140000000005,0.004100872,0.0026021179999999996,0.01490116,3.665,0,0
-0.0013734980000000001,0.0038363020000000006,0.0030040118000000003,-0.007027582,0.006444940000000001,3.666,0,0
0.002915068,0.006130066000000001,0.0033617998000000007,-0.016551256,-0.00414792,3.667,0,0
0.00687598,0.0031801796,0.0019381538000000005,-0.028572276,-0.01908502,3.668,0,0
0.009152176000000001,0.00039056800000000005,-0.0027686062,-0.0386304,-0.031685780000000004,3.669,0,0
0.012274288,0.0039229,-0.0041546042,-0.040700940000000005,-0.036310880000000004,3.67,0,0
0.014029200000000002,0.003907638,-0.0020925780000000003,-0.03845876000000001,-0.037558980000000006,3.671,0,0
0.012401912000000001,-0.0017150200000000007,-0.0013142179999999996,-0.03427348,-0.03716804,3.672,0,0
0.010311260000000001,-0.004623113600000001,-0.0003765120000000001,-0.025769270000000004,-0.03249504,3.673,0,0
0.007365626800000001,-0.007290062,0.0017446199999999997,-0.014909572000000001,-0.02605416,3.674,0,0
0.0030486168,-0.010619092,0.002715198,-0.004949312000000001,-0.020207516,3.675,0,0
-0.00022002519999999985,-0.007920130000000001,0.0013096700000000002,0.004234608,-0.013285894000000001,3.676,0,0
-0.0024623492,-0.0001819100000000004,-8.292599999999982e-05,0.013687428000000001,-0.004300114000000001,3.677,0,0
-0.0056809172,0.004310126,-0.001129438,0.019640118,0.0023814459999999997,3.678,0,0
-0.008957344,0.009034766000000001,-0.0038224500000000002,0.02377142,0.009493246,3.679,0,0
-0.009701234,0.016140716,-0.006948256,0.030187060000000005,0.019634282,3.68,0,0
-0.010493996,0.016325756,-0.010067156,0.03398384000000001,0.02693686,3.681,0,0
-0.012013704,0.010204616000000001,-0.013830088,0.03515358000000001,0.03377422000000001,3.682,0,0
-0.010963698000000001,0.0032546599999999995,-0.01572354,0.03775734000000001,0.04402976000000001,3.683,0,0
-0.008361268,-0.005661320000000001,-0.0129039726,0.038276700000000004,0.051390740000000004,3.684,0,0
-0.0061059854000000005,-0.01507908,-0.0079289326,0.032301180000000006,0.051293660000000005,3.685,0,0
-0.0035153454,-0.017384408,-0.0013828325999999998,0.024819162000000002,0.04907360000000001,3.686,0,0
-0.0007880354,-0.012151728,0.0097236074,0.018506854,0.043607440000000004,3.687,0,0
-0.0007086254,-0.005675113999999999,0.0200160274,0.008207174000000001,0.028968020000000004,3.688,0,0
-0.0031383154,-0.001206994,0.02440264,-0.004601106,0.010069280000000002,3.689,0,0
-0.006425518,0.00017522599999999968,0.02551166,-0.015854606,-0.0073086,3.69,0,0
-0.008605684,-0.0028053460000000002,0.022407526,-0.025630468,-0.02272262,3.691,0,0
-0.008032156,-0.007762738000000001,0.012937466,-0.03360168,-0.034330519999999996,3.692,0,0
-0.006203910000000001,-0.007898746,0.0028569660000000003,-0.03582338,-0.03826146,3.693,0,0
-0.0018382900000000002,-0.004158862000000001,-0.003987854000000001,-0.0328361,-0.036075079999999995,3.694,0,0
0.0035710900000000003,-0.002063182940000001,-0.010755474000000001,-0.03023378,-0.03342952,3.695,0,0
0.0074591,0.0027170970599999997,-0.016561560000000003,-0.025722260000000004,-0.0283832,3.696,0,0
0.008903622,0.00697504906,-0.018452800000000002,-0.02128124,-0.024027279999999998,3.697,0,0
0.008191139420000002,0.0037801430600000003,-0.020144280000000004,-0.02281238,-0.027996220000000002,3.698,0,0
0.00838875142,0.00245979166,-0.022807640000000004,-0.024637660000000002,-0.03252406000000001,3.699,0,0
0.00910179142,0.005300272600000001,-0.019623410000000008,-0.0221896,-0.031158520000000006,3.7,0,0
0.010706091420000001,0.0050925446,-0.01036799,-0.020047580000000002,-0.029396252000000005,3.701,0,0
0.014683131419999999,0.0046398626,-0.00259411,-0.018541374000000003,-0.026336642000000007,3.702,0,0
0.019649332,0.0092618626,0.00437425,-0.012341282,-0.015542560000000004,3.703,0,0
0.02150134,0.01161489,0.013320170000000001,-0.005307582,-0.004276014,3.704,0,0
0.020731939999999997,0.007922764,0.01759762,-0.002062090000000001,-0.0002775108000000002,3.705,0,0
0.017860528,0.0049177100000000005,0.017196299999999998,0.0004784359999999995,0.00172357518,3.706,0,0
0.011333442,0.0019400759999999996,0.01794544,0.00428891,0.0037562911799999994,3.707,0,0
0.003984802,-0.003105144,0.016736090000000002,0.007579858,0.0037566271800000004,3.708,0,0
-0.004180018,-0.006100112,0.010358230000000001,0.009532178,0.0030507531800000004,3.709,0,0
-0.012152278,-0.0021908060000000004,0.002681910000000001,0.012489146000000001,0.00455792798,3.71,0,0
-0.020360366,0.0018675360000000004,-0.003080067999999999,0.01453014,0.005011668,3.711,0,0
-0.02976894,0.0033657540000000007,-0.008443938,0.01467816,0.004170330000000001,3.712,0,0
-0.034990400000000005,0.010709694,-0.010049018,0.016481000000000003,0.007111852000000001,3.713,0,0
-0.03416246,0.016331922,-0.005420454,0.01757712,0.00923514,3.714,0,0
-0.03057644,0.013461758,0.00033626199999999993,0.015350632000000001,0.008717668,3.715,0,0
-0.024352558000000003,0.01083811,0.005478440000000001,0.0135196,0.008938496,3.716,0,0
-0.013924429999999998,0.007028927999999999,0.01028589,0.011490262000000001,0.0076994540000000005,3.717,0,0
-0.0026996099999999994,-0.007433172,0.01176337,0.00516371,0.002454702,3.718,0,0
0.008679590000000001,-0.020848352,0.007554506000000001,-0.0038358100000000003,-0.0027187780000000007,3.719,0,0
0.023388190000000003,-0.020825134000000002,0.0012454299999999996,-0.011349102,-0.0037490046,3.72,0,0
0.037924948,-0.018522346000000002,-0.004366910000000001,-0.015709670000000002,-0.004083564600000001,3.721,0,0
0.046334120000000006,-0.015402500000000005,-0.009279642000000001,-0.016224428000000003,-0.0041152706,3.722,0,0
0.04661372,-0.005520054000000002,-0.011230722000000002,-0.011435556000000001,-0.0004031225999999999,3.723,0,0
0.038769604,0.0014108399999999998,-0.008998538800000002,-0.00046453599999999977,0.0055131174,3.724,0,0
0.024070004,-0.0012567140000000001,-0.004686338800000001,0.013955864,0.010604978000000001,3.725,0,0
0.007980604,-0.005530656,-0.0022487546,0.026753404,0.017641116,3.726,0,0
-0.004866016,-0.006271856000000001,-0.0010155829300000003,0.03585254,0.027745036,3.727,0,0
-0.014757956000000001,-0.007206482000000001,-0.00032563493,0.03912682000000001,0.034835780000000004,3.728,0,0
-0.02041052,-0.004227982,-0.00211824813,0.03761864000000001,0.04068158,3.729,0,0
-0.021515500000000003,0.0038539179999999996,-0.0028776181299999997,0.03515948,0.04837636,3.73,0,0
-0.021429780000000002,0.007890959999999999,-0.0015453183299999995,0.0287732,0.050464659999999995,3.731,0,0
-0.02059284,0.0088822088,-0.0008411519999999995,0.018710654000000007,0.047656779999999996,3.732,0,0
-0.0168774,0.0115828688,0.0011019520000000007,0.01064882,0.04656592,3.733,0,0
-0.012978100000000001,0.010666680799999998,0.0056664820000000005,0.002297219999999999,0.04234446,3.734,0,0
-0.011705780000000002,0.005048711000000001,0.008298174,-0.0097691,0.0302015,3.735,0,0
-0.0096419588,0.003921879,0.007657898000000001,-0.02012382,0.015888299999999998,3.736,0,0
-0.0061567548000000015,0.0055616122,0.007334672,-0.025886734,0.00017905999999999998,3.737,0,0
-0.004195218800000001,0.0009539321999999999,0.005266106000000001,-0.03231064,-0.022186080000000004,3.738,0,0
-0.0027887908000000005,-0.0061253538,0.0006133459999999999,-0.038682259999999996,-0.04655526,3.739,0,0
-0.0010665428000000002,-0.010796024000000001,-0.004673176,-0.04038324,-0.06744812,3.74,0,0
-0.0006280780000000002,-0.014696772,-0.010621124000000001,-0.0393318,-0.0843546,3.741,0,0
0.000569986,-0.015281244,-0.015338064000000002,-0.03592864,-0.09292064000000001,3.742,0,0
0.005841890000000001,-0.008358583999999999,-0.015373526,-0.027309838,-0.08847562,3.743,0,0
0.014332422000000001,0.002342436,-0.009564466,-0.013093598,-0.07406660000000002,3.744,0,0
0.022113514,0.009231656,-0.0016195460000000004,0.0016947019999999993,-0.05437701000000001,3.745,0,0
0.027918388000000002,0.015162276,0.006910234,0.016527082,-0.027534290000000006,3.746,0,0
0.030228200000000004,0.01775538,0.015301014,0.031995662,0.0003579300000000011,3.747,0,0
0.024787258000000003,0.01038644,0.01831544,0.0403311,0.020333950000000003,3.748,0,0
0.013683078000000005,0.0023746200000000005,0.013931227999999999,0.042249980000000006,0.03636441,3.749,0,0
0.0017664579999999994,-0.0017709660000000001,0.007527654,0.043947160000000006,0.05071752,3.75,0,0
-0.010741622,-0.008358886,0.0008254139999999996,0.042111279999999994,0.05731292,3.751,0,0
-0.023235002,-0.015708826,-0.008842366,0.03451022,0.05659890000000001,3.752,0,0
-0.031789239999999996,-0.014964046,-0.018343386000000003,0.02954162,0.05565392000000001,3.753,0,0
-0.03476382,-0.009970434,-0.025046754,0.02559832,0.052631580000000004,3.754,0,0
-0.03388848,-0.006682011999999999,-0.03206746,0.015456664000000002,0.04538566000000001,3.755,0,0
-0.03142372,-0.0029549459999999995,-0.0359181,0.0043685239999999995,0.03978798,3.756,0,0
-0.0282651,-0.0010914380000000001,-0.029470654000000002,-0.005569396000000001,0.03553184,3.757,0,0
-0.02396422,-0.0017136380000000002,-0.017217534,-0.016975676000000002,0.026022396000000003,3.758,0,0
-0.01924195,-0.0018476760000000004,-0.00038447399999999923,-0.028221616,0.011916376000000003,3.759,0,0
-0.01339055,-0.00018879200000000013,0.022188286,-0.0370538,-0.006110584000000001,3.76,0,0
-0.00378039,0.0014100059999999997,0.037823006000000006,-0.0458585,-0.03191846400000001,3.761,0,0
0.00938787,0.004288566,0.038282966,-0.055284520000000004,-0.05932480400000001,3.762,0,0
0.02484707,0.011073266000000002,0.032119824,-0.06102136,-0.07911996,3.763,0,0
0.03796336,0.013535632,0.0223448418,-0.06449470000000002,-0.09382182000000001,3.764,0,0
0.04346594000000001,0.008724358000000002,0.007370005800000001,-0.06694312,-0.10082800000000001,3.765,0,0
0.043690900000000005,0.006586171800000002,-0.0036970142000000007,-0.06287670000000001,-0.09125330000000001,3.766,0,0
0.03855748,0.007080309800000002,-0.007312360200000001,-0.050757140000000006,-0.070701278,3.767,0,0
0.02382994,0.0026252017999999996,-0.007470254200000001,-0.033744380000000004,-0.04318923800000001,3.768,0,0
0.002916819999999999,-0.0024464122000000003,-0.006753638000000001,-0.011204540000000002,-0.007104178000000003,3.769,0,0
-0.01592262,-0.0008213948000000002,-0.004275106000000001,0.01801648,0.033299982,3.77,0,0
-0.029827560000000003,-0.0005202044000000002,0.0012638540000000002,0.047076780000000006,0.069481122,3.771,0,0
-0.03866376,-0.005896770400000001,0.006085234,0.06762712,0.0943029,3.772,0,0
-0.040291560000000004,-0.0086994824,0.008542538,0.07724822,0.10774306,3.773,0,0
-0.03376988,-0.0081476884,0.010855364,0.07653572,0.11197800000000001,3.774,0,0
-0.023098999999999998,-0.0089778458,0.011892928,0.06578018,0.10548396,3.775,0,0
-0.012633280000000002,-0.009577522,0.008539058,0.047619018000000006,0.0861373,3.776,0,0
-0.002415380000000001,-0.006046696000000001,0.0029025580000000004,0.029045552000000002,0.061115065999999996,3.777,0,0
0.00919626,-0.0027074959999999998,-0.0029002299999999993,0.013219952,0.032952506,3.778,0,0
0.02679346,0.001546284,-0.01097751,0.0014930520000000004,0.0020105659999999966,3.779,0,0
0.04930542,0.009198718000000002,-0.01691497,-0.003402604,-0.024582254,3.78,0,0
0.06344228,0.01116517,-0.016910406000000003,-0.0062377840000000006,-0.046817734,3.781,0,0
0.06685622,0.009183924,-0.015299848000000001,-0.010790758000000001,-0.06492074,3.782,0,0
0.06661896,0.010375355999999999,-0.012110274,-0.013929938000000003,-0.07685394,3.783,0,0
0.05472772000000001,0.008672812,-0.0049212660000000005,-0.018858418000000002,-0.08572768,3.784,0,0
0.02904696,0.002701122,0.0017284540000000004,-0.026671342000000004,-0.09014118000000002,3.785,0,0
0.0025733000000000023,0.0037563180000000002,0.004909400000000001,-0.027034800000000005,-0.08163136,3.786,0,0
-0.01892566,0.011419978,0.009494022000000001,-0.01718624,-0.063082686,3.787,0,0
-0.037082880000000006,0.015014906000000001,0.013656688,-0.005861659999999999,-0.04307475,3.788,0,0
-0.04888192000000001,0.016138650000000004,0.012919017999999999,0.00434646,-0.02091199,3.789,0,0
-0.05027742,0.0167523,0.010588189999999999,0.013159666000000002,0.0014658699999999993,3.79,0,0
-0.04369688,0.011054680000000002,0.0079181574,0.012811116000000003,0.01718385,3.791,0,0
-0.03453702,-2.13399999999999e-05,0.002627937400000001,0.006188856000000001,0.024501136,3.792,0,0
-0.02658266,-0.01067204,-0.0019106146000000001,0.004515996000000001,0.02614748,3.793,0,0
-0.021134999999999998,-0.02215478,-0.0006157326000000001,0.004299296000000001,0.019552320000000005,3.794,0,0
-0.0217671,-0.033246399999999995,0.0017852754,-0.0002629699999999995,-0.00015227999999999943,3.795,0,0
-0.02255038,-0.03292032,0.0019492060000000002,-0.0025648,-0.02312538,3.796,0,0
-0.014260980000000001,-0.024640500000000003,0.004590159999999999,-0.00576956,-0.038656960000000004,3.797,0,0
-0.0038574399999999984,-0.018612091,0.006726281999999999,-0.01720866,-0.04821568000000001,3.798,0,0
0.003447520000000001,-0.008948947,0.0031967199999999997,-0.0256149,-0.0475531,3.799,0,0
0.01131066,0.004081813,-0.0007355800000000002,-0.02567078,-0.0323381,3.8,0,0
0.015743688,0.009139513,-0.002471002,-0.02630248,-0.013666460000000002,3.801,0,0
0.011544826000000003,0.009013013,-0.005471796000000001,-0.02973646,0.0008685999999999989,3.802,0,0
0.0069711140000000005,0.013188464,-0.008330866,-0.027902240000000002,0.018074,3.803,0,0
0.007519134,0.0169809,-0.0073880752,-0.020551068000000002,0.037318000000000004,3.804,0,0
0.008590213999999999,0.0149765,-0.0044883352000000005,-0.014662467999999998,0.05085838,3.805,0,0
0.011089446,0.012328032000000001,-0.0017875591999999998,-0.004798767999999998,0.06083726,3.806,0,0
0.015401647999999999,0.010422260000000001,0.0021130487999999996,0.013035772,0.06964302,3.807,0,0
0.016281579999999997,0.0034110800000000004,0.0054007607999999995,0.025718252,0.06948048000000001,3.808,0,0
0.013947560000000001,-0.0070319200000000005,0.0054869006,0.028002720000000002,0.059025440000000005,3.809,0,0
0.011741828000000001,-0.011836760000000002,0.0037611486,0.0279907,0.04844956,3.81,0,0
0.0090267216,-0.012754424000000002,0.0026311486000000005,0.02096302,0.04052416000000001,3.811,0,0
0.004574079600000001,-0.014698118000000001,0.0005621626000000002,0.00508586,0.032991480000000004,3.812,0,0
0.0007441436,-0.008692598000000001,-0.0010774454,-0.006364260000000001,0.030607819999999997,3.813,0,0
3.056760000000021e-05,0.0033173620000000003,0.0003240640000000002,-0.009873168000000002,0.03178716,3.814,0,0
-0.0010894893999999998,0.008150994,4.809600000000002e-06,-0.010906248,0.029323719999999998,3.815,0,0
-0.005473303,0.009429218800000002,-0.0024960224,-0.006699308000000003,0.024683866,3.816,0,0
-0.008463201,0.010402710800000001,-0.0035474623999999996,0.002317482,0.019338486,3.817,0,0
-0.010034225,0.0045033308,-0.0045517144,0.008075478,0.010524708000000002,3.818,0,0
-0.014297069,-0.0034877872,-0.0075363024,0.009146554000000001,-0.00041357200000000007,3.819,0,0
-0.016152558,-0.004666401000000001,-0.009072324,0.010278554,-0.010281212000000001,3.82,0,0
-0.011434822,-0.0041732638,-0.007560832,0.012974714000000002,-0.022365858000000002,3.821,0,0
-0.0029495220000000004,-0.0038106346000000004,-0.005956870000000001,0.013993764,-0.037555458,3.822,0,0
0.009531638,0.0019469853999999997,-0.005287156,0.013721556000000001,-0.05005874,3.823,0,0
0.021163797999999998,0.008518563400000002,-0.006479306,0.014105888,-0.05720272,3.824,0,0
0.024474586000000003,0.0111304052,-0.009513918,0.016179068,-0.05975946,3.825,0,0
0.020623410000000002,0.013332835200000002,-0.01354605,0.021710328,-0.055612619999999995,3.826,0,0
0.01101487,0.014337598000000002,-0.017035234,0.032794408,-0.0414026228,3.827,0,0
-0.005821410000000001,0.008199998000000002,-0.017595816,0.044990300000000004,-0.0219482428,3.828,0,0
-0.02328905,0.0014070020000000005,-0.0148012418,0.05185468,-0.0024031028,3.829,0,0
-0.0314831,0.0016314020000000005,-0.008276303799999999,0.055250060000000004,0.019164257200000003,3.83,0,0
-0.03412678,-6.357999999999939e-05,0.0004785162000000005,0.049807960000000005,0.037168917200000005,3.831,0,0
-0.03656204,-0.005120418,0.0061499642,0.03156704,0.044321860000000005,3.832,0,0
-0.03474108000000001,-0.008805238,0.0092537362,0.011679719999999996,0.044474400000000004,3.833,0,0
-0.023253740000000002,-0.015957362,0.013265682,-0.00483078,0.03996594,3.834,0,0
-0.006635760000000001,-0.025797682,0.015695264,-0.02273276,0.029606304,3.835,0,0
0.00923892,-0.029429779999999996,0.017038824,-0.03713972,0.020378564,3.836,0,0
0.028843960000000002,-0.023032419999999998,0.020847196000000002,-0.03995270000000001,0.018690164000000002,3.837,0,0
0.04750000000000001,-0.0142269,0.02287416,-0.03854742,0.016581504000000004,3.838,0,0
0.05282804000000001,-0.006306694000000001,0.019292528,-0.03935956,0.010040484,3.839,0,0
0.04884924,0.002089164,0.014144148,-0.042251840000000006,-0.002078,3.84,0,0
0.044898560000000004,0.0076472039999999995,0.008119042000000002,-0.051538060000000004,-0.027168340000000006,3.841,0,0
0.03765594,0.010140624,0.0011735279999999996,-0.06674968,-0.05909698000000001,3.842,0,0
0.027263540000000003,0.013344604,-0.003617272,-0.07796126,-0.08190546,3.843,0,0
0.018505412,0.019505638000000002,-0.004595112,-0.07767763999999999,-0.0917657,3.844,0,0
0.008043952000000004,0.023094600000000003,-0.0038026428,-0.06880910000000001,-0.09271988,3.845,0,0
-0.006438187999999998,0.025612500000000003,-0.0040423608,-0.04819525,-0.07806976,3.846,0,0
-0.022085068,0.027863120000000005,-0.0027872634,-0.017706070000000004,-0.052580486,3.847,0,0
-0.036861648,0.023394388000000002,-0.0007771193999999999,0.00622051,-0.03201237800000001,3.848,0,0
-0.04829976,0.016973442000000002,-0.0018472533999999996,0.02065575,-0.014645058,3.849,0,0
-0.05541504,0.008946962000000001,-0.0039135426,0.03191981,0.0037936420000000007,3.85,0,0
-0.0584591,-0.005300538000000001,-0.0048147786,0.03837352,0.018274602,3.851,0,0
-0.055370920000000004,-0.018429898000000004,-0.007337662,0.03897568,0.026828748,3.852,0,0
-0.044350520000000004,-0.020813522,-0.010231806000000001,0.04074092,0.03386496,3.853,0,0
-0.028501720000000005,-0.019370576,-0.009371418000000001,0.044469560000000005,0.03803712,3.854,0,0
-0.0128752,-0.019052436,-0.006898490000000001,0.04441462,0.03605124,3.855,0,0
0.00462702,-0.012755676,-0.004596392,0.04043360000000001,0.03055261,3.856,0,0
0.022436260000000003,-0.006290432000000001,-0.0007072420000000003,0.035050500000000005,0.023781042,3.857,0,0
0.032711040000000004,-0.006590368000000001,0.003868158000000001,0.02860042,0.016761146,3.858,0,0
0.03485030000000001,-0.008337076000000002,0.006415566,0.019399638000000004,0.010264728,3.859,0,0
0.03416898000000001,-0.005433118000000001,0.007349830000000001,0.009684459999999999,0.0070504140000000005,3.86,0,0
0.031126400000000005,-0.002644514,0.008435560000000002,0.0013063800000000002,0.007520952,3.861,0,0
0.023466100000000004,-0.0036741459999999997,0.0070233482000000005,-0.0069453200000000005,0.008098364,3.862,0,0
0.01708536,-0.00015242000000000012,0.0024288082,-0.010820748,0.01031316,3.863,0,0
0.014523620000000001,0.003916648,-0.0010809958000000002,-0.009960538000000001,0.012429838000000002,3.864,0,0
0.011773332000000001,0.00040002999999999957,-0.0040577058,-0.010607940000000001,0.011086778,3.865,0,0
0.008248080000000001,-0.003769154,-0.0076112338000000005,-0.014928160000000001,0.009063376000000001,3.866,0,0
0.005974544000000002,-0.0044221320000000005,-0.008453408,-0.020618300000000003,0.007476752000000002,3.867,0,0
0.004146584000000001,-0.00711356,-0.006870632,-0.026771532000000004,0.003545706,3.868,0,0
-0.0006968860000000001,-0.011262089999999999,-0.006413963999999999,-0.032191040000000004,-0.0003470014,3.869,0,0
-0.006030398000000001,-0.00949225,-0.005380602,-0.029888055200000006,0.0016146526000000005,3.87,0,0
-0.009849646000000002,-0.005793452,-0.0018628140000000002,-0.017682775200000004,0.0051443266000000005,3.871,0,0
-0.01570299,-0.005510772000000001,0.00025196599999999995,-0.001829995200000001,0.0073389866000000015,3.872,0,0
-0.022014970000000002,-0.0038859240000000002,0.00150123,0.011843004800000001,0.0118597526,3.873,0,0
-0.02449174,-0.0003934199999999998,0.004443362,0.0227999448,0.018821900000000003,3.874,0,0
-0.0241804,0.0015025420000000002,0.00621152,0.0300358,0.02549734,3.875,0,0
-0.0227655,0.002601668,0.005376538000000001,0.03281932,0.03114662,3.876,0,0
-0.019001928,0.005397712,0.0048455040000000005,0.03423848,0.03491174,3.877,0,0
-0.012792734,0.006076734,0.006418424000000001,0.032016840000000005,0.031102561999999997,3.878,0,0
-0.0056292140000000004,0.0043198988,0.006334757999999999,0.0264637,0.022028392,3.879,0,0
0.001947046,0.0050410108,0.0042631,0.0247585,0.016301092,3.88,0,0
0.006545886000000001,0.0015868867999999994,0.0037014792000000006,0.02396852,0.010747352,3.881,0,0
0.008178214,-0.004402411200000001,0.0029954734000000004,0.015960644000000003,0.002745912,3.882,0,0
0.009333208,-0.0034120872000000008,0.00021431740000000003,0.006822444,-0.0012313300000000005,3.883,0,0
0.007973864,-0.0019058800000000009,-0.0019276266000000002,6.666399999999927e-05,-0.005000980000000001,3.884,0,0
0.0052136660000000005,-0.0041964520000000016,-0.0030027906000000006,-0.012743036000000003,-0.016566940000000002,3.885,0,0
0.005973946000000001,-0.0013461820000000002,-0.006395035800000001,-0.026227996000000003,-0.028613120000000002,3.886,0,0
0.010302565999999999,0.004498430000000001,-0.009759140000000001,-0.030251460000000004,-0.03407832,3.887,0,0
0.013533958000000002,0.003701836000000001,-0.010872968,-0.03212372,-0.03879194,3.888,0,0
0.017784042,0.004082566000000001,-0.011113178,-0.03846156,-0.043581260000000004,3.889,0,0
0.02161592,0.008065664,-0.0089484972,-0.04289194,-0.044302,3.89,0,0
0.020988976000000003,0.007876887600000002,-0.0038949411999999995,-0.043477959999999996,-0.04253954000000001,3.891,0,0
0.019232756000000004,0.005849763600000001,0.0011648447999999996,-0.04331608,-0.039445600000000004,3.892,0,0
0.016034182,0.005623331600000001,0.0050343888,-0.03971258,-0.03312574,3.893,0,0
0.009274988000000001,0.0046310756,0.008569002800000001,-0.03069284,-0.02467282,3.894,0,0
0.0009420079999999994,0.0004307976000000001,0.010179050000000002,-0.019577986,-0.01796566,3.895,0,0
-0.004794448000000001,0.000769392,0.009117968,-0.007149386,-0.009316318,3.896,0,0
-0.006541628000000001,0.006667764,0.008971564,0.007456254000000002,0.0009779819999999996,3.897,0,0
-0.005719614,0.007271136000000001,0.009646204,0.020423214000000002,0.005474082,3.898,0,0
-0.0036471000000000003,0.004974102,0.008121746,0.030634954000000002,0.007759814,3.899,0,0
0.0007940539999999993,0.006713802,0.0064111652,0.03944968000000001,0.011774866,3.9,0,0
0.005383736,0.0064219884,0.0051211191999999996,0.040865320000000004,0.011124372,3.901,0,0
0.005801964,0.0014413704000000005,0.00011253719999999943,0.029381958,0.006004182,3.902,0,0
0.004156234,9.910840000000023e-05,-0.0082499028,0.013408198,0.006721002,3.903,0,0
0.0014149039999999998,0.00048560840000000014,-0.015218924800000002,0.0017574379999999992,0.01266981,3.904,0,0
-0.00442951,-0.0068424136000000005,-0.021001732000000002,-0.008499902,0.016689678,3.905,0,0
-0.012040012000000001,-0.017691348,-0.024800680000000002,-0.015068462000000001,0.02184891,3.906,0,0
-0.018457680000000004,-0.02460023,-0.01985744,-0.012039212,0.03025592,3.907,0,0
-0.022519930000000004,-0.028889574,-0.007686160000000001,-0.004230879999999999,0.03647986,3.908,0,0
-0.023439800000000004,-0.03078144,0.0032158200000000003,0.00293778,0.040427000000000005,3.909,0,0
-0.020493040000000004,-0.025058174,0.01184714,0.00988688,0.04578744,3.91,0,0
-0.014801548000000001,-0.015131808000000002,0.018800960000000002,0.01588922,0.048293459999999996,3.911,0,0
-0.010140184,-0.009687624,0.018333494000000002,0.018120112,0.04347334,3.912,0,0
-0.0062374579999999995,-0.003651024,0.011446417400000002,0.018673540000000002,0.03778808,3.913,0,0
-0.00163429,0.0032988360000000003,0.007223275400000001,0.017564120000000003,0.03022622,3.914,0,0
0.0002995919999999998,0.00299304,0.005191515400000001,0.010431880000000001,0.013710300000000002,3.915,0,0
0.0011419579999999998,0.0007158540000000001,0.0017779814000000004,0.0007926400000000016,-0.005564019999999999,3.916,0,0
0.003167962,0.002128506000000001,-0.0006934826,-0.0067443600000000005,-0.02396708,3.917,0,0
0.003110984,0.0017887520000000002,-0.00218725,-0.01205298,-0.04582408,3.918,0,0
0.003563216,0.001626532,-0.005071994000000001,-0.013777564,-0.0665339,3.919,0,0
0.009354174,0.010524702,-0.006843396000000001,-0.008244804,-0.07590474,3.92,0,0
0.014442696000000001,0.021887221999999998,-0.004225574,0.001002296000000001,-0.07481236,3.921,0,0
0.013999282,0.026997046,-0.000523744,0.006840694000000001,-0.0646423,3.922,0,0
0.011699802,0.02880198,0.0033580000000000003,0.010230806,-0.04285886,3.923,0,0
0.007504848000000001,0.028647820000000004,0.007433706000000002,0.013722709999999999,-0.014514099999999997,3.924,0,0
-0.0009534920000000002,0.02786818,0.007592562000000001,0.01654733,0.011662160000000003,3.925,0,0
-0.009555852,0.028559300000000003,0.003225114000000001,0.01734431,0.03190918,3.926,0,0
-0.014932965999999999,0.028691300000000003,-0.0024979059999999994,0.019800832,0.04769968000000001,3.927,0,0
-0.018300774,0.026230438000000002,-0.008467526,0.02240902,0.05442090000000001,3.928,0,0
-0.017132712,0.024712898000000004,-0.013746786,0.020143882000000002,0.05146694,3.929,0,0
-0.008075612,0.025557898000000003,-0.013351410000000001,0.015950268,0.04619170000000001,3.93,0,0
0.006260328000000002,0.023126518000000002,-0.007473550000000001,0.007964048000000001,0.03331564,3.931,0,0
0.020752908000000004,0.016770814000000002,-0.0014600300000000006,-0.005484252000000001,0.008853440000000002,3.932,0,0
0.033584228,0.010810216000000001,0.00340427,-0.018653372,-0.016492859999999998,3.933,0,0
0.04039036,0.0047829759999999995,0.0064702106,-0.029964334000000002,-0.0386777,3.934,0,0
0.03708594,-0.005564904000000001,0.004957586599999999,-0.039066180000000006,-0.0586377,3.935,0,0
0.027677156,-0.015818864000000002,-0.0003904134000000002,-0.03943050000000001,-0.06745102,3.936,0,0
0.018474044000000002,-0.016627126,-0.0041535974,-0.031261802,-0.05956624,3.937,0,0
0.010043652000000002,-0.012948426,-0.005195819,-0.022427656000000004,-0.043817044,3.938,0,0
0.00011661200000000031,-0.013048726,-0.0058702016,-0.014216382000000003,-0.026516564,3.939,0,0
-0.008264348,-0.013586926,-0.005535921599999999,-0.0066485400000000005,-0.007434744000000002,3.94,0,0
-0.015675744,-0.013798966000000001,-0.0041452416,-0.0012565599999999994,0.010052036,3.941,0,0
-0.025499152,-0.01573222,-0.0036905696,0.0033222220000000005,0.021085276,3.942,0,0
-0.03650942,-0.014168090000000001,-0.004208348,0.008811916000000001,0.02773436,3.943,0,0
-0.04384262,-0.0066450100000000015,-0.00312663,0.015299002000000003,0.03532254,3.944,0,0
-0.047767000000000004,0.0002803300000000001,-0.0010798560000000001,0.019025220000000002,0.0403497,3.945,0,0
-0.0502584,0.00807591,-0.00030056820000000004,0.019599860000000004,0.044366520000000007,3.946,0,0
-0.0442029,0.017555470000000004,0.0024948038000000006,0.019949960000000003,0.048817900000000004,3.947,0,0
-0.03143495400000001,0.018431924000000002,0.0075312238,0.01363946,0.042613500000000006,3.948,0,0
-0.017485994000000005,0.014550042000000001,0.0106881078,-0.0003676599999999988,0.02244816,3.949,0,0
0.0012133660000000004,0.013192842,0.0131369078,-0.01392294,-0.003673640000000004,3.95,0,0
0.022296186000000003,0.0095073098,0.01610124,-0.0268458,-0.03303484000000001,3.951,0,0
0.036110106,0.0030620077999999997,0.015309654,-0.03869082,-0.06099998000000001,3.952,0,0
0.04278256,0.0028482878,0.009688656,-0.03952712,-0.07213906000000002,3.953,0,0
0.046670039999999996,0.0039798698,0.004878804,-0.029205942,-0.06525956000000001,3.954,0,0
0.043159699999999995,-0.0012400101999999998,0.002564423999999999,-0.018140218,-0.052928140000000005,3.955,0,0
0.03495172,-0.007208138,0.0004929879999999999,-0.009576896,-0.039000400000000005,3.956,0,0
0.028521980000000002,-0.011780196,0.00012453399999999982,-0.003286458,-0.023428908000000002,3.957,0,0
0.024258500000000006,-0.01888924,0.0021527020000000003,-0.0006463259999999998,-0.012735940000000001,3.958,0,0
0.021506840000000003,-0.02860522,0.0027717180000000007,-0.0029017820000000003,-0.006020079999999999,3.959,0,0
0.01958604,-0.02865136,0.0019408658000000007,-0.0028405580000000004,0.003317720000000001,3.96,0,0
0.017437978,-0.024359808,0.0007032858000000004,0.0003733339999999999,0.014277640000000001,3.961,0,0
0.011172838000000001,-0.020887986,-0.0023745742,0.005310256,0.027229388,3.962,0,0
0.004556917999999999,-0.015138692000000002,-0.0038290322,0.014130624,0.03801742,3.963,0,0
-0.003226722,-0.017869412,-0.0037595342,0.020042422,0.04111494,3.964,0,0
-0.015957102,-0.025028072000000002,-0.0064633220000000005,0.024479953999999998,0.04484336,3.965,0,0
-0.02652024,-0.025149994000000002,-0.008188006000000001,0.03324172,0.053225419999999996,3.966,0,0
-0.0321329,-0.0235373348,-0.006760234000000001,0.040109740000000005,0.055485700000000006,3.967,0,0
-0.03717302,-0.0231809868,-0.005985590000000002,0.03869818,0.05264114,3.968,0,0
-0.04116422,-0.0128645568,-0.0038448280000000007,0.03667086,0.050516359999999996,3.969,0,0
-0.037704560000000005,-0.0012914267999999999,0.0018227119999999998,0.03311082,0.04315216,3.97,0,0
-0.03169736,0.0036812432000000008,0.005917662,0.023208856,0.02844352,3.971,0,0
-0.024541628,0.011751262000000002,0.0067177318000000005,0.013971292000000001,0.013903256,3.972,0,0
-0.013498888,0.02068288,0.007349091800000001,0.006687534,0.004499923999999999,3.973,0,0
-0.003717767999999998,0.022586086000000002,0.006787013800000001,-0.0019113259999999992,-0.003950756000000001,3.974,0,0
0.0034996200000000006,0.017104896,0.0028021058,-0.011244986,-0.012230156000000002,3.975,0,0
0.0099077,0.011104616000000003,-0.0019676842000000004,-0.016442302,-0.013832372000000002,3.976,0,0
0.014819868000000002,0.0023642880000000013,-0.003896984,-0.018171848,-0.010577248000000001,3.977,0,0
0.015066988000000002,-0.009044472,-0.005607454,-0.016086308,-0.007659596000000003,3.978,0,0
0.013862816000000002,-0.012927628,-0.0064007568,-0.006211228,-0.001642806000000001,3.979,0,0
0.011609876000000002,-0.015149588000000002,-0.0021776488,0.0036359120000000007,0.0010460740000000001,3.98,0,0
0.006231514000000001,-0.022079328000000002,0.0016036512000000003,0.006534624,-0.005331490000000002,3.981,0,0
-0.0001894179999999998,-0.025196220000000002,0.0020655032000000003,0.005032334,-0.011905230000000003,3.982,0,0
-0.005561842000000001,-0.021042246000000004,0.0037272692,0.0018031060000000005,-0.015121994000000001,3.983,0,0
-0.007798486000000001,-0.011426346000000004,0.004596538000000001,-0.0034710300000000004,-0.018084456,3.984,0,0
-0.007279694000000001,0.003937753999999999,0.0016286884000000002,-0.009706710000000002,-0.018378076,3.985,0,0
-0.0052528758,0.021193894,-0.0023916516,-0.012713082,-0.018080036,3.986,0,0
-0.0032676918000000004,0.026448700000000002,-0.0086809256,-0.012616022000000001,-0.024192096000000003,3.987,0,0
-0.0005270477999999999,0.023839082,-0.0179335376,-0.012643834000000001,-0.031041392,3.988,0,0
0.0045493082,0.026348622000000002,-0.0242609496,-0.013353668,-0.0338628,3.989,0,0
0.010739948200000002,0.026361202,-0.025306566,-0.013250228,-0.03414388,3.99,0,0
0.015773252,0.020134792,-0.021218918,-0.016337648,-0.03303468,3.991,0,0
0.01880288,0.015954906,-0.009898778,-0.023697248000000004,-0.0319068,3.992,0,0
0.02198924,0.016032237999999997,0.004298362000000002,-0.026945310000000004,-0.02972002,3.993,0,0
0.023792720000000003,0.009426098,0.011952662000000001,-0.024111004,-0.026432662,3.994,0,0
0.021307000000000003,0.0008231979999999996,0.012500420000000002,-0.019085398000000003,-0.021101940000000003,3.995,0,0
0.017259042000000002,-0.0017843020000000002,0.016081512000000003,-0.012118032,-0.009555159999999998,3.996,0,0
0.010748382000000003,-0.008202182,0.021755792000000003,-0.006025452000000001,0.006026260000000001,3.997,0,0
-0.0010152779999999997,-0.01802969,0.019199332000000003,-0.005156492,0.020412080000000003,3.998,0,0
-0.013416278,-0.023372290000000004,0.015517674000000002,-0.006814496000000001,0.035386782000000006,3.999,0,0
-0.021647198,-0.024414358,0.017048270000000004,-0.007778206,0.048407160000000005,4.0,0,0
-0.02699118,-0.024017168000000002,0.014636850000000003,-0.006547113999999999,0.05275774,4.001,0,0
-0.030535120000000002,-0.016190838,0.00758785,-0.0020139760000000007,0.05178842,4.002,0,0
-0.03134812,-0.007677476000000001,0.004885908000000001,0.004277184,0.04774976,4.003,0,0
-0.03133794,-0.009310316,0.0051508000000000005,0.009590312000000002,0.03785808,4.004,0,0
-0.0308872,-0.005344188,0.004124444600000001,0.015573176000000001,0.03002024,4.005,0,0
-0.027220814,0.010287692000000001,0.005988884600000001,0.024704778000000004,0.03035786,4.006,0,0
-0.019180325999999998,0.022867922,0.008494064600000002,0.03214132,0.03210156,4.007,0,0
-0.008204566,0.031614140000000006,0.007971129000000002,0.03329120000000001,0.027692951999999996,4.008,0,0
0.002638694,0.03932566,0.007005491000000003,0.030229320000000007,0.017872972,4.009,0,0
0.012290134,0.0335333,0.0026037984000000037,0.025160650000000003,0.0023667120000000017,4.01,0,0
0.020366788,0.013923620000000001,-0.0089836616,0.016140138000000002,-0.022734708,4.011,0,0
0.0280771,-0.0015771400000000003,-0.0207655616,0.008172592,-0.048177908000000005,4.012,0,0
0.036094219999999996,-0.01324904,-0.025273544000000002,0.0038311060000000004,-0.06611175999999999,4.013,0,0
0.041250400000000007,-0.0285122,-0.02863668,-0.003162074,-0.07975738,4.014,0,0
0.04247988,-0.03337808,-0.03176538,-0.010029744,-0.08399830000000001,4.015,0,0
0.039852719999999994,-0.02314962,-0.0286258,-0.012980312,-0.07493206000000001,4.016,0,0
0.0337612,-0.014390179999999999,-0.022826436000000002,-0.015116984,-0.06274578,4.017,0,0
