bandpass 1,bandpass 2,bandpass 3,bandpass 4,bandpass 5,time,onset,mark
8.406000000000082e-06,0.004794844,0.001964656,0.001413317,0.0022261860000000002,6.45,1,1
-0.0022545739999999996,0.0030684040000000003,0.0014656919999999998,0.00010494299999999992,0.0006093880000000002,6.451,0,0
-0.0038214719999999994,0.0031913626000000003,0.0017024039999999998,-5.88430000000001e-05,0.0007316926000000002,6.452,0,0
-0.0038220381999999995,0.0004285806000000002,0.002507434,-0.0007647260000000001,-0.0006159587999999997,6.453,0,0
-0.0034517902000000007,-0.0034316094,0.000994456,-0.0030807380000000004,-0.0027638688,6.454,0,0
-0.0007933662000000003,-0.00031863940000000004,-0.0007245260000000001,-0.0020312940000000003,-7.924679999999989e-05,6.455,0,0
0.0035570338000000005,0.0038047406000000002,-0.00016591040000000002,0.0011812980000000001,0.0030734672,6.456,0,0
0.006066563800000001,0.002893358,-0.0002057752,0.001959826,0.0022597466,6.457,0,0
0.005384522,0.0015713259999999992,-0.0009677352,0.002223834,0.0015186640000000003,6.458,0,0
0.003399014,-0.00016411200000000076,-0.00020573119999999992,0.002725884,0.0010239355999999997,6.459,0,0
0.001039154,-0.004123792000000001,0.0003077520000000001,0.0014159839999999997,-0.0014153664,6.46,0,0
-0.001411618,-0.007421968000000001,-0.0003806676,-0.001006406,-0.0040798164,6.461,0,0
-0.00179116,-0.005650852,-0.0005681820199999999,-0.0012491860000000002,-0.0036042124000000004,6.462,0,0
-0.00015172000000000004,-0.0029084900000000006,0.0004355719800000001,-0.0006069699999999999,-0.0029846044,6.463,0,0
0.0003547327999999999,-0.001819168,-0.00029875202000000003,-0.0013330500000000001,-0.0036495320000000005,6.464,0,0
0.0012566448,0.003470012,-0.00076816122,0.00012919199999999998,-0.0008803120000000005,6.465,0,0
0.0019711868,0.006516868,0.0012101047800000002,0.0018738000000000001,0.000989358,6.466,0,0
-0.00017053719999999997,0.0025166760000000007,0.0012827814000000001,0.00024390199999999983,-0.0008262300000000003,6.467,0,0
-0.0026287272,-3.8165999999999634e-05,-7.405859999999999e-05,-0.0011145760000000004,-0.000975022,6.468,0,0
-0.003997238,-0.0005825019999999993,0.00042906780000000005,-0.00031086160000000015,0.00040126600000000017,6.469,0,0
-0.00473187,-0.006132942,0.0009461358000000001,-0.0018500596000000002,-0.0013121908,6.47,0,0
-0.004334548000000001,-0.007619448,-0.0014991982,-0.0032766536000000007,-0.0012041707999999995,6.471,0,0
-0.00029945400000000065,-0.0015329080000000004,-0.0020232156000000003,-0.0011551256000000003,0.0026938332,6.472,0,0
0.003607496,0.003469512000000001,-0.0011597136,-0.0005285316,0.0038946272,6.473,0,0
0.004246936000000001,0.012056774000000001,-0.0018850960000000002,0.000361894,0.0056330852,6.474,0,0
0.0037932020000000007,0.019822514,-0.000754558,0.002099184,0.007068260000000001,6.475,0,0
0.001122938000000001,0.01693918,0.001156298,-0.00013419799999999987,0.0033439640000000005,6.476,0,0
-0.0036911820000000003,0.01034342,0.00074541,-0.004087210000000001,-0.0016153999999999995,6.477,0,0
-0.006186804000000001,0.006618019999999999,-0.000527568,-0.00451267,-0.002642714,6.478,0,0
-0.00426314,-0.00010662799999999989,-0.00017489920000000002,-0.0037462380000000007,-0.002885214,6.479,0,0
-0.0018619439999999997,-0.004848724,-0.0010076572,-0.0020419500000000003,-0.0019758199999999997,6.48,0,0
0.0015381840000000004,-0.00380938,-0.0005945971999999999,0.0036555900000000007,0.0027604960000000003,6.481,0,0
0.004534024,-0.00896714,0.0020715968000000005,0.006867905400000001,0.003260776,6.482,0,0
0.004082916000000001,-0.01823296,0.0019219468000000002,0.0053939614,-0.0008641640000000006,6.483,0,0
0.00345105,-0.020950032,0.00036502400000000047,0.0043081494,-0.002687168,6.484,0,0
0.0038554080000000003,-0.019141576,2.8588400000000012e-05,0.0038271294000000004,-0.002719968,6.485,0,0
0.0034039160000000003,-0.016675158000000002,-0.0009603135999999997,0.0019766033999999997,-0.0034966520000000003,6.486,0,0
0.0019527640000000005,-0.00834753,-0.0029343142000000004,0.0013072119999999999,-0.0016173699999999997,6.487,0,0
0.0014044400000000003,0.0024060520000000005,-0.0021062622,0.0022949859999999993,0.00195342,6.488,0,0
-0.00014995199999999996,0.005902420000000001,-0.0005532773999999999,0.000798838,0.0009149839999999999,6.489,0,0
-0.002571484,0.007309600000000001,-0.0013511238000000001,-0.001354984,-0.0007820219999999998,6.49,0,0
-0.0031800200000000004,0.012820718000000002,-0.0012930177999999999,-0.001192764,0.001168806,6.491,0,0
-0.002923256,0.016093250000000003,0.0006457268000000002,-0.000587232,0.002212548,6.492,0,0
-0.00306207,0.013524400000000002,0.0017078588000000003,-0.001892206,2.623799999999961e-05,6.493,0,0
-0.0031567799999999997,0.010230132000000001,0.0017545026000000004,-0.003706852,-0.0016416620000000003,6.494,0,0
-0.002778182,0.007359394000000002,0.0024924042,-0.003953532,-0.0014212760000000004,6.495,0,0
-0.002773392,0.0019120840000000005,0.0019505062000000001,-0.00420961,-0.002615482000000001,6.496,0,0
-0.0005682580000000001,0.0007466200000000004,6.234520000000007e-05,-0.002036306,-0.0010679220000000004,6.497,0,0
0.0036964500000000004,0.0016537280000000001,0.0010059332000000002,0.002799574,0.0031377179999999994,6.498,0,0
0.0047569890000000005,-0.006975052,0.0026623666000000004,0.0038513539999999995,0.0019435779999999996,6.499,0,0
0.0036308570000000012,-0.016997093999999997,0.001825891,0.001948156,-0.0015346220000000002,6.5,0,0
0.0035906590000000004,-0.019649649999999998,0.001652111,0.001691253999999999,-0.0016287019999999997,6.501,0,0
0.0018235594,-0.021247679999999998,0.0017531300000000005,0.0010694959999999994,-0.0011730459999999996,6.502,0,0
-0.0021345506,-0.020539418,-0.0005672260000000001,-0.0006385260000000006,-0.0016474139999999998,6.503,0,0
-0.0032107976000000007,-0.009799182,-0.002893352,0.00015238799999999994,0.0012813780000000006,6.504,0,0
-0.0026922136,0.0019802780000000002,-0.002575204,0.0014877740000000003,0.0037068959999999995,6.505,0,0
-0.0038435316,0.007727404,-0.002496718,-2.2803999999999912e-05,0.0014338460000000001,6.506,0,0
-0.0038688918000000004,0.014063938000000002,-0.002995738,-0.0013711080000000002,0.00019334199999999988,6.507,0,0
-0.0026671380000000003,0.020059336,-0.00133523,-0.0009761820000000004,0.0014560040000000001,6.508,0,0
-0.002570808,0.02030599,0.0005140980000000002,-0.001477336,0.0011547440000000003,6.509,0,0
-0.00314272,0.016021863999999997,0.0007288240000000001,-0.003341502,-0.0012349940000000003,6.51,0,0
-0.0021418139999999997,0.012117422000000001,0.0005272960000000001,-0.0043449940000000005,-0.0020918420000000004,6.511,0,0
0.0011260198,0.007462422,0.0011604342,-0.004101586,-0.002446514,6.512,0,0
0.003894456,0.001285986,0.00019211219999999994,-0.0034107520000000004,-0.003241850000000001,6.513,0,0
0.006602892,8.98120000000001e-05,-0.001003901,0.0005425880000000001,-0.00015030200000000016,6.514,0,0
0.009139252,-0.002163822,0.0006401369999999999,0.004580086000000001,0.002475381,6.515,0,0
0.007632778,-0.012145260000000001,0.0010579208,0.0037227820000000004,-0.0001916750000000001,6.516,0,0
0.003965774,-0.018646760000000002,-0.00044743940000000013,0.0021010900000000008,-0.0020788690000000005,6.517,0,0
0.002583538,-0.017769806,-0.00036701600000000007,0.0017788400000000007,-0.0011469070000000008,6.518,0,0
0.0018276920000000001,-0.016499234,0.00011898319999999993,0.00038227200000000056,-0.0016728410000000004,6.519,0,0
-1.745999999999985e-05,-0.012133552000000002,-0.0011440498,-0.0010597999999999992,-0.0014496404000000007,6.52,0,0
-0.0006445179999999997,-0.0014580779999999998,-0.0017012916000000002,0.00035164200000000053,0.0026941183999999994,6.521,0,0
-0.002323974,0.005465022,-0.0010889736,0.0013570252000000007,0.0043166483999999995,6.522,0,0
-0.0066601180000000005,0.0069727700000000005,-0.0020439589999999997,-0.0001881207999999998,0.0021044090000000002,6.523,0,0
-0.009667248000000002,0.010662982000000001,-0.0029686090000000005,-0.0008859088,0.002061069,6.524,0,0
-0.009456638000000002,0.013986260000000002,-0.0019134300000000003,-0.0002588527999999999,0.0031384174000000003,6.525,0,0
-0.007185862000000002,0.012616577200000001,-0.0005190079999999997,-0.0009202728000000001,0.0012552466,6.526,0,0
-0.0038045860000000013,0.0093019832,-1.4652000000000035e-05,-0.0027798680000000004,-0.0015677334000000001,6.527,0,0
0.0003706460000000001,0.0074590462000000005,0.0007215771999999998,-0.0026762360000000002,-0.0017868740000000004,6.528,0,0
0.003818248,0.003616776200000001,0.0019610412000000002,-0.0020542220000000005,-0.0023937380000000003,6.529,0,0
0.0055317560000000005,0.00019552420000000005,0.0014787732000000001,-0.0012421040000000004,-0.0022000099999999996,6.53,0,0
0.005777136,0.0004870716000000001,0.0019869552,0.002539394,0.0019845619999999996,6.531,0,0
0.004450954,-0.003973794399999999,0.0045925432,0.004886184,0.002940456,6.532,0,0
0.0018806599999999997,-0.012314523400000001,0.0046092984000000005,0.002974910000000001,-0.00045518400000000084,6.533,0,0
-0.00035818199999999986,-0.016115153400000002,0.0028938604,0.0014693260000000008,-0.0009482940000000012,6.534,0,0
-0.0019210960000000002,-0.0173358054,0.0025528124000000004,0.0013156300000000004,-0.0007088480000000013,6.535,0,0
-0.004069256,-0.018077864000000003,0.0016625244000000004,-0.00037725599999999975,-0.002500096000000001,6.536,0,0
-0.00486305,-0.011643374000000001,-0.0005711183999999999,-0.0013739279999999997,-0.0010422186000000008,6.537,0,0
-0.0023589399999999995,0.00024142599999999945,-0.0006111059999999999,0.000767832,0.0030145453999999997,6.538,0,0
-0.00028702999999999953,0.006863786,0.000254658,0.0016342219999999996,0.0029528274,6.539,0,0
0.0010956440000000004,0.01137867,-0.000508688,0.0003059539999999999,0.0014251492000000002,6.54,0,0
0.004686512,0.01833431,-0.00085185,0.00043954399999999994,0.0022256832,6.541,0,0
0.006642263999999999,0.02004392,-0.00026525119999999994,0.00083791,0.0015804538000000002,6.542,0,0
0.00491701,0.015307136000000002,-0.000404954,-0.0011222699999999999,-0.0014486102,6.543,0,0
0.002777948,0.010590278,-0.00113799,-0.0032310520000000003,-0.0037826622,6.544,0,0
0.0005482439999999996,0.005567396000000001,-0.000916786,-0.0030960770000000005,-0.0040279264,6.545,0,0
-0.0022895420000000003,-0.0026174600000000003,-0.001129568,-0.0031209710000000006,-0.0044833524,6.546,0,0
-0.002809842,-0.006029294,-0.0023604180000000004,-0.0016578450000000002,-0.0021062523999999996,6.547,0,0
-0.0006443100000000002,-0.0048287996,-0.0008767400000000002,0.002073951,0.0025745316000000003,6.548,0,0
0.000697496,-0.0092905816,0.00113555,0.0022578150000000007,0.0022272896,6.549,0,0
0.001051382,-0.0138737996,-7.748999999999994e-05,-2.979599999999947e-05,0.00013018600000000002,6.55,0,0
0.0022216540000000004,-0.012079300400000001,-0.0008731839999999999,-0.00018135399999999973,0.000495442,6.551,0,0
0.00249315,-0.010372044400000002,-0.0005912339999999999,-0.00031191799999999957,-0.0002491660000000001,6.552,0,0
0.000311386,-0.0105616322,-0.0023090719999999997,-0.00160109,-0.0021984134000000003,6.553,0,0
-0.0012857720000000001,-0.0043609762,-0.004101799999999999,-0.0005257699999999998,0.00018551300000000002,6.554,0,0
-0.0007374560000000003,0.0046879838,-0.0028018920000000003,0.0018952050000000003,0.003558101,6.555,0,0
-0.0011083872400000003,0.007471120600000001,-0.001780528332,0.001614155,0.002586913,6.556,0,0
-0.00240329324,0.0087863986,-0.002030474332,0.0005234415999999999,0.0016944756000000002,6.557,0,0
-0.0019686026400000003,0.011223776000000001,-0.0009064623319999999,0.0008710396000000001,0.0023661610000000003,6.558,0,0
-0.0014780146400000002,0.00963647,0.000372599668,0.00046803960000000005,0.0009796906,6.559,0,0
-0.0025944086400000003,0.0044939540000000005,0.00042676586800000007,-0.0011596993999999998,-0.0024033374000000003,6.56,0,0
-0.0032675354000000004,0.001607899800000001,0.00017745620000000006,-0.0018807213999999998,-0.0037592014000000003,6.561,0,0
-0.0024718934,0.00027926380000000024,0.0011392002000000002,-0.0014256339999999998,-0.0035162780000000007,6.562,0,0
-0.0021052960000000004,-0.0018887142000000002,0.0009209622000000001,-0.0014365979999999999,-0.003853444,6.563,0,0
-0.0005845520000000001,0.0005556538000000004,0.0004687930000000001,0.0009114720000000003,-0.0007988980000000006,6.564,0,0
0.0024743380000000004,0.0021406358000000004,0.0026114468,0.00398803,0.00250621,6.565,0,0
0.0028970320000000003,-0.004211070000000001,0.0035492808,0.00289785,0.000519186,6.566,0,0
0.0026871384000000005,-0.008563494000000001,0.0021330908,0.0014765700000000008,-0.0008637260000000004,6.567,0,0
0.0037566784000000004,-0.008264252,0.0021560608,0.0017531880000000001,0.00034454599999999983,6.568,0,0
0.0034412104000000007,-0.0098930298,0.00277443,0.0005647420000000002,-0.0008528300000000007,6.569,0,0
0.0020686584000000003,-0.009398259800000001,0.0009917592000000001,-0.001496992,-0.0018878172360000003,6.57,0,0
0.0025612644000000007,-0.0010943758000000001,2.1103200000000086e-05,-0.000396742,0.001980176764,6.571,0,0
0.0030231900000000007,0.005394164200000001,0.0013836472000000003,0.0008664680000000001,0.0042228047640000006,6.572,0,0
0.0012297200000000003,0.0063507502000000006,0.0010146298200000002,-0.00034054919999999995,0.002810164964,6.573,0,0
-7.345199999999989e-05,0.00879913,-0.0006309721799999999,-0.0006006814000000001,0.003085920964,6.574,0,0
-0.0009698420000000001,0.010387158,-0.0004913233799999999,-7.390559999999998e-05,0.0033650282,6.575,0,0
-0.0029396940000000005,0.006313934,-0.00012214217999999982,-0.0009805276000000001,0.0011663782000000003,6.576,0,0
-0.0052654120000000006,0.000221134,-0.00106389818,-0.0026682836000000002,-0.0011582398,6.577,0,0
-0.005807104,-0.0017396479999999999,-0.0013554448,-0.0029223644000000003,-0.001330948,6.578,0,0
-0.00561124,-0.0041330784,-0.00040457099999999995,-0.0032714662,-0.0022748694000000002,6.579,0,0
-0.005636478,-0.005947971800000001,-0.001522583,-0.00349966,-0.0024816192000000005,6.58,0,0
-0.0029918259999999995,-0.0014647718,-0.0022090102,-0.0008505160000000002,0.0008101388000000002,6.581,0,0
-0.0003047439999999998,0.00047142820000000037,-0.0002477521999999998,0.000820568,0.0012420108000000003,6.582,0,0
-0.0001242700000000001,-0.0026144997999999996,-0.0004832901999999999,-0.00045871600000000007,-0.0018511092,6.583,0,0
0.001276312,-0.0014001454000000003,-0.001839664,-0.0003014910000000001,-0.0019970778,6.584,0,0
0.004226326,0.0019620840000000007,-0.0009562617999999999,0.000631503,-0.001441828,6.585,0,0
0.004832524,0.001431922,-0.00048502979999999983,-0.00042119460000000005,-0.0034323644,6.586,0,0
0.004136576800000001,0.0032747320000000003,-0.0023193218,-0.0005913248,-0.0028656560000000003,6.587,0,0
0.0047967158,0.008694480000000001,-0.0021342818,0.0018441172000000002,0.001432644,6.588,0,0
0.0038200146000000003,0.008385342,-0.00036054179999999987,0.0030045982000000008,0.00268811,6.589,0,0
0.0010234046,0.004105046,-0.00023784919999999992,0.0023890364000000008,0.001241888,6.59,0,0
-0.00045121639999999997,0.002560922,0.0005107188000000002,0.0026598840000000004,0.0016460764000000001,6.591,0,0
-0.0014176692000000002,0.0004471639999999997,0.0021426008000000004,0.0026590766000000004,0.001380496,6.592,0,0
-0.0030563202000000005,-0.003943404,0.0024484438000000005,0.0006678766000000002,-0.001397532,6.593,0,0
-0.004382729,-0.0059344540000000005,0.0015827118000000002,-0.0014254614,-0.003177482,6.594,0,0
-0.004446975000000001,-0.0049081404,0.001751121,-0.0014549988000000002,-0.001794122,6.595,0,0
-0.004273908,-0.0055025344,0.001558135,-0.0016172207999999998,-0.001625558,6.596,0,0
-0.002953186,-0.0034215984,8.571899999999994e-05,-0.0007222971999999999,-0.000370708,6.597,0,0
0.00036121799999999974,0.0014751216000000004,0.001143954,0.0025234268,0.0035277,6.598,0,0
0.002755242,-7.74943999999997e-05,0.002965594,0.0032288448,0.0026083520000000004,6.599,0,0
0.004283492,-0.003168312,0.002041414,0.001611308,-0.0006081140000000003,6.6,0,0
0.00661906,-0.0018661080000000002,0.0009862080000000001,0.001499113,-0.0005153780000000004,6.601,0,0
0.0078753,-0.0022411139999999998,0.0012141838,0.001030141,-0.0008792300000000003,6.602,0,0
0.006053670000000001,-0.004985008000000001,0.00023490460000000012,-0.0011692674,-0.0031646576,6.603,0,0
0.003823542,-0.0020436900000000004,-0.0022713114,-0.0011943554,-0.0010787516000000002,6.604,0,0
0.0023434859999999997,0.00313775,-0.0027481194,0.0010698565999999999,0.0029736704,6.605,0,0
-0.0012280860000000002,0.003747502,-0.0017307174,0.0013787216,0.0027236304,6.606,0,0
-0.0047296180000000005,0.004617914,-0.0016612547999999999,0.0003335696,0.0019949138,6.607,0,0
-0.005724498000000001,0.006082876,-0.0013254336,0.00035443300000000014,0.0025289774,6.608,0,0
-0.0057826380000000005,0.0038307980000000003,0.0002705764000000001,-0.00020593299999999994,0.0013901313999999999,6.609,0,0
-0.005684726,-0.0002675380000000003,0.0007242484000000002,-0.0023164350000000004,-0.0010316525999999999,6.61,0,0
-0.0045391528,-0.0020275760000000006,-0.0006550796,-0.0033460790000000005,-0.0016240686,6.611,0,0
-0.0016604448000000001,-0.003003022,-0.0008416194000000001,-0.0026850588000000004,-0.000888994,6.612,0,0
0.0012050772,-0.004574994000000001,-0.0015499014000000004,-0.0028466358,-0.0014744892,6.613,0,0
0.0023848581999999998,-0.0013378440000000008,-0.0026217594,-0.0012975498000000001,0.0004793108000000001,6.614,0,0
0.0009565221999999999,0.0018366340000000002,-0.0011167574000000005,0.0015957322,0.0029098668,6.615,0,0
-0.0013687789999999999,-0.0007309440000000003,0.00010151259999999999,0.0009560882,0.0008520488,6.616,0,0
-0.002834315,-0.001522514,-0.000471954,-0.00022586799999999973,-0.0005252432000000001,6.617,0,0
-0.003939821,-0.00027987599999999965,9.110400000000003e-05,0.0005115140000000002,0.00041593999999999995,6.618,0,0
-0.0036534370000000003,-0.0025449060000000004,0.0008500996000000001,-8.934320000000002e-05,-0.0007638000000000002,6.619,0,0
-0.0011294809999999999,-0.003996974,-0.0007165163999999999,-0.0018978472,-0.0025585860000000003,6.62,0,0
0.002240675,0.00034217600000000024,-0.0016147404,-0.0007885227999999999,0.00015005599999999997,6.621,0,0
0.004645733000000001,0.0031324380000000004,-0.00033034040000000007,0.0011418152,0.002489026,6.622,0,0
0.0069897530000000005,0.0031216639999999997,0.0002283455999999999,0.0007262186000000001,0.00128567,6.623,0,0
0.009091866,0.005692872000000001,0.000391952,0.0004940040000000001,0.0011534466,6.624,0,0
0.00894084,0.006592596000000001,0.002081576,0.000978934,0.0015592796,6.625,0,0
0.006383844000000001,0.0030939260000000007,0.003024204,0.00014086760000000013,-0.0005461924000000002,6.626,0,0
0.002327718,-4.854599999999979e-05,0.0016104500000000002,-0.0017249324000000001,-0.0031606604,6.627,0,0
-0.001634324,0.000399244,0.000325174,-0.0015537142000000002,-0.0025797624000000003,6.628,0,0
-0.0040651324,-0.00031872599999999997,0.000510148,-0.0007716983999999999,-0.001944153,6.629,0,0
-0.0048850844,-0.0006276400000000003,-0.0006941899999999999,-0.0007050364,-0.00165347,6.63,0,0
-0.0032522824,0.00431246,-0.001308344,0.0018435635999999999,0.0017502239999999999,6.631,0,0
-0.0008402824000000001,0.0050890399999999995,0.001069138,0.0038860016000000002,0.003248574,6.632,0,0
-0.0006532144,-9.899000000000019e-05,0.0015089232000000002,0.00265816,0.0008628479999999998,6.633,0,0
-0.000841452,-0.0015901840000000001,0.00026290319999999984,0.0019575341999999996,0.00044316060000000005,6.634,0,0
-0.000882106,-0.0024351120000000006,0.0011730192,0.0021685641999999996,0.0007346125999999998,6.635,0,0
-0.0024477500000000003,-0.0076352320000000005,0.0021066052,0.0005626053999999999,-0.0015827514000000002,6.636,0,0
-0.004439018,-0.00920948,0.0005116316000000001,-0.0008626506000000002,-0.0022857434,6.637,0,0
-0.004666982000000001,-0.00470715,0.00012179440000000008,0.0004447474,0.0006799046,6.638,0,0
-0.004671604,-0.003275174000000001,0.0013657664000000002,0.0012368012000000001,0.001356276,6.639,0,0
-0.004683246,-0.0027543278000000003,0.0005507876000000002,0.0002866112,-0.0003164880000000002,6.64,0,0
-0.00292614,0.0011650941999999998,-0.0006139264,9.596619999999994e-05,-8.636200000000015e-05,6.641,0,0
-0.0010853500000000001,0.0024021601999999996,-1.3356800000000014e-05,0.00021150420000000004,-0.0003633720000000001,6.642,0,0
-0.0006027060000000002,-1.7337800000000354e-05,0.0004840326,-0.0012859878,-0.002474904,6.643,0,0
-0.0010008740000000001,-0.0007633978000000004,-0.0006832594000000001,-0.0031796797999999998,-0.0034930980000000005,6.644,0,0
-0.0010612960000000002,0.0008319099999999997,-0.0009971986000000001,-0.0030675938000000002,-0.0016279960000000003,6.645,0,0
-0.0020106940000000004,-0.00012231000000000047,-0.0006587026,-0.003272428,-0.0010210220000000001,6.646,0,0
-0.001352728,0.0021227979999999995,-0.0020693086,-0.003418894,-0.00010418,6.647,0,0
0.004160186,0.008448486,-0.0018402300000000002,-0.0007355939999999998,0.0032550040000000006,6.648,0,0
0.008379962,0.006826006,-0.00016836399999999984,0.00041231199999999986,0.0027625840000000002,6.649,0,0
0.008326717999999999,0.000884115999999999,-0.0006935479999999999,-0.0009422940000000001,0.0002941840000000003,6.65,0,0
0.0087083408,-0.0003948600000000011,-0.00098715,-0.0007744338000000001,0.0005931680000000003,6.651,0,0
0.008156316799999999,-0.002190704800000001,0.00032131800000000023,-0.00040635274,0.00025483448000000026,6.652,0,0
0.0035944008000000005,-0.006108450800000001,-1.65963999999998e-05,-0.00204346814,-0.0024410735200000003,6.653,0,0
0.0004909528000000001,-0.002847796800000001,-0.0016933084000000003,-0.00192794714,-0.0017633589200000003,6.654,0,0
0.0014619128,0.004078083200000001,-0.0008273312,0.00088702886,0.00127858108,6.655,0,0
0.0015651660000000002,0.0051966372000000005,0.00026465479999999997,0.0020076966599999998,0.0010829170800000002,6.656,0,0
-0.0002779779999999999,0.004290385999999999,-0.0008066372000000002,0.0020361434,0.0004780266,6.657,0,0
-0.0016558640000000002,0.0038826436,-0.0008215444000000001,0.0023531362,0.0012808506,6.658,0,0
-0.0031589440000000003,0.0002150896000000001,0.0004540595999999999,0.0016898592,0.0004161640000000001,6.659,0,0
-0.005149386000000001,-0.0047509504000000004,0.0001331303999999999,-0.0003133048000000002,-0.0017149399999999999,6.66,0,0
-0.0052608058,-0.005280854380000001,-0.0010686676000000001,-0.0014048284,-0.001035862,6.661,0,0
-0.0028667718,-0.0036197283800000002,-0.000523997,-0.0006950201999999999,0.0011474319999999999,6.662,0,0
-0.0013877878,-0.0043593619799999995,-0.0008509054,-0.0005305016,0.001457608,6.663,0,0
-9.784120000000011e-05,-0.0014543819800000002,-0.0018684954,0.0010543384,0.00342744,6.664,0,0
0.0018842948000000002,0.0029375980200000004,9.639859999999991e-05,0.003924026400000001,0.005255128,6.665,0,0
0.0010857286,0.0002513820000000001,0.0018924906000000001,0.003683492,0.0023006800000000003,6.666,0,0
-0.0012095334000000002,-0.0020836859999999995,0.0013346,0.0020740580000000006,-0.0004862839999999998,6.667,0,0
-0.0022360854,-0.00015547599999999966,0.0018853316,0.002331608,-0.0007422519999999997,6.668,0,0
-0.002868964,-0.002077534,0.0028281416000000004,0.0016134220000000004,-0.002467178,6.669,0,0
-0.0036155280000000002,-0.005353528,0.0012938856,-0.00041979799999999987,-0.004290466000000001,6.67,0,0
-0.0019005919999999996,-0.0008655799999999999,3.7145399999999985e-05,0.0003813,-0.0019382720000000002,6.671,0,0
0.0006365920000000001,0.003294684,0.0011854594,0.00226731,0.00033211799999999995,6.672,0,0
0.0005713580000000002,0.0012353000000000004,0.0017699658000000001,0.0016808858,-0.00023932799999999991,6.673,0,0
0.00022338000000000024,0.0015227460000000002,0.0012817766000000003,0.0007440637999999999,0.00012660600000000003,6.674,0,0
0.0008570500000000002,0.003154828,0.0018753646000000002,0.0005980703999999998,0.0006450539999999999,6.675,0,0
0.0003209779999999999,0.0010118680000000002,0.0024346288000000006,-0.0011142336000000005,-0.000880374,6.676,0,0
-0.0005937360000000003,-0.0010552679999999998,0.0012635908000000003,-0.0035597696,-0.0021293754000000003,6.677,0,0
0.000807846,0.0012020860000000002,-5.140720000000013e-05,-0.0040296274,-0.0007447434000000001,6.678,0,0
0.0024719440000000002,0.0032157920000000003,3.0004000000000006e-05,-0.0036236674000000003,0.00010190260000000006,6.679,0,0
0.0022682180000000002,0.003642574,-0.0012767720000000002,-0.003775620000000001,-0.00010381540000000002,6.68,0,0
0.00265327,0.007106506,-0.0021991940000000002,-0.001728702,0.0021948746,6.681,0,0
0.003045262,0.0070087840000000005,-0.000512944,0.0005409780000000002,0.0027225820000000003,6.682,0,0
0.001381064,0.0005247860000000002,-0.0006394300000000002,-0.000497302,-0.0004580080000000002,6.683,0,0
0.00016059599999999994,-0.0033574279999999995,-0.0019792020000000002,-0.001313914,-0.0014729380000000002,6.684,0,0
0.00016313599999999987,-0.005608558,-0.0011619211999999999,-0.0008851683999999998,-0.0012132352,6.685,0,0
-0.0013246479999999999,-0.011044798,-0.0005903288,-0.0019604104000000002,-0.0035767452000000006,6.686,0,0
-0.00337593,-0.012195922000000001,-0.0024045608,-0.0032209584000000005,-0.0045366752000000005,6.687,0,0
-0.0024788398,-0.005436053999999999,-0.0024564128,-0.0010257804,-0.0012509672000000002,6.688,0,0
-0.0008146537999999999,-0.0010360639999999993,-0.0008634108000000003,0.0016190896,0.0004234687999999998,6.689,0,0
-0.0010524235999999998,-0.00010851599999999958,-0.0014746976,0.0014505648,6.315399999999994e-05,6.69,0,0
-0.0010570035999999997,0.0017565260000000004,-0.001940148,0.0016286889999999998,0.0011699030000000001,6.691,0,0
-0.0003839035999999999,0.0011759460000000004,-0.0005324519999999999,0.0023185650000000003,0.0016235742000000003,6.692,0,0
-0.0010560118,-0.001940862,0.0003303054,0.0007645489999999997,0.00028454460000000006,6.693,0,0
-0.0022836504,-0.0026032980000000004,0.00014258740000000004,-0.0012763590000000001,2.743659999999992e-05,6.694,0,0
-0.0016090146,0.00019263400000000012,0.0011136594,-0.0006259038,0.0021607965999999998,6.695,0,0
-0.0009063776000000001,0.0004361839999999996,0.0018710134,-6.706399999999987e-05,0.0028282976000000002,6.696,0,0
-0.0007055656,0.001300526,0.0003395094,-0.00014859740000000001,0.0034035743999999996,6.697,0,0
0.00030829040000000005,0.005365746,0.000307161,0.0022519126,0.0056199760000000005,6.698,0,0
0.00016699340000000002,0.0036611300000000003,0.001722767,0.0032027386,0.0043143520000000005,6.699,0,0
-0.000447496,-0.0008599899999999993,0.0009268449999999997,0.0014000366,0.00074368,6.7,0,0
0.000692413,0.0002272440000000009,0.0003237295999999998,0.0007899966000000004,-0.0005109460000000002,6.701,0,0
0.002248951,0.0015908780000000009,0.0015986076,0.0004986204000000003,-0.0018900559999999998,6.702,0,0
0.002636213,-0.0013858199999999994,0.0013319468,-0.0009280454,-0.005077834,6.703,0,0
0.0031149486000000004,-0.00038221199999999945,-0.000289336718,-0.0008346534,-0.005236002,6.704,0,0
0.004607086,0.004735948,0.000382295282,0.0019870586,-0.0020909659999999997,6.705,0,0
0.0048344500000000006,0.0049707580000000005,0.0015686846820000002,0.0035519766000000003,-0.0009515319999999996,6.706,0,0
0.002936184,0.0028681080000000003,0.0015842806820000003,0.0032865682000000006,-0.0008912359999999999,6.707,0,0
0.001307666,0.002753748,0.001439516482,0.0030023720000000005,-3.1167999999999983e-05,6.708,0,0
0.00024226999999999994,0.0005953920000000004,0.000856968,0.0016166360000000007,-0.00030579800000000014,6.709,0,0
-0.002139372,-0.004043798,-0.0006061739999999999,-0.0010707419999999997,-0.00148619,6.71,0,0
-0.003985706,-0.0048793099999999996,-0.002358702,-0.002974862,-0.000712746,6.711,0,0
-0.0029963376,-0.0025753020000000007,-0.002577174,-0.0026408128,0.0015101360000000002,6.712,0,0
-0.0021014692000000004,-0.0022032762,-0.0025298399999999998,-0.0027185027999999997,0.0015785506000000004,6.713,0,0
-0.0013218776000000004,0.0011215078000000002,-0.0028732339999999997,-0.0017784194,0.0027369486000000005,6.714,0,0
0.0006462164000000002,0.0054203378,-0.000928246,0.0007739305999999999,0.0044527526,6.715,0,0
0.0009000544000000001,0.0025829138000000003,0.0007499780000000001,0.0005949365999999998,0.0019158766000000002,6.716,0,0
-0.000296328,-0.0010631982,-4.606800000000013e-05,-0.0008479106000000002,-0.0006406894000000002,6.717,0,0
-0.00047331639999999997,-0.0011839573999999997,0.000635912,-0.0007548225999999999,-0.0002867772000000004,6.718,0,0
-0.00038420139999999995,-0.0028202896000000003,0.0017961419999999997,-0.001478198,-0.0013978472000000003,6.719,0,0
-0.0002427334000000001,-0.0036817456000000004,0.0002050639999999998,-0.003745722,-0.0040563332,6.72,0,0
0.0017357126,0.0030398344,-0.0013129760000000002,-0.0028268202,-0.0026305712,6.721,0,0
0.0040039566000000006,0.010600154399999999,-0.0006738680000000001,-0.00021015819999999985,0.00021334480000000013,6.722,0,0
0.0040264806,0.0113927438,-0.0007362960000000001,2.157740000000126e-06,0.00039051000000000027,6.723,0,0
0.0025959239999999995,0.009289242000000001,-0.001258308,7.470573999999997e-05,0.0006882120000000001,6.724,0,0
0.0008580439999999999,0.0052898979999999995,-0.00016887999999999994,0.0008280227400000001,0.001609469,6.725,0,0
-0.001669366,-0.002613722,0.0006219686000000001,-6.690306000000008e-05,0.000731517,6.726,0,0
-0.004390698,-0.010128821999999999,-0.00018151739999999988,-0.0019574430600000003,-0.0008361715999999999,6.727,0,0
-0.0047997660000000004,-0.010680026,-0.0009701953999999999,-0.0018743090000000002,0.00012995439999999997,6.728,0,0
-0.0033277260000000005,-0.0083024006,-0.00016846739999999986,-0.0009744210000000001,0.0013921684,6.729,0,0
-0.0030941040000000003,-0.0064922226,-0.0007484879999999998,-0.000868036,0.0012885968000000002,6.73,0,0
-0.002337667,-0.00029746259999999984,-0.0011846265999999998,0.001151186,0.0030541987999999996,6.731,0,0
-0.0006903068,0.0035078794000000003,0.0013315274,0.003688136,0.0036859314,6.732,0,0
-0.0009650028,0.0002921254,0.0022988034,0.0029656580000000004,0.0006694614,6.733,0,0
-0.0010294594,-0.00039910999999999994,0.0017133371999999997,0.0020296040000000004,-0.0009281245999999999,6.734,0,0
0.00012567860000000004,0.0006112180000000001,0.0026066217999999998,0.002589442,-0.0013235999999999999,6.735,0,0
0.0007649276000000002,-0.002490078,0.0031707758,0.0014925179999999998,-0.003912466,6.736,0,0
0.0014812754000000003,-0.0031930360000000002,0.0015291649999999999,-0.00011226780000000012,-0.005624438000000001,6.737,0,0
0.0034258294,0.002170424,0.001219707,0.0017246222,-0.0031519720000000003,6.738,0,0
0.0032229048000000007,0.003835728,0.0024621612,0.0038887962,-0.0010718379999999997,6.739,0,0
0.00021802680000000034,0.0015169359999999995,0.0018784906000000002,0.0032457715620000005,-0.0008738759999999998,6.74,0,0
-0.0017249751999999998,0.0015676679999999997,0.0012085886000000002,0.0027190395620000003,0.0005140082000000001,6.741,0,0
-0.0028776751999999997,6.809799999999994e-05,0.0016221054000000003,0.002431133362,0.0012933602,6.742,0,0
-0.0037636355999999998,-0.004498762,0.0011155654,0.000660135362,-8.576579999999996e-05,6.743,0,0
-0.0029534944,-0.00617234,-0.0008739206,-0.0013075646380000003,-0.0008127438,6.744,0,0
-0.00038024240000000006,-0.0029151760000000002,-0.001705986,-0.0012228218,0.0009358222,6.745,0,0
0.0012142890000000001,-0.0016617880000000004,-0.00157426,-0.0012782558000000001,0.0010326544,6.746,0,0
0.001339506,4.703400000000027e-05,-0.0031329039999999997,-0.0019227298000000002,0.0007373043999999999,6.747,0,0
0.0024823824,0.006559674000000001,-0.003429436,-0.0005821378000000002,0.0032230124,6.748,0,0
0.0037817504000000005,0.009037434,-0.001857736,-0.0004855558000000002,0.0032079624,6.749,0,0
0.0040840444,0.007231158,-0.002143982,-0.0026012220000000003,0.0005011944000000001,6.75,0,0
0.004257495,0.007465538000000001,-0.0029648900000000004,-0.0031590180000000004,0.000281684,6.751,0,0
0.003965720000000001,0.006131152,-0.00188031314,-0.00293065,5.607199999999989e-05,6.752,0,0
0.0012565120000000002,-6.13879999999999e-05,-0.00168616714,-0.00417754,-0.00287227,6.753,0,0
-0.0023992040000000003,-0.003975282,-0.00329346314,-0.003960394,-0.0032493258000000007,6.754,0,0
-0.0037450380000000004,-0.0032534759999999995,-0.0022705879400000003,-0.0009058939999999998,-0.0003126998000000003,6.755,0,0
-0.00444105,-0.004414812000000001,-0.0003336139399999998,0.0007539580000000003,0.0008251322,6.756,0,0
-0.0044101259999999995,-0.005257696,-0.0006528947999999998,0.0007981820000000004,0.0008871162,6.757,0,0
-0.0024090740000000006,-0.0026530940000000004,-0.0002662468,0.0013136198000000003,0.001790813,6.758,0,0
-0.0008896965999999999,-0.0017767479999999999,0.0014679152,0.0010361818000000002,0.0011792568000000003,6.759,0,0
-0.0008436305999999999,-0.003767002,0.0017211180000000002,-0.0006962002,-0.0008027832,6.76,0,0
0.00010655539999999996,-0.002864908,0.0010529979999999999,-0.0015428438000000002,-0.0009566551999999999,6.761,0,0
0.0021784494,-2.2523999999999895e-05,0.00250535,-0.0003931598000000002,0.0006620628,6.762,0,0
0.0022959974,-0.0008860479999999998,0.003088468,-0.00020145560000000014,0.000463168,6.763,0,0
0.0032402359999999996,0.0014008300000000005,0.0013866439999999998,0.0009944404,0.0009967562,6.764,0,0
0.005874798,0.005945696,0.0020449599999999997,0.0038240224000000004,0.0028761002,6.765,0,0
0.00530276,0.002874474,0.003114572,0.003402276,0.0011475821999999997,6.766,0,0
0.0023794379999999998,-0.0013056160000000003,0.0015211359999999998,0.00118046,-0.0012404338,6.767,0,0
0.0009201399999999996,-0.0011171974000000002,0.0010666995999999997,0.0005295539999999998,-0.0012347938000000001,6.768,0,0
-0.0003732200000000002,-0.0031186394000000004,0.0021098556,-0.0007603100000000003,-0.0019918440000000004,6.769,0,0
-0.003105208,-0.006283739399999999,0.0006606616000000002,-0.003381086,-0.004031126,6.77,0,0
-0.0036344460000000004,-0.0026758354000000002,-0.0014728684000000001,-0.002456742,-0.002621488,6.771,0,0
-0.0017184720000000002,0.0021224046000000002,-0.0008782970000000001,0.0008667419999999999,0.0005513619999999999,6.772,0,0
-0.0007797279999999999,0.0023655152000000004,-0.0005443386000000001,0.001949606,0.0008440682000000002,6.773,0,0
-0.0006770219999999999,0.0028756752000000003,-0.0013962406000000002,0.0019480720000000003,0.0005846842000000002,6.774,0,0
0.0008064099999999999,0.0036312291999999998,-0.0008024060000000001,0.002212344,0.0006558442000000001,6.775,0,0
0.0024833299999999997,0.0022394172,3.6649999999999915e-05,0.0009574860000000002,-0.0006830897999999998,6.776,0,0
0.0020127456,0.0004957692,-0.0008899954000000002,-0.00158367,-0.0021443198000000003,6.777,0,0
0.0010510415999999997,0.0014276380000000002,-0.0017756154000000003,-0.0021319342000000003,-0.0008799640000000002,6.778,0,0
0.00038186160000000004,0.0019190420000000001,-0.0006528834000000001,-0.0015157742000000002,0.0007211580000000001,6.779,0,0
-0.0018020124,-3.9575999999999934e-05,-0.001022232,-0.0018657882000000002,0.000677392,6.78,0,0
-0.0035755963999999996,0.00164768,-0.002041742,-0.0006014582,0.0027240000000000003,6.781,0,0
-0.00435858,0.0029816060000000004,-8.319799999999982e-05,0.0011690878,0.003905126,6.782,0,0
-0.006040326,-0.0007093500000000001,0.0009578600000000003,-3.608000000000018e-05,0.0013817360000000002,6.783,0,0
-0.006227138,-0.001975474,-7.03819999999998e-05,-0.0013498880000000005,0.000534592,6.784,0,0
-0.004746247,-0.001314572,0.00032605420000000017,-0.0009519972000000005,0.0014240200000000002,6.785,0,0
-0.004913611000000001,-0.0051176600000000004,0.0010712762,-0.0018783672000000004,-0.0005570060000000001,6.786,0,0
-0.005642009000000001,-0.00846315,-0.0004283338,-0.0037098872000000008,-0.0025448040000000003,6.787,0,0
-0.0021224930000000005,-0.004824292,-0.0015085298,-0.0022845212000000004,-0.0002614700000000002,6.788,0,0
0.0030187930000000005,-0.0012565960000000004,-0.0008416124000000001,1.8564799999999833e-05,0.00128012,6.789,0,0
0.005223872000000001,-0.0006212708000000003,-0.0007765264,0.00012798139999999989,0.00020989200000000004,6.79,0,0
0.0070517620000000005,0.0018071806000000002,-0.0006546810000000001,0.0005072017999999999,0.0003180600000000001,6.791,0,0
0.009581818,0.0035747592000000008,0.000368291,0.0012532312000000001,0.0005005360000000002,6.792,0,0
0.008758631999999999,0.0014179732000000004,0.0008927452000000001,0.0004990992000000001,-0.0012556239999999999,6.793,0,0
0.004300936,-0.0006067668,0.0002535578,-0.0006396264,-0.0025606138,6.794,0,0
0.001651824,0.00156355,-2.9312999999999995e-05,-1.2477799999999943e-05,-0.0010674138,6.795,0,0
0.0004087619999999999,0.0012287565999999999,0.0005507356000000001,0.0005045778,-0.00032618099999999993,6.796,0,0
-0.000973352,0.0004953539999999998,-0.00016559019999999995,0.0006339402,-0.000253945,6.797,0,0
0.0002965700000000001,0.005189322,3.07316e-05,0.0028420982000000004,0.002079625,6.798,0,0
0.00199744,0.00525955,0.0020114876000000004,0.004270911800000001,0.0022136932,6.799,0,0
0.001149426,0.0006670699999999996,0.0021004558000000005,0.0028606378000000003,-0.0005349188,6.8,0,0
0.000847788,0.0009272465999999995,0.0014182998000000003,0.0022901398,-0.0013002836,6.801,0,0
0.0012110014000000003,0.0011844985999999995,0.0019687716,0.002133463,-0.0016078776,6.802,0,0
-0.0012003166,-0.0035338574000000006,0.0017480918,-0.00032832300000000005,-0.0039252956,6.803,0,0
-0.0034672766000000002,-0.0042525456,-0.0006118642000000001,-0.0017837406,-0.00407846506,6.804,0,0
-0.0019005746000000001,0.0007223543999999998,-0.0013699998,8.386339999999991e-05,-0.0008415150599999997,6.805,0,0
-0.0008430326000000002,0.0019536998,-0.0005617058000000001,0.0011190374,0.0007100369399999999,6.806,0,0
-0.001714508,0.0005813418000000002,-0.0011203272,0.0008502484000000001,0.00048041893999999986,6.807,0,0
-0.0009515134000000001,0.0007189397999999999,-0.00113233214,0.0014188592,0.0010525097399999997,6.808,0,0
-0.00020779940000000008,-0.0009206680000000001,5.253786000000005e-05,0.0007777407999999999,0.0007578788000000001,6.809,0,0
-0.0015201414000000002,-0.004826560000000001,0.0004989878600000001,-0.0010335732000000002,-0.0008149592000000002,6.81,0,0
-0.0024710194,-0.005814720000000001,-0.00029873413999999997,-0.0020129730000000004,-0.0008140312,6.811,0,0
-0.0016739994,-0.0035834919999999998,8.156725999999999e-05,-0.0013611070000000003,0.0008066008,6.812,0,0
-0.0016483124,-0.0033925360000000007,0.00023334700000000001,-0.0014080324000000002,0.0005872640000000001,6.813,0,0
-0.0016405824,-0.00029352200000000005,-0.0011373290000000003,-0.0010060938,0.0010659284,6.814,0,0
-0.0007823964,0.0048466099999999995,-0.0003856730000000001,0.0010987922000000002,0.0032984724000000003,6.815,0,0
-0.0021822044,0.0028448579999999996,0.000896265,0.0006569540000000001,0.0021495524,6.816,0,0
-0.005081626400000001,-0.0006238680000000005,-0.00028008099999999995,-0.001112512,4.366039999999997e-05,6.817,0,0
-0.005639284,-0.00013648800000000074,-0.00102199,-0.0012763954,0.00038047220000000004,6.818,0,0
-0.003875016,-0.0017120860000000005,-7.814959999999976e-05,-0.001868172,-0.00027299620000000014,6.819,0,0
-0.0017651760000000002,-0.0052425762,-0.0011348596,-0.0039851980000000006,-0.002451786,6.82,0,0
0.001575422,-0.0017482322000000002,-0.0030504356,-0.0034997751999999997,-0.0015521420000000003,6.821,0,0
0.006400542,0.0047455678,-0.0020320596000000003,-0.0007576471999999998,0.0013505180000000002,6.822,0,0
0.009175924,0.0051345732,-0.0007503516,-1.7451999999998423e-06,0.0017338622000000001,6.823,0,0
0.0078588826,0.0032623852000000005,-0.0008037432000000001,0.0003415308000000001,0.0014761822,6.824,0,0
0.0055045345999999995,0.0023816514000000004,8.076879999999992e-05,0.0012950652,0.0017260334000000002,6.825,0,0
0.003489024599999999,-0.0010976686,0.0012983228000000002,0.0009339344000000001,0.0005393934000000001,6.826,0,0
0.0005746246000000002,-0.006116618600000001,0.0007439748000000002,-0.0005543535999999999,-0.0010776434,6.827,0,0
-0.0015085009400000002,-0.005903536,-1.2318999999999981e-05,-0.0006694136,-0.0006057833999999998,6.828,0,0
-0.0012346555399999999,-0.003032968000000001,0.0008585682,0.00012276640000000004,0.0003819106000000001,6.829,0,0
-0.00119731354,-0.002157738,0.00044994200000000016,-0.0002730219999999999,-0.0003605687999999999,6.83,0,0
-0.0004727315399999999,0.0030913100000000003,-0.0004812979999999999,0.000978306,0.0011300112000000003,6.831,0,0
0.0013988244600000002,0.008634039999999999,0.0012083920000000004,0.003173624,0.002493726,6.832,0,0
0.0006925160000000001,0.006818173999999999,0.0020093358000000004,0.0025917340000000005,7.283999999999763e-06,6.833,0,0
-0.000913218,0.005045091999999999,0.0008661658000000002,0.0016500400000000002,-0.0011744340000000005,6.834,0,0
-0.0015630800000000001,0.0050291269999999996,0.001571686,0.0019132091000000002,-0.00038388900000000054,6.835,0,0
-0.002899784,0.0005344869999999995,0.002524326,0.0006063730999999999,-0.0014241010000000003,6.836,0,0
-0.004613154,-0.003923003,0.0007730699999999999,-0.0014578905,-0.0027524766000000004,6.837,0,0
-0.0039665588,-0.0011207810000000002,-0.0003141160000000002,4.022349999999999e-05,-0.00031966860000000015,6.838,0,0
-0.0017484588,0.0015891350000000002,0.0008665139999999999,0.0024568695,0.0017619094,6.839,0,0
-0.00024329279999999983,0.0007857400000000002,0.000757862,0.0028603943999999997,0.0009145043999999999,6.84,0,0
0.0014184772,0.0011474100000000002,-0.00028859600000000007,0.0033888327799999995,0.0003944383999999999,6.841,0,0
0.0026859432,-0.000269612,0.00017983000000000005,0.00347450638,0.0001267359999999999,6.842,0,0
0.0017136800000000002,-0.005088194,0.0006582362000000002,0.00166667238,-0.001456594,6.843,0,0
-0.00048128199999999976,-0.008240777999999999,-0.00036278980000000003,-0.00052035562,-0.002706262,6.844,0,0
-0.0013584519999999998,-0.006684726,-0.0008145337999999999,-0.0008458276200000001,-0.001195886,6.845,0,0
-0.0018278564,-0.005789582,0.0003194322,-0.0010893180000000001,-0.0005325411999999999,6.846,0,0
-0.0021293704000000004,-0.0031580519999999993,-0.0004292898,-0.0017076080000000002,-0.0005885591999999999,6.847,0,0
0.0005329256,0.005202188,-0.0012346800000000002,-4.3466000000000034e-05,0.0019326168000000001,6.848,0,0
0.0033863076,0.00882605,0.0002733439999999998,0.001189498,0.0025464808,6.849,0,0
0.0033123396,0.006669550000000001,-6.104800000000018e-05,-0.00034291599999999997,0.0003957148000000002,6.85,0,0
0.0032515846,0.007202788,-0.0008884040000000001,-0.0010443680000000002,0.0007507080000000002,6.851,0,0
0.0035307766,0.006954368000000001,0.0007048699999999998,-0.0006324660000000001,0.0015507319999999998,6.852,0,0
0.0020518786000000002,0.0018777920000000005,0.0014823252,-0.0023708020000000004,-0.0002885782,6.853,0,0
0.0005029740000000001,0.000593214,-0.0001579308000000002,-0.0035985100000000005,-0.00011776220000000016,6.854,0,0
0.0011506020000000001,0.004670856,-0.0002684208000000001,-0.0009010160000000001,0.0032429778000000005,6.855,0,0
0.0020642614,0.004909518,0.00042808719999999975,0.001570976,0.004177217800000001,6.856,0,0
0.0016903568000000001,0.0029724140000000005,-0.0006539302000000001,0.0019705898,0.0032555118000000003,6.857,0,0
0.0013589828,0.0029801160000000005,-0.0008590770000000001,0.0027101084000000003,0.0034925516,6.858,0,0
0.0006510414,0.0007280780000000003,8.144700000000001e-05,0.0030104152000000003,0.0024530196000000005,6.859,0,0
-0.0023050266,-0.004538842,0.00044581160000000015,0.0012650832000000002,-0.0005504123999999998,6.86,0,0
-0.0063503826,-0.007147552000000001,-0.00010717439999999992,-0.0007701247999999999,-0.0025661544000000003,6.861,0,0
-0.00832521,-0.006321922000000001,-7.981799999999951e-06,-0.0008530612,-0.0026290244,6.862,0,0
-0.009124736000000001,-0.00759507,-3.8566399999999916e-05,-0.0015592598,-0.004080922000000001,6.863,0,0
-0.007966998,-0.0058241840000000005,-0.0016980203999999999,-0.0018321426,-0.00412826,6.864,0,0
-0.002216618,0.001283836,-0.001520781,0.00047532140000000004,-0.001180028,6.865,0,0
0.0028116860000000003,0.003097186,-3.304999999999888e-06,0.0008701508,-0.0013431699999999999,6.866,0,0
0.0036717959999999997,0.0010882419999999997,-0.0006638881999999999,-0.0009036826,-0.002821448,6.867,0,0
0.0031891159999999997,0.0014551759999999994,-0.000958992,-0.0010481066000000002,-0.0017078339999999997,6.868,0,0
0.001313616,-0.0009517340000000005,0.0005632059999999999,-0.0019512706000000002,-0.0020102559999999993,6.869,0,0
-0.002233126,-0.007796314000000001,-0.00020332200000000008,-0.0054915046000000006,-0.004541587999999999,6.87,0,0
-0.0040965298,-0.009991594,-0.002295468,-0.006387019999999999,-0.0036684960000000003,6.871,0,0
-0.0029342756,-0.008060356,-0.0012298020000000001,-0.004340938000000001,-0.0010660220000000002,6.872,0,0
-0.0011450415999999996,-0.009282348000000001,-0.00014023999999999992,-0.0037221198,-0.0013828500000000001,6.873,0,0
0.0008659444,-0.010053548,-0.000674918,-0.0032697518000000003,-0.001786648,6.874,0,0
0.0022952524000000004,-0.008110878000000002,0.00048214000000000004,-0.0014997262000000001,-0.0010335502,6.875,0,0
0.0020012042000000004,-0.006933592,0.001936006,-0.0008979922000000001,-0.0016860321999999997,6.876,0,0
0.0019289335999999999,-0.005170116000000001,0.001199174,-0.0018607622000000002,-0.0026140641999999998,6.877,0,0
0.0029705596000000004,0.0008597039999999998,9.305199999999994e-05,-0.001644086,-0.0015131962,6.878,0,0
0.0031677776000000003,0.0058978039999999995,0.0006872639999999999,-0.0005949000000000002,-0.00019478419999999994,6.879,0,0
0.0016404815999999998,0.0063348156,-0.00013561800000000006,-0.0012162456000000001,-0.0005821800000000001,6.88,0,0
0.0018989871999999996,0.0102685756,-0.001764134,-0.00042886560000000005,0.0013532420000000002,6.881,0,0
0.0032368976,0.0131246816,-0.0005523619999999999,0.0018930684,0.00384452,6.882,0,0
0.0022514856,0.0070940016,2.3831200000000105e-05,0.001116616,0.0020841340000000005,6.883,0,0
0.0012376508000000001,0.0017357016000000003,-0.0012633888000000001,-0.00021433200000000024,0.0008396039999999999,6.884,0,0
0.0017105342000000002,-8.999999999996424e-07,-0.0009377402000000001,0.00024956779999999986,0.0016505,6.885,0,0
0.0013870026000000002,-0.00547768,-0.00018588020000000015,-0.0010489782000000002,0.00043301400000000007,6.886,0,0
-0.0004194874,-0.010614344,-0.0017845342000000002,-0.0036910102,-0.0016883784,6.887,0,0
-0.0008648130000000001,-0.007002218000000001,-0.0027775074000000004,-0.0025588922,0.0006703256,6.888,0,0
2.4667799999999974e-05,-0.001876018000000001,-0.0014356714000000003,-0.00015644619999999982,0.0035353935999999997,6.889,0,0
7.933283999999989e-05,-0.0007769380000000002,-0.00099327,-9.657799999999985e-05,0.0025465476000000003,6.89,0,0
-0.00041857116,0.000773724,-0.0013628960000000002,0.0005925940000000002,0.0022004136000000002,6.891,0,0
-0.00085570116,0.0014816860000000005,-0.0003803214,0.00202093,0.0025803759999999997,6.892,0,0
-0.00208860556,-0.000654836,0.0007148706,0.0016546524,0.000935206,6.893,0,0
-0.00377634156,-0.0019319200000000004,0.00043606460000000005,0.0006729244000000001,-0.0008768062,6.894,0,0
-0.0034217139999999997,0.0010454200000000002,0.00041257460000000007,0.0019643504000000003,0.0002847337999999999,6.895,0,0
-0.0019128,0.003981218,0.0014649005999999999,0.0033810224,0.00066799278,6.896,0,0
-0.0007964920000000002,0.006346776,0.000767672,0.0034232764000000004,0.00025773477200000003,6.897,0,0
0.0016912700000000001,0.011432052000000002,0.00019725199999999997,0.005362540000000001,0.003289474772,6.898,0,0
0.0032266480000000004,0.011621846,0.001815822,0.006793148000000001,0.004342530972,6.899,0,0
0.0008863740000000005,0.005694685999999999,0.00186995,0.004744012000000001,0.001821760972,6.9,0,0
-0.002298222,0.002364326,0.0013807286,0.0033472800000000002,0.0013451579919999998,6.901,0,0
-0.005072671999999999,-8.169199999999996e-05,0.0030211626,0.0030183500000000004,0.0012851949999999998,6.902,0,0
-0.007967428,-0.005053506000000001,0.0034522048,0.0005803939999999997,-0.001632273,6.903,0,0
-0.007973873999999999,-0.004996346000000001,0.0008448107999999999,-0.0014266500000000002,-0.0026471124,6.904,0,0
-0.0030448459999999995,0.0021784940000000004,0.00019814479999999984,0.00040100399999999984,0.0002866736000000001,6.905,0,0
0.003521974000000001,0.006409014000000001,0.0012570301999999998,0.001863746,0.0012224156000000001,6.906,0,0
0.008465214,0.006806820000000001,0.0005100822000000001,0.001209794,0.0003053966,6.907,0,0
0.010600614,0.007581393600000002,0.000612402,0.0017275097999999997,0.0006879992000000001,6.908,0,0
0.009615672,0.005248879600000002,0.001821394,0.0022393118,0.0002674466,6.909,0,0
0.006299224,-0.0002161883999999999,0.0010759559999999999,0.0009354918000000002,-0.0016780014000000003,6.91,0,0
0.0022245124,-0.0026998804,-0.000859392,-3.493620000000002e-05,-0.0023253608,6.911,0,0
0.0006236024000000001,-0.00020528439999999972,-0.0010756156,0.0012804418,-0.0007883128000000002,6.912,0,0
0.0005772404,0.0009607899999999998,-0.0014397201999999999,0.0015008220000000002,-0.0009788054000000003,6.913,0,0
0.0006581684000000001,0.003677056,-0.0031504822,0.0013357062000000002,-0.00016546140000000024,6.914,0,0
0.0024403924,0.010031723999999999,-0.0021042538,0.0033140801999999997,0.0033771046000000003,6.915,0,0
0.002945954,0.009807594,0.00026369420000000015,0.0032222444,0.003094718,6.916,0,0
0.0004899619999999996,0.005010034,0.00010062780000000001,0.0008708723999999997,0.0007229599999999999,6.917,0,0
-0.0011673320000000005,0.0032832079999999997,0.0002657451000000001,-0.0002766136000000001,0.0008344646000000001,6.918,0,0
-0.0020640240000000002,0.00039517999999999953,0.0020174751,-0.0015221998000000004,3.460860000000014e-05,6.919,0,0
-0.004331668000000001,-0.00639434,0.0018657463,-0.0043389658000000005,-0.0030779374,6.92,0,0
-0.005136982000000001,-0.007638656000000001,-1.4749700000000012e-05,-0.0052267500000000005,-0.0023444534,6.921,0,0
-0.0031893960000000006,-0.004202320000000001,0.00015646970000000003,-0.0032980300000000004,0.0010731806,6.922,0,0
-0.0016253800000000003,-0.004749792,0.000682713,-0.00200259,0.0012787999999999999,6.923,0,0
-0.0006829800000000001,-0.005535346,-0.000250921,-0.0012774680000000004,0.0008053619999999999,6.924,0,0
0.0002544014,-0.004396746,-0.0003013722,-0.00018885080000000012,0.0012838288,6.925,0,0
-0.00022496259999999998,-0.005381348000000001,-0.0002478482,6.283200000000008e-06,6.668879999999992e-05,6.926,0,0
-0.0015899966,-0.007103602000000001,-0.0013133536,-0.0007508508,-0.0019935212,6.927,0,0
-0.0019191044,-0.0040028600000000004,-0.0022103236000000004,-0.0007029908,-0.0014692451999999997,6.928,0,0
-0.0011980503999999997,0.00039999999999999975,-0.0015115276000000001,0.00021246520000000007,-0.0003276991999999999,6.929,0,0
-0.0011090624,0.0015970348,-0.0015690278,-0.00014175999999999994,-0.0011846480000000002,6.93,0,0
3.579560000000013e-05,0.0057975748,-0.0019294478000000002,0.0008131600000000001,0.0008370840000000001,6.931,0,0
0.0025022256,0.009479672800000002,0.00018344020000000006,0.002901018,0.0034536000000000002,6.932,0,0
0.0027520774,0.005274854800000001,0.0015015662000000003,0.00176612,0.0009576300000000001,6.933,0,0
0.0018872634000000003,0.0020710528000000006,0.0008657882,7.9298e-05,-0.0010841679999999997,6.934,0,0
0.002635174,0.0030982280000000006,0.0014477760000000002,0.00017484400000000006,-0.00027294359999999944,6.935,0,0
0.002599802,-0.00046097599999999944,0.0027217040000000006,-0.001005774,-0.0018703475999999998,6.936,0,0
2.3959999999999954e-06,-0.00484833,0.0013889986,-0.003458444,-0.0043871336,6.937,0,0
-0.001197102,-0.00203361,-2.6023400000000046e-05,-0.002377422,-0.0018011816,6.938,0,0
-0.0006817122,-0.00040777199999999993,0.0009856186,0.000359582,0.0012435924,6.939,0,0
-0.0018386482,-0.0035851520000000003,0.0010158626,0.0007782336000000001,0.000542328,6.94,0,0
-0.0021405639999999997,-0.00401847,0.00017772060000000001,0.0009636776,0.00038298599999999976,6.941,0,0
2.6159999999999682e-05,-0.003814538,0.00102572,0.0015232791999999998,0.0007785693999999999,6.942,0,0
0.001288884,-0.0064027979999999995,0.00191084,0.0005780952,-0.0005822426000000002,6.943,0,0
0.0013495522,-0.006810797200000001,0.0012235306,-0.0011459364000000003,-0.0023376286000000002,6.944,0,0
0.0012934682,-0.0030768812,0.0011661206,-0.00037691799999999996,-0.001733011,6.945,0,0
-0.0008260939999999999,-0.0014282981599999997,0.0021602926000000005,0.0008389640000000002,-0.0011321342000000002,6.946,0,0
-0.004951732,-0.0012332381599999998,0.0010335726,0.00046675240000000016,-0.0012944574,6.947,0,0
-0.007205016,0.00312322184,-8.138340000000022e-05,0.0023199024,0.0016825306000000002,6.948,0,0
-0.00823933,0.0042710490400000006,0.0007205540000000001,0.004164398000000001,0.0032538826000000007,6.949,0,0
-0.0080129774,0.0005030430399999997,-2.9199999999998975e-07,0.001892826,0.0008952930000000006,6.95,0,0
-0.0024499174000000004,0.0015856540000000004,-0.001601532,-0.00017541400000000026,0.00041536820000000077,6.951,0,0
0.0051617026,0.0036105920000000006,-0.0016224960000000002,-0.0005128099999999996,0.0006793028000000006,6.952,0,0
0.0086051146,-0.000988048,-0.0017659379999999999,-0.00350379,-0.0021181132,6.953,0,0
0.008614440599999999,-0.0046289320000000005,-0.00332948,-0.006575398,-0.0033424564000000003,6.954,0,0
0.008040943999999998,-0.002154052,-0.003312158,-0.005022342,0.00015996360000000026,6.955,0,0
0.004236402000000001,-0.0027510620000000003,-0.0018188899999999999,-0.0030364600000000004,0.0015044536000000002,6.956,0,0
-0.0013807320000000002,-0.0058993380000000005,-0.0015731434,-0.0030325220000000006,0.00016239880000000007,6.957,0,0
-0.0034725140000000003,-0.004883392,-0.0013856434000000001,-0.0019102940000000003,0.0006890012000000002,6.958,0,0
-0.003077296,-0.00418003,-0.0005256708000000001,-0.0006703256,0.0005807302000000001,6.959,0,0
-0.002993028,-0.006325426,-0.0009749248000000001,-0.0015768596,-0.0014081818,6.96,0,0
-0.0026329752,-0.00605232,-0.0022096988000000002,-0.0023480864,-0.0019735498,6.961,0,0
-0.00010626519999999999,-0.0013415800000000006,-0.001995185,-0.0008577144000000002,-0.0003165958000000002,6.962,0,0
0.0022984368000000003,0.0015180419999999998,-0.0012748168,-0.00032037380000000005,-0.0008119642000000002,6.963,0,0
0.0031671588,0.005146332,-0.0018577594000000002,-7.037e-05,-0.0002761580000000001,6.964,0,0
0.0040671968,0.011414528,-0.0005819694000000001,0.002639084,0.0031289140000000004,6.965,0,0
0.0032291399999999997,0.011408973999999999,0.0023786966,0.0032422548000000002,0.0020516300000000005,6.966,0,0
-0.0005152160000000006,0.007667648000000001,0.0027011642,0.0014240388000000001,-0.0010236979999999995,6.967,0,0
-0.0038598680000000007,0.006527062000000001,0.00264555244,0.0012259686,-0.0007904479999999996,6.968,0,0
-0.005276508000000001,0.0037488480000000012,0.0040059764400000005,0.0005952383999999999,-0.0013760379999999996,6.969,0,0
-0.005959642000000001,-0.002105804,0.00347454044,-0.0020153216000000002,-0.004189772,6.97,0,0
-0.004312150000000001,-0.0026745954000000002,0.0007302484399999999,-0.0023694210000000005,-0.0026258740000000003,6.971,0,0
-0.0005577239999999999,0.00035586060000000015,0.00088300444,0.00014266700000000018,0.0019041840000000002,6.972,0,0
0.001517664,-0.0017628294000000002,0.0019269380000000002,0.0012331866000000003,0.002467832,6.973,0,0
0.0019958040000000003,-0.0049178074,0.0007261100000000001,0.0013444126000000001,0.0016204539999999997,6.974,0,0
0.00233676866,-0.0050719294,0.00034474600000000005,0.0019078868,0.0019493633999999997,6.975,0,0
0.00153415026,-0.006583136,0.00045434200000000005,0.0014928902,0.0005908033999999997,6.976,0,0
0.00039415026,-0.008678548000000001,-0.0009408099999999999,-8.733980000000003e-05,-0.0020184266000000005,6.977,0,0
0.0008506882600000002,-0.005127956,-0.0027664559999999996,-0.0005751738000000002,-0.0020340206000000003,6.978,0,0
0.00213734426,0.0008655039999999998,-0.00236054938,0.0005769582000000001,-0.0005561066,6.979,0,0
0.0018791336000000005,0.0024363684,-0.00228873938,0.00043758200000000005,-0.0009350880000000002,6.98,0,0
0.0017495524000000005,0.0052543284,-0.0031634053800000004,0.0010583780000000002,0.000912228,6.981,0,0
0.0024569384000000007,0.008828810400000001,-0.0016218133799999997,0.002981112,0.0038640600000000003,6.982,0,0
0.0007121564000000002,0.005312234400000001,-4.916137999999982e-05,0.0017174919999999997,0.002129366,6.983,0,0
-0.0017609156,0.0008195343999999999,-0.0007286199999999999,-0.0004245200000000003,0.0003128460000000005,6.984,0,0
-0.0021443016,9.655999999999706e-06,-0.0003422332,-0.0005818620000000003,0.0007825206000000005,6.985,0,0
-0.002694066,-0.0037293000000000005,0.0011426348,-0.0019464340000000004,-0.0009238353999999997,6.986,0,0
-0.004179108,-0.009010542000000002,0.0001440088,-0.004635556000000001,-0.0033744954000000005,6.987,0,0
-0.0035368198,-0.006927164,-0.0012109452000000002,-0.0037270348,-0.0009759473999999999,6.988,0,0
-0.0014259978,-0.002802676,-0.00015202120000000003,-0.0009574088000000004,0.0021230726,6.989,0,0
-0.0008928634000000001,-0.0031868319999999997,0.000526866,-0.0006795834000000001,0.00122601,6.99,0,0
-0.0008981534,-0.002671746,0.00021705739999999997,-0.0005243234,0.00049678,6.991,0,0
-3.145540000000003e-05,-0.0010868139999999997,0.0008438993999999999,0.00045008016,0.0005877928,6.992,0,0
0.0007339684,-0.0015750992,0.0011706634000000003,2.9490959999999976e-05,-0.0012605292000000003,6.993,0,0
0.0015099103999999999,-0.0006422471999999999,0.00017379139999999988,-0.0012656446400000003,-0.0034640692000000002,6.994,0,0
0.003110486,0.0042092368,-0.0007834666000000001,-0.0004900660399999999,-0.0022145232000000004,6.995,0,0
0.004105897999999999,0.007731446800000001,-0.0004060260000000001,0.00078501396,-0.0007733172000000001,6.996,0,0
0.003013296,0.009364698800000001,-0.0012770820000000001,0.0004732804000000001,-0.0007128270000000002,6.997,0,0
0.0026461479999999996,0.012951178000000002,-0.0019194280000000004,0.0022096164000000003,0.002621139,6.998,0,0
0.00226884,0.011272438000000001,0.00017073199999999983,0.0036958120000000006,0.0044318510000000005,6.999,0,0
-0.000406324,0.003911958,0.0008322420000000002,0.0014511720000000001,0.0015663990000000004,7.0,0,0
-0.0016794280000000002,0.000604494000000001,-6.97120000000001e-05,-0.00027189399999999996,0.0006385070000000002,7.001,0,0
-0.0009798907000000002,-0.0017363299999999997,0.0007553960000000002,-0.0004224360000000002,0.0006478015999999998,7.002,0,0
-0.0012640247000000001,-0.007398690000000001,0.0016984822000000001,-0.0026194760000000004,-0.0024408284,7.003,0,0
-0.0022828162999999997,-0.009247032,-4.458579999999998e-05,-0.004861936,-0.0036609900000000003,7.004,0,0
-0.0009131751,-0.0046710480000000006,-0.0006951958000000001,-0.0024980980000000007,-0.00030453199999999994,7.005,0,0
0.0001841273,-0.00304075,0.0007998942000000001,0.0003245899999999998,0.001414328,7.006,0,0
-0.001635678,-0.005333908000000001,0.0006112062000000001,0.0005386380000000001,0.0006293304000000001,7.007,0,0
-0.002881764,-0.005019082000000001,0.00011823999999999998,0.0012454014000000003,0.0009715624000000002,7.008,0,0
-0.0024485584,-0.004254342800000001,0.0011604419999999998,0.0020087331999999996,0.0009230444000000001,7.009,0,0
-0.0022226815999999996,-0.0056142908,0.0014103202,0.0008072592000000002,-0.0007906136000000001,7.01,0,0
-0.0018402260000000001,-0.0046589428,0.00014744619999999988,-0.00023330479999999994,-0.0015879707999999998,7.011,0,0
0.0014741100000000003,0.0015712172,0.0005449141999999999,0.0013666132,2.7179200000000073e-05,7.012,0,0
0.0054229560000000005,0.0060304512,0.0017117562000000001,0.0023999258,-6.49880000000002e-06,7.013,0,0
0.0072464040000000006,0.008907474,0.0005489122,0.002710272,0.00012710360000000003,7.014,0,0
0.008018368000000001,0.013719018000000003,0.0002161319999999999,0.004832132,0.0029402436,7.015,0,0
0.006904126000000001,0.012564816,0.00117767,0.0047092720000000005,0.0019909368000000003,7.016,0,0
0.0030853920000000006,0.006547156,-0.00011356600000000006,0.0014981500000000002,-0.0010994132000000003,7.017,0,0
-0.0008748339999999995,0.0034174120000000007,-0.0014862820000000002,-0.0002669279999999997,-0.0008739052000000005,7.018,0,0
-0.003248626,-0.0002127839999999994,-0.0007096520000000003,-0.0014933579999999998,-0.0013242420000000002,7.019,0,0
-0.0045518534,-0.006376400000000001,-0.0005677552000000002,-0.004400012,-0.0039057220000000004,7.02,0,0
-0.0037183114000000003,-0.0067851460000000014,-0.0017888832000000003,-0.005410824000000001,-0.0026958240000000003,7.021,0,0
-0.0006175633999999999,-0.0022502879999999996,-0.0008045786000000001,-0.0029681259999999998,0.0013074500000000001,7.022,0,0
0.0007329426,-0.0016380112,0.0008985013999999999,-0.0016271100000000002,0.0019088360000000003,7.023,0,0
-0.0012182054,-0.0026994752000000003,0.0006470593999999999,-0.00167189,0.0010525340000000002,7.024,0,0
-0.0037251140000000003,-0.0016926032,0.0009015096,-0.0007096420000000001,0.0017031484,7.025,0,0
-0.0062036520000000005,-0.0026423632,0.0017702155999999999,-0.000268598,0.0011964346000000003,7.026,0,0
-0.008926302,-0.005808399200000001,0.0009280749999999999,-0.001158932,-0.0009379213999999999,7.027,0,0
-0.010073794,-0.005244962,-0.0009375230000000001,-0.0011145760000000002,-0.0009352374,7.028,0,0
-0.007411920000000001,-0.00158525,-0.0009932830000000002,0.00047726400000000014,0.0011758206,7.029,0,0
-0.0024272200000000008,0.0001581239999999995,-0.0009822750000000001,0.00045590800000000004,0.0007225182,7.03,0,0
0.0034167399999999997,0.005836193999999999,-0.002155611,0.0011660320000000002,0.001387342,7.031,0,0
0.009422242,0.013544812,-0.001010357,0.0036720800000000003,0.00377627,7.032,0,0
0.011796810000000001,0.011895385999999999,0.0006215070000000001,0.0030709778,0.0015950699999999996,7.033,0,0
0.010070452,0.006835754,-0.00017427899999999984,0.0010798517999999998,-0.0010734740000000003,7.034,0,0
0.006873654000000001,0.004465894000000001,-0.00033177179999999986,0.0009301297999999996,-0.0008702634000000004,7.035,0,0
0.0025938040000000008,-0.001703108,0.0007918062000000002,-0.0002622462000000002,-0.0023036794000000005,7.036,0,0
-0.002191612,-0.009434354,-8.442779999999993e-05,-0.0030608042000000004,-0.0048408714,7.037,0,0
-0.003566307,-0.00850289588,-0.0014338858,-0.0027703640000000004,-0.0025242874,7.038,0,0
-0.0015418350000000003,-0.004205553880000001,-0.0002867578000000001,-0.00020824999999999988,0.0010354165999999997,7.039,0,0
-0.0007306791999999998,-0.00427981788,0.000352508,0.0008367520000000003,0.0009944975999999998,7.04,0,0
-0.0008705391999999999,-0.0043204878799999995,-4.224980000000004e-05,0.0016109931200000002,0.0010273216,7.041,0,0
-0.0007851811999999999,-0.00436531188,0.0007260942000000001,0.0024600151200000002,0.0015191918,7.042,0,0
-0.0016692142,-0.006761994,0.0012060222000000002,0.0018147791200000003,-7.049220000000008e-05,7.043,0,0
-0.0028163162,-0.007485097600000001,0.00022610420000000004,0.0006682127200000002,-0.0021559582,7.044,0,0
-0.0019590299999999996,-0.003477943600000001,-0.0006732217999999999,0.00097896272,-0.0010079698,7.045,0,0
0.0002538159999999998,0.0008687483999999996,-0.00031841399999999994,0.0016688656,0.0005970401999999999,7.046,0,0
0.001593902,0.004813838400000001,-0.0014061120000000002,0.0008889616000000001,0.00044948199999999996,7.047,0,0
0.0036801240000000003,0.012138458400000001,-0.0024579099999999998,0.0017789196,0.003162134,7.048,0,0
0.00510613,0.0153858,-0.0007179399999999998,0.0032410900000000003,0.00481767,7.049,0,0
0.0026254220000000005,0.01058038,7.25760000000002e-05,0.0012896379999999999,0.0014232380000000003,7.05,0,0
-0.0012788339999999997,0.005987560000000001,-0.0003631419999999999,-0.000554924,-0.0005329879999999999,7.051,0,0
-0.004202681999999999,0.00139464,0.0014022360000000003,-0.000482158,-0.00041831179999999966,7.052,0,0
-0.0072053080000000005,-0.00710576,0.0030812120000000007,-0.002161992,-0.0029921738,7.053,0,0
-0.009060278,-0.012420468,0.0017414914,-0.004854446,-0.0048517278,7.054,0,0
-0.0059134059999999995,-0.009060878,0.0011963784,-0.0036645180000000003,-0.0016302278000000004,7.055,0,0
0.0002132940000000006,-0.004714958,0.0022748464,-0.0013133700000000003,0.0005024981999999999,7.056,0,0
0.004935774,-0.002702094000000001,0.0014199490000000002,-0.0010594764,-0.0002406060000000002,7.057,0,0
0.00819423,0.000609278,0.00023728300000000013,-0.0006913984000000001,0.00031060599999999995,7.058,0,0
0.009895358000000002,0.0024634987999999996,0.0005862936000000001,8.694559999999977e-05,0.0005499599999999999,7.059,0,0
0.008264349200000002,8.900879999999985e-05,7.667060000000013e-05,-0.00046040440000000017,-0.0009266080000000002,7.06,0,0
0.004200805199999999,-0.0026240772000000003,-0.0016970794,-0.0016885680000000003,-0.0015060880000000003,7.061,0,0
0.0011200272000000003,-0.0018408392000000002,-0.001981693,-0.0007149156,0.00038544199999999973,7.062,0,0
-0.0009159768,-0.0013092152,-0.001033025,0.0005097204,0.0004407883999999997,7.063,0,0
-0.0025603348000000003,0.0008662519999999996,-0.0016369809999999998,0.0008149724,0.00016788239999999987,7.064,0,0
-0.002171424,0.008314052,-0.0013832369999999998,0.0030064204000000002,0.0030165704,7.065,0,0
-0.0016874548000000002,0.012434038000000001,0.0005122169999999999,0.003915842,0.0028236924,7.066,0,0
-0.0029750808,0.011042758000000001,0.0005018716,0.001695542,-6.919960000000003e-05,7.067,0,0
-0.0037117208000000002,0.010032112000000001,-2.3626200000000075e-05,0.0008998540000000002,4.156999999999899e-06,7.068,0,0
-0.0038482907999999997,0.005905312000000001,0.0009694278,0.000415898,-0.0003124509999999999,7.069,0,0
-0.005799936800000001,-0.004319628000000001,0.001148013,-0.002457934,-0.0034164530000000003,7.07,0,0
-0.0073118260000000004,-0.011257968,-0.000592195,-0.00374066,-0.0031779750000000004,7.071,0,0
-0.00575587,-0.010853915999999998,-0.0005663436000000001,-0.001342532,0.0005171069999999999,7.072,0,0
-0.004440752399999999,-0.011063389999999998,0.0007475862000000002,0.00025692999999999983,0.001410956,7.073,0,0
-0.0033326696,-0.011428250000000001,0.0006583262,0.00076024674,0.0013515640000000004,7.074,0,0
0.00014944039999999995,-0.0078081620000000004,0.001050841,0.0022033687400000003,0.0022965208,7.075,0,0
0.0040116044,-0.004409866679999999,0.0022154750000000006,0.0027156477400000004,0.0012364648000000003,7.076,0,0
0.006181320400000001,-0.0030800766800000005,0.0018873720000000004,0.0016375937399999998,-0.0010482412000000002,7.077,0,0
0.0076546728000000015,5.852731999999965e-05,0.00027418599999999994,0.0006896717400000001,-0.0011004992,7.078,0,0
0.008551552,0.004439207319999999,-0.00018167779999999996,0.001193833,0.00030524079999999976,7.079,0,0
0.006510536000000001,0.00477274412,-0.0007236397999999999,0.000258181,-0.0003863320000000002,7.08,0,0
0.0035670940000000003,0.006048742800000001,-0.0020960998,1.0466400000000019e-05,0.000604682,7.081,0,0
0.0025938520000000002,0.009015258800000002,-0.0011487998,0.0023903604000000004,0.0031792100000000005,7.082,0,0
0.0016095940000000002,0.0062050608,0.00045071619999999995,0.0019047924000000003,0.0015090340000000005,7.083,0,0
0.0004576864000000001,0.0030870728,9.573200000000001e-05,-0.0004106715999999996,-0.0006744879999999998,7.084,0,0
8.431040000000001e-05,0.0039193100000000005,0.00029697919999999996,-0.00040175159999999977,-0.00011313179999999982,7.085,0,0
-0.0012947056,0.001409596,0.0010622592,-0.0012243799999999997,-0.0011551537999999997,7.086,0,0
-0.0037735076,-0.003645588,-0.00024785080000000004,-0.004662052,-0.003951783800000001,7.087,0,0
-0.004598605600000001,-0.002206604,-0.0023054368000000004,-0.004580436199999999,-0.0026172718000000003,7.088,0,0
-0.003374482,0.0012507240000000004,-0.0018478726,-0.0013921522,0.0005964982000000001,7.089,0,0
-0.00183723,0.0008411680000000004,-0.0010658118000000001,-0.00035972620000000017,0.00069046176,7.09,0,0
0.00023985200000000036,0.0014372400000000007,-0.0012523718,0.00020875379999999978,0.00054099976,7.091,0,0
0.002385578,0.0029805846000000007,-0.0001021878,0.0016687677999999999,0.0010852421600000004,7.092,0,0
0.0026549492000000007,0.0006487686000000003,0.0010018182000000003,0.0014254559999999999,-0.00013244583999999992,7.093,0,0
0.0012326192,-0.0031660414000000007,0.0006904138000000001,-0.00043365800000000007,-0.00172035632,7.094,0,0
0.0006339452,-0.0026137994000000006,0.0003614378000000001,-0.0005301360000000001,-0.00052343208,7.095,0,0
0.0010073192,-0.0012568134000000004,0.0012366858,0.00020963800000000006,0.0011151279199999998,7.096,0,0
0.0005427946,-0.0019999720000000005,0.00029380779999999993,-0.0006530220000000001,0.0008202395199999998,7.097,0,0
0.0014404514000000003,0.002358618,-0.0010771742000000003,0.000473162,0.0028488435200000003,7.098,0,0
0.0024741994000000004,0.006887488000000001,0.0005449659999999999,0.002526818,0.004408732,7.099,0,0
-0.0002987806,0.0032910400000000003,0.001017716,0.0008713339999999997,0.0013853759999999998,7.1,0,0
-0.0044678386,4.4062000000000094e-05,-0.000470368,-0.0010444220000000006,-0.0007305619999999999,7.101,0,0
-0.007305424,-0.0005483140000000003,-0.00034643800000000013,-0.0012029740000000005,-0.001095636,7.102,0,0
-0.010633042,-0.005661534,0.00016212600000000007,-0.0028886120000000005,-0.0034906960000000006,7.103,0,0
-0.013402460000000001,-0.010185048,-0.0018502500000000003,-0.005058636000000001,-0.005487348,7.104,0,0
-0.010597344000000002,-0.006163538,-0.002863357,-0.003295086,-0.0027747200000000005,7.105,0,0
-0.004993784,-0.002415578,-0.0009520250000000002,-0.0003455000000000001,-0.0001517719999999999,7.106,0,0
-0.0008172480000000005,-0.00263107,-5.692999999999974e-06,0.00019261000000000018,-0.0001287119999999999,7.107,0,0
0.004126632,-0.00026237559999999985,0.00025687500000000005,0.000788414,0.0006005320000000002,7.108,0,0
0.009284592000000001,0.0014357224,0.0014741570000000002,0.00158457,0.0010884613999999997,7.109,0,0
0.010675566000000001,-0.0012552815999999998,0.0015840104000000002,0.0007021459999999998,2.904740000000009e-05,7.11,0,0
0.009245706000000001,-0.0027892016,0.00033856639999999997,-0.00032234400000000007,-0.0006813026000000002,7.111,0,0
0.00865315,0.00019096040000000014,0.00023347840000000002,0.0008533740000000001,0.0013025633999999998,7.112,0,0
0.006852938,0.0006485360000000001,0.0011001384,0.0015385380000000003,0.0017948698,7.113,0,0
0.0032438099999999997,0.000837588,-9.519599999999976e-06,0.0013052940000000002,0.0010272164,7.114,0,0
0.0016916418,0.006504981999999999,-0.000306866,0.003476074,0.0028656824,7.115,0,0
0.0007963197999999999,0.008371014,0.0016322040000000004,0.004190948,0.0026183324000000003,7.116,0,0
-0.0014654662000000002,0.004426598,0.0012277898000000002,0.001752066,-0.00024204559999999953,7.117,0,0
-0.0025958482,0.0035634819999999998,-0.00028780419999999975,0.0005994819999999999,-0.0006270439999999998,7.118,0,0
-0.0026107242,0.0025845519999999995,6.687700000000011e-05,-7.335599999999979e-05,-0.00048503799999999976,7.119,0,0
-0.003382464,-0.003269032,4.724700000000015e-05,-0.002837228,-0.0032520559999999997,7.12,0,0
-0.0031293644,-0.004709415,-0.002302563,-0.004508338000000001,-0.0038833640000000003,7.121,0,0
-0.0005464964000000002,0.0001988649999999999,-0.0026365448000000005,-0.0020089160000000003,-0.0005314039999999996,7.122,0,0
0.0013462876,0.0016628330000000003,-0.0009300268,0.00035802800000000025,0.0010130380000000004,7.123,0,0
0.0015736656,0.0004767869999999998,-0.0008971484,0.0010461860000000002,0.0010793220000000004,7.124,0,0
0.0017119476,0.0010931029999999998,-0.0004783372000000001,0.0022344800000000005,0.0020552724000000005,7.125,0,0
0.0016279222,-0.0002912700000000006,0.0013467508000000001,0.0023523200000000006,0.0015953504000000005,7.126,0,0
0.00014717219999999995,-0.004287682000000001,0.0024217608,0.0004063160000000001,-0.0005949816,7.127,0,0
-0.0014990538000000002,-0.0050820200000000005,0.0019601608,-0.0011869508,-0.0011428136,7.128,0,0
-0.0013411664000000001,-0.002473012,0.0023111152,-0.0007577307999999999,0.00020137840000000013,7.129,0,0
-0.0018694304000000002,-0.0024619579999999998,0.002253028,-0.0013780928,-0.00010591600000000006,7.13,0,0
-0.0027086426,-0.0001395779999999998,0.0001083080000000001,-0.0012295668000000001,0.0008923460000000001,7.131,0,0
-0.0015600806,0.005767914000000001,-0.0006463190000000001,0.0015039492,0.0034999,7.132,0,0
-0.0014222323999999995,0.0053353282,-6.258300000000006e-05,0.0016091821999999999,0.002143486,7.133,0,0
-0.0023098838,0.0026196182000000007,-0.000880935,-0.0004158638000000001,-0.00029893400000000027,7.134,0,0
-0.0010184798,0.003605656600000001,-0.001352443,-0.0005401378000000003,-0.00011779400000000028,7.135,0,0
0.00015517960000000015,0.0014709306000000005,-0.00017782020000000002,-0.0011210318,-0.0012462360000000004,7.136,0,0
-0.0006213761999999998,-0.0037285594000000003,-0.0005607912000000001,-0.0039836458,-0.004362804,7.137,0,0
0.0004041776000000003,-0.0024917296,-0.0024156672,-0.004000033400000001,-0.003172566,7.138,0,0
0.0031642656000000005,0.0015399723999999998,-0.0018701252000000003,-0.0010013713999999995,0.000252314,7.139,0,0
0.0034336036000000006,0.0009236579999999998,-0.0006493472000000001,0.00020452060000000034,0.0005567745999999998,7.14,0,0
0.0022034442000000007,0.0003786639999999997,-0.0009155184,0.0005469886,0.0004146366,7.141,0,0
0.0018925460000000004,0.0005538399999999996,-0.0002629984,0.0016040189800000002,0.0012152092,7.142,0,0
0.000726022,-0.002768248000000001,0.0007598344000000001,0.0013219263800000002,0.00022967319999999997,7.143,0,0
-0.001827594,-0.006035306000000001,9.362400000000092e-06,-0.00043486161999999994,-0.0017931118,7.144,0,0
-0.002690196,-0.005061538000000001,-0.0011254476000000001,-0.0007321656199999998,-0.0008302243999999998,7.145,0,0
-0.0012076940000000003,-0.003655964,-0.0006842371999999999,0.0004928843800000002,0.0010786076000000003,7.146,0,0
-0.0008535566000000002,-0.004497696,-0.0012071552,0.0005042922000000001,0.0007191850000000001,7.147,0,0
-0.0008634386000000002,-0.001385706,-0.002065068,0.0016701322000000002,0.0019792030000000006,7.148,0,0
0.00020434540000000006,0.0028229120000000003,-0.0001963379999999999,0.0039219982,0.0035841700000000002,7.149,0,0
0.00017048140000000002,0.0022664652,0.0007039160000000001,0.0027209702000000006,0.0013242960000000002,7.15,0,0
-0.00027013365399999997,0.004372071200000001,-0.00039650199999999997,0.0008597162000000002,-0.00050444,7.151,0,0
9.742946000000044e-06,0.0090278372,0.00020162400000000018,0.0007327307999999999,-0.0001458852000000001,7.152,0,0
-0.000425363054,0.0084134812,0.0014168420000000002,-0.0007567431999999999,-0.0017198112,7.153,0,0
-0.0020770030540000002,0.0055168552,0.0001169820000000001,-0.0027560638000000003,-0.0035677672000000004,7.154,0,0
-0.003163105054,0.007160662000000001,-0.00063985,-0.0010434738000000003,-0.0011196431999999999,7.155,0,0
-0.00374399,0.0065395520000000006,0.001036434,0.0015872301999999999,0.0015157548,7.156,0,0
-0.00428515,9.773200000000011e-05,0.001395576,0.0018863238,0.001413962,7.157,0,0
-0.002501042,-0.004316442,0.0007017939999999999,0.0017564897999999994,0.001399848,7.158,0,0
0.0016482719999999999,-0.006996036000000001,0.001268988,0.0012156163999999998,0.0009167820000000001,7.159,0,0
0.005162278000000001,-0.010882474,0.001758484,-0.0005229376000000002,-0.0013492900000000002,7.16,0,0
0.006915944000000001,-0.012054778400000002,0.000589016,-0.0024132276,-0.0031322388,7.161,0,0
0.0073215020000000006,-0.006962202400000001,0.00022687,-0.002330222,-0.0020940408,7.162,0,0
0.005375656,-0.0033913764,0.0013725240000000002,-0.0016724370000000001,-0.0012169822,7.163,0,0
0.001591628,-0.0021964844000000004,0.000571694,-0.001508841,-0.0008259121999999999,7.164,0,0
-2.78339999999998e-05,0.0026391956,4.301000000000001e-05,0.0006821530000000001,0.0016046098000000002,7.165,0,0
-0.0006319139999999998,0.0027496240000000004,0.0016707540000000002,0.002422557,0.0024547586000000002,7.166,0,0
-0.001874142,-0.002213632,0.0014370452,0.0008896450000000003,0.0006974346,7.167,0,0
-0.0010976002,-0.0022882600000000003,-2.3894799999999946e-05,0.00013721199999999995,0.0002889399999999998,7.168,0,0
7.360939999999995e-05,-0.000746848,0.0010364352000000001,0.0005148453999999998,0.00047656399999999985,7.169,0,0
-0.0006995186000000001,-0.0040041040000000005,0.0013518434,-0.0012495926,-0.002271838,7.17,0,0
-0.0010453566,-0.00320211,-0.0005698125999999999,-0.0025550076000000004,-0.0043862680000000005,7.171,0,0
0.0010737934,0.0030942499999999998,-0.0008212018,-0.0019102896000000001,-0.0033828260000000007,7.172,0,0
0.0019110076000000004,0.008131032,-0.0014787878000000001,-0.0006394196000000002,-0.0018258,7.173,0,0
0.001453756,0.015413288,-0.0025969558,0.001639551,0.0012221679999999998,7.174,0,0
0.0012229120000000003,0.020153424,-0.001219606,0.002402605,0.003329124,7.175,0,0
-0.001182078,0.01607776,-0.00013325199999999994,1.1639999999999828e-05,0.0022421780000000005,7.176,0,0
-0.004832152,0.008818939999999997,-0.00093936,-0.0024546140000000004,0.0009071979999999999,7.177,0,0
-0.006225466000000001,0.0029128519999999996,-0.00046740599999999985,-0.0034550600000000002,0.0009974060000000002,7.178,0,0
-0.0053136680000000006,-0.004902910000000002,0.0002459040000000002,-0.004116182,0.00039876599999999983,7.179,0,0
-0.003685676,-0.009306898000000001,-0.0008398240000000001,-0.0022177800000000004,0.0012634,7.18,0,0
-0.00015372399999999983,-0.008998518,0.00030700400000000004,0.00253032,0.004135906,7.181,0,0
0.00226272,-0.015499498000000002,0.002805406,0.003971878,0.0019217460000000007,7.182,0,0
0.0023146060000000007,-0.024152770000000004,0.0022412540000000002,0.0015037759999999992,-0.00253121,7.183,0,0
0.003004332,-0.025313944000000005,0.000459964,0.0003899359999999998,-0.0032539939999999996,7.184,0,0
0.004105194000000001,-0.022310236,7.738820000000023e-05,0.0002907960000000005,-0.0029839339999999997,7.185,0,0
0.004100988000000001,-0.017359156000000004,-0.0010732458000000003,-0.0010746160000000002,-0.00347142,7.186,0,0
0.003354372000000001,-0.005988037999999999,-0.0027667746000000007,-0.00036565199999999995,-0.0015268340000000001,7.187,0,0
0.003045042,0.0065916820000000015,-0.0019228066000000002,0.0017758539999999999,0.000995536,7.188,0,0
0.0015365440000000008,0.012241558,-0.0014097445999999999,0.0006114,-0.00011105799999999998,7.189,0,0
-0.0011552379999999998,0.016076898,-0.0027172328000000003,-0.0016526702,-0.00094425,7.19,0,0
-0.002966362,0.021260058,-0.0026653408,-0.0016448482,0.0008757400000000003,7.191,0,0
-0.00412977,0.021698246,-0.001239834,-0.0017191102,0.0015800820000000004,7.192,0,0
-0.0066470240000000005,0.015713526,-0.0006280239999999999,-0.0040489362000000004,-0.00042998799999999964,7.193,0,0
-0.009022660000000002,0.009081746,-0.00033758999999999997,-0.0059034802,-0.001501316,7.194,0,0
-0.009146704,0.0022571840000000006,0.000788962,-0.00604864,-0.0008909860000000003,7.195,0,0
-0.0085146996,-0.005906002000000001,0.0001755606,-0.005836122,-0.00101443,7.196,0,0
-0.0051334916,-0.00790925,-0.0005972134,-0.0025269819999999997,0.001608414,7.197,0,0
-0.00048651960000000035,-0.00867037,0.0015105866,0.0026075720000000003,0.004499496,7.198,0,0
0.0008916324,-0.016598630000000003,0.0027362266,0.003817814000000001,0.0019823019999999996,7.199,0,0
0.0022231924000000007,-0.020775248,0.0012248365999999998,0.003358392,-0.0004871140000000001,7.2,0,0
0.006107446000000001,-0.015965302,0.0007088579999999998,0.005040084,0.0008281800000000004,7.201,0,0
0.009044938,-0.009078060000000002,0.0012899839999999997,0.006963324,0.0019221480000000003,7.202,0,0
0.010501066000000002,0.0009203000000000006,0.00012829799999999967,0.00809321,0.002768304,7.203,0,0
0.013525530000000001,0.0171906,-0.00025744060000000037,0.010678774,0.006332714000000001,7.204,0,0
0.014777260000000002,0.028493500000000005,0.0019939174,0.012808496,0.008086764,7.205,0,0
0.011145768,0.029796640000000003,0.0030712473999999997,0.010988718,0.005958758000000001,7.206,0,0
0.006107804,0.030516640000000005,0.0022259472,0.00790777,0.004524656,7.207,0,0
0.0023636360000000006,0.031246200000000002,0.0026298372000000004,0.005857378,0.00386351,7.208,0,0
-0.0012769399999999998,0.025770474,0.0031590398,0.0032696999999999995,0.00131146,7.209,0,0
-0.0059241039999999995,0.015205374,0.0019996158,-0.0006167300000000007,-0.0022655360000000003,7.21,0,0
-0.008337446,0.006340434000000001,0.0008523778,-0.0031923900000000007,-0.0039171860000000005,7.211,0,0
-0.0076488573999999995,-0.002508206,0.0005226349999999998,-0.0044708074,-0.00466301,7.212,0,0
-0.0063849580000000005,-0.01089304,-0.0006898980000000001,-0.0053241748,-0.004666262000000001,7.213,0,0
-0.00366737,-0.012140428,-0.0005381980000000004,-0.0028673528000000012,-0.0016204700000000002,7.214,0,0
-0.0007136779999999995,-0.013710308000000001,0.0016466380000000002,-0.0007405928000000003,-0.0005603200000000002,7.215,0,0
-0.0008256240000000001,-0.019865588,0.0009725020000000003,-0.0020992548000000003,-0.003362504,7.216,0,0
-0.0016294326,-0.021622788,-0.0012260990000000002,-0.0027754994000000004,-0.0039819537000000006,7.217,0,0
-0.000989148,-0.019321814,-0.0015621850000000002,-0.0015670420000000003,-0.0029245677,7.218,0,0
-0.001115642,-0.01739936,-0.0022116768000000004,-0.0016209739999999996,-0.0034131617000000003,7.219,0,0
-0.0012466142000000001,-0.011302412,-0.003983392800000001,-0.0019578760000000003,-0.0025954717,7.22,0,0
0.0004458318,-0.0008493159999999998,-0.0029647928000000007,0.0001742400000000001,0.0006097923000000002,7.221,0,0
0.0009682358000000001,0.005131704000000001,-0.00075882,0.000645994,0.000801018,7.222,0,0
-0.0003201862,0.007195364000000001,-0.001186229,-0.001273022,-0.0007703206000000001,7.223,0,0
-0.001088926922,0.009457084000000001,-0.0013422607400000001,-0.001762614,-2.75726e-05,7.224,0,0
-0.002056144722,0.009020256,1.2721259999999871e-05,-0.0016107360000000002,0.0004113194,7.225,0,0
-0.003287886722,0.00503032,0.00067843926,-0.003633272,-0.0012729046,7.226,0,0
-0.003302250722,0.00041231999999999944,0.00025520646,-0.006223096000000001,-0.0027620965999999997,7.227,0,0
-0.0026108235219999996,-0.003173792,0.0006136344599999998,-0.006709956,-0.002200158,7.228,0,0
-0.0029121508,-0.008388114000000002,0.000988496,-0.0073840444,-0.0023715699999999995,7.229,0,0
-0.0022254886,-0.010093510000000002,-0.00038868999999999997,-0.0066873082,-0.0012212159999999996,7.23,0,0
0.0004450153999999999,-0.007468680000000002,0.00038061400000000004,-0.0026038681999999997,0.0020662120000000004,7.231,0,0
0.0011936073999999999,-0.011468840000000001,0.002739188,-0.0007243141999999998,0.0013089740000000005,7.232,0,0
0.0008106965999999998,-0.017764808,0.0020547820000000002,-0.0023092562,-0.001606092,7.233,0,0
0.0022062986,-0.016974149999999997,0.000558046,-0.0019739301999999997,-0.0017265299999999996,7.234,0,0
0.0032830124000000002,-0.014209317999999999,0.00046992400000000025,-0.0004891983999999999,-0.0014777619999999999,7.235,0,0
0.0026698384,-0.012213907999999999,-0.000925534,-0.0008372284,-0.0026555056,7.236,0,0
0.0021384506,-0.004030283999999999,-0.0031306040000000004,0.00016890540000000034,-0.0012705656000000002,7.237,0,0
0.0021536489999999997,0.006861336000000001,-0.0023011564,0.0030424014000000003,0.0017226883999999997,7.238,0,0
0.0011690145999999997,0.011264739999999999,-0.001055633,0.0033107238000000005,0.0017410804,7.239,0,0
-0.00017059540000000008,0.013610264,-0.001483853,0.0017620732,0.0013898764,7.24,0,0
-0.0007876534000000001,0.017161064,-0.0007583290000000001,0.0015627472,0.0026937280000000003,7.241,0,0
-0.0014766956000000003,0.016041629999999998,0.0006278849999999999,0.0007411614,0.0023662480000000005,7.242,0,0
-0.0028733304000000005,0.009876969999999999,0.00035924139999999986,-0.0021332946000000006,-0.0003567059999999998,7.243,0,0
-0.0038743140000000002,0.004549084,-0.0007077280000000002,-0.004361554600000001,-0.001798482,7.244,0,0
-0.0029624720000000003,-0.00015471800000000052,-0.00046434000000000015,-0.004683172000000001,-0.0016218879999999997,7.245,0,0
-0.0017745619999999995,-0.007328838000000001,-0.0009524534000000002,-0.005062062000000001,-0.0023656379999999998,7.246,0,0
0.0005419360000000002,-0.009086162000000002,-0.0023680474,-0.0030979180000000007,-0.0005828359999999999,7.247,0,0
0.004340862,-0.007641542000000001,-0.0012893914000000001,0.0007095280000000001,0.0023384200000000003,7.248,0,0
0.005231526,-0.012002156,0.00011564660000000005,0.001057556,0.0008392080000000001,7.249,0,0
0.003429276,-0.013531374,-0.0005808273999999999,0.00013982399999999976,-0.0012988960000000001,7.25,0,0
0.0025652603999999995,-0.007593573999999999,-0.0006809018,0.0009961239999999997,-0.0005954339999999999,7.251,0,0
0.0017985863999999997,-0.0027668999999999992,-9.515799999999981e-06,0.0013006159999999999,-0.0003711799999999998,7.252,0,0
-0.0003794528000000002,0.0005604200000000016,-0.0008632544000000001,0.0006661319999999999,-0.0009617516000000003,7.253,0,0
-0.0007056988000000001,0.00902634,-0.0013166572800000001,0.002457406,0.0015159704000000003,7.254,0,0
0.0008733291999999998,0.014857040000000002,0.00051677872,0.004742666,0.0037995984000000005,7.255,0,0
0.00033335879999999996,0.01248513,0.0013185585200000001,0.0041659159999999995,0.0026886524000000003,7.256,0,0
-0.0018162812,0.009715664,0.00100917292,0.003365162,0.0021903604000000003,7.257,0,0
-0.003058404,0.007932090000000001,0.0019590495199999997,0.0036059720000000007,0.0027093160000000002,7.258,0,0
-0.004416892,0.0031301300000000005,0.0025609904,0.0022782159999999996,0.0011393560000000004,7.259,0,0
-0.00670592,-0.0026117099999999997,0.0015504184000000002,-0.0004874879999999997,-0.0015891260000000002,7.26,0,0
-0.007000474,-0.0042959240000000004,0.00023948840000000008,-0.001590202,-0.0018699734000000002,7.261,0,0
-0.00410051,-0.00439849,0.00026911659999999995,-0.0017644320000000002,-0.0017349834000000004,7.262,0,0
-0.0003761879999999991,-0.003538802,-0.0008082714000000002,-0.0021499500000000003,-0.0022008214000000005,7.263,0,0
0.0037567520000000004,0.001714578,-0.0018309034000000002,0.00034167399999999993,0.0006143025999999999,7.264,0,0
0.006405468000000001,0.003761858,-9.167140000000012e-05,0.002910976,0.0023559458,7.265,0,0
0.005553078,-0.0009585979999999997,0.0004862026000000001,0.0017615940000000002,-1.2328800000000091e-05,7.266,0,0
0.0035247920000000005,-0.003181166,-0.0006570259999999998,0.0012180446000000004,-0.0007660229999999999,7.267,0,0
0.000758934,-0.0029047079999999998,-0.00040052779999999975,0.0021377506,0.0003760310000000001,7.268,0,0
-0.003011398,-0.005255842,0.00031434420000000016,0.0012818266,-0.00032792300000000036,7.269,0,0
-0.005035426000000001,-0.005069216,-0.0009162836,0.0005263286000000002,-0.0001674442000000002,7.27,0,0
-0.002993438,0.001788506,-0.0010671496,0.0027512026,0.0028378318,7.271,0,0
-0.0004748220000000006,0.006687126000000001,0.00027660080000000006,0.004096266,0.00372696,7.272,0,0
0.0005350039999999994,0.007362134000000001,0.00015425800000000005,0.0030494540000000005,0.002583284,7.273,0,0
0.003417162,0.010462848,0.00017088800000000006,0.0026571860000000006,0.0024760500000000005,7.274,0,0
0.006564169999999999,0.012348718,0.0012875498,0.0019267680000000006,0.001984684,7.275,0,0
0.005595012000000001,0.008623506,0.0015865012,-0.0007558540000000002,-7.825599999999986e-05,7.276,0,0
0.0025182240000000003,0.003813361999999999,0.00046336879999999987,-0.0037336899999999996,-0.0019082259999999998,7.277,0,0
0.0010403840000000003,0.0016953815999999997,0.00014034939999999998,-0.004640228,-0.001783594,7.278,0,0
-0.00051506942,-0.0016721599599999997,1.1978799999999893e-05,-0.0049481726,-0.0020229799999999997,7.279,0,0
-0.00142236942,-0.00292746196,-0.0015604072,-0.0040693686,-0.0013205099999999996,7.28,0,0
0.0005501985800000003,0.00020089404000000013,-0.0009921486,-0.0004158466000000003,0.0015248580000000002,7.281,0,0
0.0017406765800000003,-0.00212484196,0.0015029694,0.0012227769999999998,0.0010447760000000003,7.282,0,0
0.0011086865800000007,-0.007317681560000001,0.0014091294,-0.00023565300000000016,-0.0017749760000000002,7.283,0,0
0.0014381580000000001,-0.007695742,0.0005186959999999999,-0.0003907864000000002,-0.001561028,7.284,0,0
0.00156551,-0.007098156,0.001207134,0.00013723959999999993,-0.001083808,7.285,0,0
0.00044308599999999987,-0.007746552,0.000569494,-0.0012719215999999998,-0.0026152449999999995,7.286,0,0
0.00012672799999999975,-0.0030160779999999997,-0.0015692500000000003,-0.0012201204,-0.0012879236,7.287,0,0
0.0012124279999999998,0.004829942,-0.0013318280000000002,0.0020179496,0.0020679804,7.288,0,0
0.0008058916,0.006563686,-0.0004173460000000001,0.0034540016,0.0017029624,7.289,0,0
-0.0010110364,0.006367182000000001,-0.0011336100000000002,0.0027079756,0.0003258564000000001,7.29,0,0
-0.0020702923999999998,0.008124012000000002,-0.0010067696,0.0028846008000000005,0.0011547174000000001,7.291,0,0
-0.0035608504,0.006568186,0.00018001839999999997,0.0021739100000000003,0.0005072500000000003,7.292,0,0
-0.0060648484,0.001463406,0.00043263260000000006,-0.0006160860000000001,-0.002008466,7.293,0,0
-0.008421116,-0.0010214540000000002,-2.7485399999999972e-05,-0.002508662,-0.002632014,7.294,0,0
-0.008335651999999999,-0.0012225820000000003,0.0007380546000000001,-0.0022924360000000006,-0.00153042,7.295,0,0
-0.0068078159999999995,-0.004133930000000001,0.0009116482,-0.0023047440000000005,-0.0019194819999999997,7.296,0,0
-0.0035582580000000008,-0.0030205580000000004,-0.0002691818000000001,-0.00084694,-0.0003380099999999999,7.297,0,0
0.002798982,0.002198262,0.000596174,0.002433334,0.002811388,7.298,0,0
0.007565601999999999,0.00067986,0.0017717140000000002,0.0023347700000000003,0.001474306,7.299,0,0
0.008563184000000001,-0.003134488,0.0006267060000000001,0.0004543420000000004,-0.0005194079999999998,7.3,0,0
0.008389054,-0.002795106,0.00012871000000000014,0.0006288140000000001,0.00028343599999999976,7.301,0,0
0.007797882,-0.0041315399999999995,0.0011308060000000003,0.00044853000000000015,8.618199999999997e-05,7.302,0,0
0.004582116,-0.008006135999999999,0.0005095504000000001,-0.0012815213999999998,-0.0016700920000000002,7.303,0,0
0.0020756522000000004,-0.005988826,-0.0008035316,-0.0006522920000000001,-3.002400000000003e-05,7.304,0,0
0.0025365262,-0.0010467080000000001,0.0003007564000000001,0.001665816,0.002523972,7.305,0,0
0.0007267341999999998,-0.000285286,0.0009809304,0.0012554734000000001,0.0014531820000000001,7.306,0,0
-0.0033385418,0.0004760442000000001,-3.589359999999994e-05,0.0003540873999999999,0.00037474200000000007,7.307,0,0
-0.0055261018,0.0026759541999999996,-0.00022002759999999996,0.0007429368,0.0007540566000000001,7.308,0,0
-0.00582966,0.0026263642,0.0002050502000000001,-0.00012623259999999998,-0.0004079474,7.309,0,0
-0.0065213694,0.0007243862000000001,-0.00043301980000000004,-0.0022694746000000003,-0.0027429854,7.31,0,0
-0.0053078766,0.0013566522,-0.0013091098,-0.002915776,-0.0023516594,7.311,0,0
-0.0015117146,0.002094268,-0.0004386798,-0.0027235366,-0.0010855874000000002,7.312,0,0
0.0009582934000000001,0.001258754,-0.0005389862,-0.0035058646000000007,-0.0008847859999999999,7.313,0,0
0.0026400774000000004,0.004502014,-0.0007478214,-0.0014947186000000001,0.001894748,7.314,0,0
0.0038529768000000004,0.005434718,0.0012347425999999998,0.0012682134000000002,0.003425978,7.315,0,0
0.0031936740000000005,0.0002146559999999997,0.0016635028,0.00012042340000000006,0.0003219919999999997,7.316,0,0
0.002547283320000001,-0.00174039,0.0002136127999999998,-0.0006378379999999998,-0.0012848140000000004,7.317,0,0
0.0028704153200000007,-0.00086443,0.0002891205999999999,0.0005158440000000002,-0.0007566640000000003,7.318,0,0
0.00213538932,-0.0035754236000000005,0.0004929515999999999,-0.00027541799999999993,-0.0018339240000000002,7.319,0,0
0.00044881931999999995,-0.004898107600000002,-0.0015662484,-0.0018146162,-0.001829904,7.32,0,0
0.00036707731999999996,-7.642360000000015e-05,-0.0026154626,0.0002511318000000001,0.001946938,7.321,0,0
0.0005550820000000003,0.0023663944,-0.0020630926,0.0026375558,0.004114164000000001,7.322,0,0
-0.001097228,0.0013134910000000002,-0.0021848696,0.0022415838000000004,0.0031486958000000007,7.323,0,0
-0.002319452,0.0025900066,-0.0018486191999999998,0.0021882438000000006,0.0029854338000000003,7.324,0,0
-0.002121088,0.0030855174000000004,-0.00029978319999999993,0.0024653284,0.0022678358000000004,7.325,0,0
-0.0026291500000000002,9.833399999999593e-06,0.0012217108000000003,0.0008603304000000004,-0.0007602601999999999,7.326,0,0
-0.004041752,-0.0025640286000000005,0.0016884418000000002,-0.0015946076,-0.0033778102000000003,7.327,0,0
-0.003773482,-0.0021465452,0.0020072186,-0.0017740448000000003,-0.0033531686000000003,7.328,0,0
-0.0029553086000000004,-0.0035616752000000003,0.0020616946,-0.0016239888000000005,-0.0038049074000000003,7.329,0,0
-0.0028496748000000002,-0.0036407276000000005,0.00047456260000000003,-0.0016757081999999998,-0.0030467514000000005,7.33,0,0
-0.0009350287999999998,0.0007741324,0.0001367756,0.0013874517999999999,0.0009761626,7.331,0,0
0.00048751520000000007,4.231039999999997e-05,0.0015245126000000002,0.0033586098,0.0017084886000000004,7.332,0,0
-0.0004294568000000001,-0.0049544096,0.0010599410000000002,0.0018968129999999998,-0.00043076280000000017,7.333,0,0
-0.0008797062000000001,-0.0051614616,-8.601099999999977e-05,0.0015162533999999997,-4.066799999999978e-05,7.334,0,0
-0.0006239556000000001,-0.004662724,0.00030561220000000015,0.0018893824,0.0003609580000000001,7.335,0,0
-0.0014486532000000001,-0.007057484000000001,3.0546800000000193e-05,-0.00014623900000000026,-0.001242508,7.336,0,0
-0.0005732652000000002,-0.0036905139999999998,-0.0015960232,-0.0012578026,-0.00016732799999999995,7.337,0,0
0.0037045728,0.004785846000000001,-0.0009651311999999999,0.0009435294,0.0031085820000000004,7.338,0,0
0.0056390048,0.007768706000000001,0.0005887168,0.0016090510000000002,0.0030889439999999997,7.339,0,0
0.0049151824,0.007741820000000001,0.0004269502,0.0007381270000000001,0.0015461759999999998,7.34,0,0
0.004984475,0.00965669,0.00055400676,0.0009268256199999998,0.0012754952,7.341,0,0
0.0035299050000000003,0.00803149,0.0011903507600000002,0.0005160732199999998,-8.048280000000005e-05,7.342,0,0
-0.0004839750000000002,0.002163898000000001,0.00016167275999999996,-0.00133483478,-0.0028607388,7.343,0,0
-0.002530683,0.00043679800000000007,-0.0014093172400000001,-0.00269340678,-0.0037621008000000003,7.344,0,0
-0.001215689,0.002871708,-0.0012364496400000002,-0.0025196467800000003,-0.0029357194,7.345,0,0
-0.0010005908,0.0019810200000000004,-0.0015161998000000002,-0.0027242440000000002,-0.003299171,7.346,0,0
-0.0010944548000000002,0.004034354,-0.0027441978,-0.0017308399999999995,-0.0010885709999999998,7.347,0,0
0.00035736519999999996,0.009002185999999999,-0.0015587698000000005,0.0007971319999999999,0.002753975,7.348,0,0
0.00027532519999999994,0.004978066,0.0003771162000000002,0.0007106419999999998,0.0018892269999999998,7.349,0,0
-0.0015065748,-0.0019402940000000008,-0.00018427199999999986,-0.0009423560000000003,0.00027347760000000004,7.35,0,0
-0.0017730564000000002,-0.003960048000000001,-0.0002814019999999998,-0.0009700080000000003,0.001206936,7.351,0,0
-0.0006672183999999999,-0.007107788000000002,0.0007802518000000004,-0.0015924936000000004,0.000372474,7.352,0,0
-0.0006919144,-0.011080580000000001,-9.179819999999983e-05,-0.0036689336000000003,-0.0014361239999999998,7.353,0,0
-0.00036437840000000003,-0.0079397706,-0.0016297642,-0.0027502470000000004,0.0008953720000000002,7.354,0,0
0.0014574036000000001,-0.0021378646,-0.0006894822,0.0004167550000000001,0.00365052,7.355,0,0
0.0017163812000000002,-0.0004909325999999997,0.00020049979999999998,0.0012298090000000001,0.0027162032,7.356,0,0
4.4241200000000053e-05,0.0004497074000000003,-0.0003943339999999999,0.0012513512,0.0017689652000000002,7.357,0,0
-0.0010014428,0.0010588634000000003,0.0002323500000000001,0.0021195632,0.0014104343999999996,7.358,0,0
-0.0014068408000000002,-0.0007588319999999999,0.0008828340000000001,0.0015919725999999999,-0.0006825056000000002,7.359,0,0
-0.0019636988,-0.002738772,0.00031797400000000006,-0.00024770939999999996,-0.0028815496000000004,7.36,0,0
-0.0014846620000000003,-0.002030192,7.374800000000008e-05,-0.0005726874,-0.0026318024,7.361,0,0
0.00014891599999999991,-0.0019250620000000002,0.0015070180000000002,0.00037820000000000014,-0.0019345944000000001,7.362,0,0
0.0010480959999999999,-0.00313743,0.0013230612000000002,0.00014710600000000028,-0.0020986476,7.363,0,0
0.00288109,0.00058683,0.0005218951999999999,0.001698524,0.00039428840000000004,7.364,0,0
0.005460666,0.0034184840000000003,0.0025097392000000005,0.0038002820000000003,0.0023946184000000004,7.365,0,0
0.005679638000000001,1.374400000000043e-05,0.0028254732000000003,0.002177824,0.00018044800000000015,7.366,0,0
0.004637596000000001,-0.0014602439999999994,0.0011528132000000004,0.000554354,-0.000781414,7.367,0,0
0.0036771280000000004,-0.00031165399999999964,0.0012808020000000002,0.0008218479999999998,0.0004533720000000005,7.368,0,0
0.0004629559999999996,-0.003242328,0.0013039960000000002,-0.0002642242399999999,-0.0005282159999999999,7.369,0,0
-0.004880424000000001,-0.0058078878000000006,-0.0012570939999999998,-0.00198641984,-0.0014666228,7.37,0,0
-0.006940268000000001,-0.0009979678,-0.002149122,-0.00026769384,0.0015746492,7.371,0,0
-0.0064279794000000005,0.0029927462,-0.000638986,0.0015888541600000002,0.0032717151999999998,7.372,0,0
-0.0049421554,0.0037772662000000005,-0.000379442,0.0007868181600000003,0.0018011752000000004,7.373,0,0
-0.0007611353999999997,0.007225166200000001,0.00013804140000000002,0.0004511504000000003,0.0015363797400000001,7.374,0,0
0.0035857566,0.008847326,0.0016064974,0.00041498800000000036,0.00127122014,7.375,0,0
0.004794400000000001,0.00469318,0.001755301,-0.001474522,-0.00089234986,7.376,0,0
0.0032320794000000007,0.0001383599999999997,0.0005179990000000001,-0.0036999840000000003,-0.00258425186,7.377,0,0
0.001861891400000001,-0.0009100820000000005,-7.304799999999944e-06,-0.0033701156000000006,-0.00198258926,7.378,0,0
0.00020045940000000003,-0.003642242,-6.563219999999996e-05,-0.0032035306,-0.0022557078000000003,7.379,0,0
-0.0016157214000000004,-0.00513446186,-0.0016181422,-0.0034876546,-0.0022402148,7.38,0,0
-0.0008647087999999999,-0.00013521585999999976,-0.0020592858,-0.0008616026000000001,0.0008763631999999999,7.381,0,0
0.0005330005999999999,0.00212788694,-0.0007067298000000002,0.0009598054,0.0014589418,7.382,0,0
-0.0005951834000000001,-0.0007139370599999998,-0.0010463520000000002,-0.0004989130000000004,-0.0008863047999999999,7.383,0,0
-0.0019635914000000003,-0.0009541650599999996,-0.00143433,-0.001090236,-0.0004626633999999998,7.384,0,0
-0.0025761446000000005,-0.0016543611999999997,5.9688000000000015e-05,-0.0005376394000000004,0.0003897840000000002,7.385,0,0
-0.0049650926,-0.0065157012000000005,0.000606029,-0.0018351834000000003,-0.0013621803999999996,7.386,0,0
-0.005559998,-0.0065503422,-0.000803415,-0.0024935844,-0.0008549369999999996,7.387,0,0
-0.0015085619999999998,-0.00019650219999999994,-0.000744983,0.00022610359999999995,0.002993005,7.388,0,0
0.0021604180000000003,0.0025717258000000002,-0.0002524196,0.0021217676000000003,0.0036326816000000002,7.389,0,0
0.0036191340000000004,0.0023148558,-0.0015748236000000001,0.0021695046000000003,0.0021869196000000005,7.39,0,0
0.005385829000000001,0.0036181817999999997,-0.0020368566000000003,0.0028443126,0.0022120836000000003,7.391,0,0
0.005976738200000001,0.0031880880000000012,-0.0012323666000000001,0.0026122416,0.0010330356000000003,7.392,0,0
0.0032224802000000003,-0.0008178900000000002,-0.0011793066000000002,0.0009366056000000001,-0.0015928404,7.393,0,0
-0.00023104379999999995,-0.0030865954000000003,-0.0016948800000000002,0.00010367960000000001,-0.0024246378000000006,7.394,0,0
-0.0013584338,-0.0012124374000000004,-0.000694694,0.0010113260000000001,-0.0011801478000000002,7.395,0,0
-0.0018444208000000003,-0.0014082174,4.212399999999999e-05,0.0008875800000000001,-0.0016911894000000004,7.396,0,0
-0.002303078,1.3174600000000224e-05,-0.000614444,0.0015067680000000001,-0.0003349054000000003,7.397,0,0
-0.001583928,0.0044648726,0.00093041,0.0042121599999999995,0.0030087286,7.398,0,0
-0.0017797160000000002,0.0028107060000000005,0.0029781420000000005,0.004139312,0.0015521000000000003,7.399,0,0
-0.002826882,-0.00046592599999999997,0.002371974,0.0019193080000000004,-0.001124618,7.4,0,0
-0.0024493606,0.0007352280000000004,0.0022108966,0.0013731308,-0.0008334089999999997,7.401,0,0
-0.0015769926,-0.00022500020000000003,0.0030314106,0.0007347608000000002,-0.0018506349999999998,7.402,0,0
-0.0009830306,-0.0034822324,0.0016546866,-0.0019582552,-0.004424809,7.403,0,0
0.0010856874000000002,0.00012276960000000042,-0.00036076540000000006,-0.002269853,-0.002005823,7.404,0,0
0.0035097714,0.0055299296000000005,0.0003410386,0.00041523100000000006,0.0019431510000000002,7.405,0,0
0.0036428660000000002,0.0050792396,0.00109381,0.0012479122000000004,0.001971796,7.406,0,0
0.0025943959999999997,0.003997227800000001,0.000284954,0.0006492342000000003,0.00159028,7.407,0,0
0.0013123540000000004,0.003085096,0.00042427000000000003,0.0007262842000000001,0.0018321543999999998,7.408,0,0
-0.0007459600000000002,-0.001504054,0.0007128582,-0.00023036199999999936,2.9986399999999886e-05,7.409,0,0
-0.0029498220000000004,-0.006251008000000001,-0.0007055018000000001,-0.0029833919999999996,-0.0027415036000000004,7.41,0,0
-0.0034812940000000002,-0.005952326000000001,-0.0022233178,-0.004119428,-0.0026649955999999996,7.411,0,0
-0.0029968080000000005,-0.00452488,-0.0014098838000000003,-0.003178774,-0.0017024792000000003,7.412,0,0
-0.0040175820000000004,-0.004948234,-0.0011357638000000002,-0.0032088159999999998,-0.0022085196,7.413,0,0
-0.003934326,-0.000762298,-0.0012027896,-0.0018666259999999997,7.624239999999994e-05,7.414,0,0
-0.002167936,0.003122136,0.0011346864000000001,0.000502782,0.0026892523999999998,7.415,0,0
-0.00204359,-0.00016761599999999977,0.0020683824000000003,-0.0002759520000000003,0.0007124924,7.416,0,0
-0.00090284,-0.0010962379999999998,0.0007374004000000003,-0.0015830180000000003,-0.0006266980000000002,7.417,0,0
0.003194802,0.002111278,0.0006488984000000002,-0.0012188408000000002,5.279799999999987e-05,7.418,0,0
0.005728142,0.0009616919999999999,0.0009061730000000002,-0.0020624628000000004,-0.0014786784,7.419,0,0
0.005927002000000001,-0.0014942780000000001,-0.000737537,-0.0036266308,-0.0028370984000000003,7.42,0,0
0.007387842000000001,0.002520264,-0.0013687209999999998,-0.0018213988000000004,0.0001378216000000002,7.421,0,0
0.008278966,0.0052076,0.000245483,0.0011381132000000001,0.0027500296000000004,7.422,0,0
0.0062819239999999995,0.0025255160000000002,0.000843289,0.001808736,0.0022278876,7.423,0,0
0.0039752780000000005,0.0016944860000000007,0.0006857116000000001,0.0022508322,0.0022870462000000005,7.424,0,0
0.0023769360000000005,0.0014405760000000003,0.0013788316,0.0028016716,0.0021277070000000004,7.425,0,0
8.273600000000057e-05,-0.0015240779999999997,0.0016347652000000001,0.0014615356000000001,2.3968999999999987e-05,7.426,0,0
-0.002431122,-0.0038401840000000004,0.0006596712,-0.0007271384,-0.001787569,7.427,0,0
-0.003681548,-0.0021764320000000003,-0.00021472000000000006,-0.0008651124,-0.000988385,7.428,0,0
-0.003980546000000001,-0.0017390192000000004,-0.00047681560000000005,-0.0005521826000000001,-0.0008061996,7.429,0,0
-0.00407256,-0.0014730732000000004,-0.0022289416,-0.000655028,-0.0007784582,7.43,0,0
-0.0030881224,0.0031646188,-0.0031201811999999997,0.0018312660000000002,0.0025523598,7.431,0,0
-0.0025972104,0.0042892148,-0.0018187592000000002,0.0034713340000000004,0.0035786398,7.432,0,0
-0.0038983584000000003,0.0009881488000000002,-0.0018224258000000002,0.0019185639999999998,0.0010499217999999995,7.433,0,0
-0.0045768444,0.0008774059999999998,-0.0018962078000000003,0.0015554948000000004,0.00048170619999999995,7.434,0,0
-0.004619750400000001,0.0007319719999999999,-5.971780000000004e-05,0.0017922048000000002,0.00029879279999999993,7.435,0,0
-0.00497906,-0.0038294600000000002,0.0007985284000000001,-0.00023996720000000007,-0.0023162092,7.436,0,0
-0.004040656000000001,-0.004936490000000001,-0.0008374796000000001,-0.0013884872,-0.0027033492000000004,7.437,0,0
-0.0003106320000000008,0.0001352100000000002,-0.0011131038,0.0010273968000000001,0.0007321528000000002,7.438,0,0
0.00343559,0.0026001400000000004,-0.0002759578000000001,0.002577574,0.0018200928,7.439,0,0
0.00589861,0.0025595820000000003,-0.0003985338000000002,0.0018847380000000004,0.0010818980000000004,7.44,0,0
0.0077733360000000005,0.003515874,4.921999999999842e-06,0.0019714840000000003,0.0015820542000000003,7.441,0,0
0.007122882200000001,0.0012377540000000006,0.000972934,0.0017346940000000004,0.0007814622000000003,7.442,0,0
0.004339702200000001,-0.004448506,0.001152686,-0.00027950199999999983,-0.0016439958,7.443,0,0
0.0013738261999999997,-0.007448692,0.00047984000000000004,-0.00196369,-0.0025197918000000002,7.444,0,0
-0.0008512858000000003,-0.006696318000000001,0.00043649,-0.0015121239999999999,-0.0014365697999999998,7.445,0,0
-0.0030554498000000003,-0.0061676668,0.00061711,-0.00194017,-0.0022019780000000003,7.446,0,0
-0.0036577500000000004,-0.0011857268,-0.00018943599999999997,-0.002082994,-0.0016567050000000003,7.447,0,0
-0.0018974220000000006,0.0072655932,0.000263456,0.0002016800000000001,0.0016062709999999998,7.448,0,0
-0.0013407524000000003,0.0085877652,0.00174937,-1.5826000000000034e-05,0.0011028729999999997,7.449,0,0
-0.0019969784,0.006524543200000001,0.001016366,-0.0019406739999999999,-0.0008463690000000002,7.45,0,0
-0.0009509304,0.007304062000000001,0.0003136760000000002,-0.00176795,0.0003797989999999999,7.451,0,0
0.0008621736,0.004565050000000001,0.001269198,-0.001817646,0.00037630159999999977,7.452,0,0
0.0002754736000000002,-0.0028134580000000005,0.0004852920000000001,-0.0037586140000000004,-0.0024904524000000003,7.453,0,0
-5.1183999999999854e-05,-0.004607398,-0.001856184,-0.0034543644000000003,-0.0015316704,7.454,0,0
0.0014070084000000003,-0.0021537240000000005,-0.0015298916,-0.0005146923999999999,0.0017271036,7.455,0,0
0.0006234884000000002,-0.0036066160000000004,-0.0008691936000000001,0.0007308536,0.0015197055999999999,7.456,0,0
-0.0018938796,-0.004575902,-0.0019721616000000003,0.0010000926,0.0009736999999999998,7.457,0,0
-0.0028872636000000004,-0.0030623060000000003,-0.0014380416,0.0017741846,0.0015984339999999997,7.458,0,0
-0.0039509456,-0.004750472,-0.00019725580000000005,0.0017859490000000002,0.0004993619999999997,7.459,0,0
-0.006028518,-0.007736572000000001,-0.00039660620000000004,0.000290529,-0.0019305180000000002,7.46,0,0
-0.0055961988,-0.006033104,-0.0005491002,-0.00040144620000000014,-0.0020551820000000004,7.461,0,0
-0.003268528800000001,-0.0036581320000000006,0.0006905178000000001,5.868079999999992e-05,-0.00116032,7.462,0,0
-0.0027584968000000003,-0.004603852,0.0004530618000000001,-0.0008695652000000001,-0.002150172,7.463,0,0
-0.0023746048,-0.000779446,-0.000505346,-0.0002199972,-0.0006111620000000001,7.464,0,0
0.0006186452,0.005367614000000001,0.0008678019999999999,0.0021891228,0.00195899,7.465,0,0
0.003270788,0.005529916000000001,0.0015836359999999998,0.0018143180000000003,0.0001829379999999999,7.466,0,0
0.004043674000000001,0.00552564,0.0005974299999999998,0.0005904560000000002,-0.0012798780000000004,7.467,0,0
0.005505824,0.007571324000000001,0.00108597,0.0012979912,0.00015254199999999998,7.468,0,0
0.007193492,0.005437436,0.00245878,0.0009861724000000001,-0.0005527648000000001,7.469,0,0
0.006569996000000001,0.0011031740000000002,0.0013096315999999999,-0.0007203576,-0.0023018693000000003,7.47,0,0
0.00472707,0.0015775840000000001,-0.00014588639999999994,0.0006283324,0.0004167206999999999,7.471,0,0
0.003767884,0.0024385940000000005,0.0011055356000000001,0.0033181724000000004,0.0032907247,7.472,0,0
0.002901866,0.000831034,0.0016882936000000002,0.0036012212000000004,0.0027260653,7.473,0,0
0.0023744334,0.00151103,0.0007385516000000003,0.0031775640000000003,0.0024970201,7.474,0,0
0.0022639654,0.001729552,0.0010321666,0.0028903334000000007,0.0021711865999999996,7.475,0,0
0.0010766373999999998,-0.002062486,0.0012357406000000001,0.0011753154000000003,-0.00017132539999999987,7.476,0,0
-0.0008040025999999998,-0.004831500000000001,-0.0004473573999999999,-0.0011985186000000002,-0.0020376858,7.477,0,0
-0.0014556985999999998,-0.002479734,-0.0014238552000000002,-0.0018634673999999999,-0.0011759404,7.478,0,0
-0.001640374,-0.0010586280000000003,-0.0006330191999999999,-0.0021887694,-0.0008183212000000001,7.479,0,0
-0.003057006,-0.0004672980000000002,-0.0016557058,-0.0030492428,-0.0007027892000000001,7.48,0,0
-0.0026558218,0.0055080220000000004,-0.0022770538,-0.0016953428000000001,0.0024319868,7.481,0,0
-0.0013976818,0.008109104000000002,-0.0004412718000000001,-0.0005018488000000001,0.0033550332000000004,7.482,0,0
-0.0021819357999999997,0.0033457060000000004,-0.0004677161999999998,-0.002172926,0.0007869872000000001,7.483,0,0
-0.0018113041999999998,0.0009651940000000006,-0.0016402822,-0.00283056,0.0006331332,7.484,0,0
1.767780000000007e-05,-8.805399999999952e-05,-0.0010289622,-0.0023960400000000003,0.0011345412,7.485,0,0
-0.00014852639999999987,-0.005193408,-0.0008747561999999999,-0.003958176,-0.0012054508000000001,7.486,0,0
-0.000560133,-0.006806173600000001,-0.0026021361999999998,-0.0047806540000000005,-0.0018036266000000002,7.487,0,0
0.001868401,-0.0005521136000000001,-0.0025307174,-0.0017585620000000002,0.0012231794,7.488,0,0
0.0029517154000000003,0.0030723584,-0.0009755974000000001,0.00092494,0.0018899142,7.489,0,0
0.0013654914,0.0019364944000000003,-0.00029154539999999996,0.0012359062,0.00025478419999999994,7.49,0,0
0.0010735074000000002,0.0017635344000000005,0.0004222182,0.0018061902000000001,-0.00012521980000000004,7.491,0,0
0.001520506,0.0004928460000000008,0.0013186241999999999,0.0018122702000000004,-0.0009932660000000002,7.492,0,0
-3.6345999999997975e-06,-0.0035397479999999997,0.0013904845999999998,0.00012049220000000021,-0.0031730740000000006,7.493,0,0
-0.0014611626,-0.005164268,0.00032317860000000007,-0.0012829252000000001,-0.0037970254000000004,7.494,0,0
-0.0003977986000000001,-0.002062492,0.00015913860000000006,-0.0004609353999999999,-0.0018558714000000002,7.495,0,0
7.991299999999999e-05,-0.0010071760000000003,0.000650645,6.425460000000012e-05,-0.0013529634000000001,7.496,0,0
-0.0007470250000000001,0.00011367039800000005,-0.00011771699999999993,0.0005143226000000001,-0.0004377414000000002,7.497,0,0
-0.0007077704000000001,0.004166764398,0.00070005,0.0030961626000000006,0.0028659526000000004,7.498,0,0
-0.0016968044,0.001970652398,0.002540816,0.0037154180000000003,0.0027294932000000004,7.499,0,0
-0.0040594904,-0.0031720416020000006,0.0014713359999999997,0.001953504,0.0007085572000000001,7.5,0,0
-0.005463568,-0.0030067936020000004,0.0007878399999999996,0.0019929,0.0012093391999999999,7.501,0,0
-0.006192564,-0.0034004480000000004,0.002034762,0.002100914,0.0005058752000000001,7.502,0,0
-0.005441286,-0.005060502000000001,0.001028116,-0.00010220600000000014,-0.0027621548000000004,7.503,0,0
-0.002452535999999999,-0.00037372999999999964,-0.001314854,-0.0004900060000000001,-0.0024829670000000004,7.504,0,0
0.0006743580000000002,0.006392430000000001,-0.00054010414,0.0020547160000000003,0.000932829,7.505,0,0
0.0020972820000000002,0.006959828,0.0005830818600000001,0.0025675100000000003,0.0013045230000000001,7.506,0,0
0.0030351480000000005,0.0050742140000000005,-0.0001403141399999999,0.001662112,0.0006832090000000002,7.507,0,0
0.00382802,0.003143482000000001,0.00061880986,0.0016983614000000001,0.0014262130000000004,7.508,0,0
0.0034784360000000005,-0.001395562,0.00196664186,0.0006110894000000002,0.00028952600000000024,7.509,0,0
0.0028804120000000006,-0.0055763819999999995,0.001318144,-0.0017082246000000001,-0.0024567060000000003,7.51,0,0
0.003131722000000001,-0.004834653999999999,2.8571999999999983e-05,-0.0026101450000000003,-0.0027491320000000005,7.511,0,0
0.003696342,-0.0017555679999999995,0.0004347180000000001,-0.0018334648,-0.0014394680000000004,7.512,0,0
0.001817564,-0.0016876259999999994,-9.144583999999987e-05,-0.0022262562,-0.0017473480000000001,7.513,0,0
0.00030693540000000007,0.0016344840000000003,-0.0016281278400000002,-0.001379447,0.00020956399999999997,7.514,0,0
0.0009096394000000001,0.0060724640000000005,-0.00041169983999999997,0.0011023830000000002,0.0030346360000000003,7.515,0,0
-8.35826e-05,0.003193672,0.0007860581600000001,0.00038311940000000004,0.0015302319999999996,7.516,0,0
-0.0015021786,0.0007811399999999994,-0.00033402384000000003,-0.0010993268000000001,0.00010748599999999974,7.517,0,0
-0.0010893962,0.001849552,-0.000519155,-0.0008610588000000003,0.0006681475999999996,7.518,0,0
-0.0009538485999999999,-0.0007353560000000002,7.83510000000001e-05,-0.0019925180000000004,-0.0009608664000000005,7.519,0,0
-0.0023830846,-0.005043746,-0.001613027,-0.004227146,-0.0033096764000000002,7.52,0,0
-0.0024527246,-0.0025392279999999997,-0.0034839989999999998,-0.002883052,-0.0011137124000000001,7.521,0,0
-0.0013485248,0.0009202139999999999,-0.0026710116000000002,7.242799999999982e-05,0.0018493836,7.522,0,0
-0.0016945012,-0.000796314,-0.0021992626,0.0007087779999999998,0.0019146076,7.523,0,0
-0.0022194582,-0.0015582060000000003,-0.0025720706000000003,0.0013586240000000001,0.0022534496,7.524,0,0
-0.0011057962,-0.0008366440000000003,-0.0011810806,0.002262084,0.0025497742000000004,7.525,0,0
0.00047690579999999996,-0.0025479360000000006,8.616860000000003e-05,0.0013741900000000002,0.0008230221999999999,7.526,0,0
0.00125519,-0.003843904,-0.00039178680000000003,-0.000632344,-0.0012430318000000002,7.527,0,0
0.0026891679999999996,-0.000450504,-0.00044325680000000006,-0.000697184,-0.0006250554,7.528,0,0
0.003865818,0.001649854,0.0009998452,-5.9863799999999926e-05,-2.4263399999999955e-05,7.529,0,0
0.0026528339999999997,0.0013734220000000002,0.0003240811999999999,-0.0005405318,-0.0005362400000000001,7.53,0,0
0.0020008276,0.005424552,-0.0005864300000000002,0.0012540202,0.0017950280000000002,7.531,0,0
0.0015140616000000001,0.006854178000000001,0.000819874,0.0031038982,0.0032298500000000003,7.532,0,0
-0.0014004664,0.0016681379999999996,0.0006745799999999999,0.0015626222000000003,0.0010147000000000003,7.533,0,0
-0.0033855284,-0.00015242199999999971,-0.0001573898,0.000485876,0.0003456739999999998,7.534,0,0
-0.0032642024,0.0002912859999999992,0.0009759642,0.001046384,0.0005447459999999998,7.535,0,0
-0.003994340000000001,-0.004118490000000001,0.0020841882,-0.00048473820000000014,-0.0022089480000000005,7.536,0,0
-0.004099600400000001,-0.006286078999999999,0.0011290864,-0.0022477862,-0.003905020000000001,7.537,0,0
-0.0002011824000000004,-0.00021085899999999987,0.0012019774,4.682779999999999e-05,-0.001109542,7.538,0,0
0.0040955516,0.0040862170000000005,0.0025791992,0.0023394698,0.00085513,7.539,0,0
0.0051633156,0.003595225000000001,0.0025738732,0.0020098678,0.00030468400000000016,7.54,0,0
0.0046937816,0.0042218690000000005,0.0019551852,0.0021733020000000002,0.000757046,7.541,0,0
0.0037008500000000003,0.002853218000000001,0.0019329718000000002,0.0023525828,0.0008328000000000005,7.542,0,0
0.0011002819999999997,-0.002068536,0.0013590807999999998,0.0005805387999999996,-0.001186376,7.543,0,0
-0.0018775168000000001,-0.004236516,-0.0006077412,-0.0010987212,-0.0021768740000000005,7.544,0,0
-0.0015881888000000002,-0.0014366119999999994,-0.0013417132,-0.0006805532000000002,-0.0001257900000000002,7.545,0,0
0.00014195519999999978,-0.00024281999999999993,-0.0009510476000000001,-0.0010704752,0.0003621385999999999,7.546,0,0
0.0007905371999999999,0.00173529,-0.0018560523999999999,-0.001607218,0.00039372859999999986,7.547,0,0
0.0016571112,0.006603004000000001,-0.0014059174,0.00016604399999999996,0.0028160406000000003,7.548,0,0
0.0010709639999999998,0.004950766,0.0005095506000000001,0.00035587399999999995,0.0018258546000000004,7.549,0,0
-0.001496818,-0.0004965939999999995,-5.985399999999938e-06,-0.0016980900000000002,-0.0013865793999999997,7.55,0,0
-0.00263876,-0.0014035319999999994,-0.000619309,-0.001959384,-0.0014566959999999997,7.551,0,0
-0.0024860636000000004,-0.0024207079999999993,0.00045608500000000017,-0.0020992980000000003,-0.0014172259999999997,7.552,0,0
-0.0030416516000000005,-0.0068893240000000005,0.00016801200000000004,-0.0042600599999999995,-0.003791238,7.553,0,0
-0.0026932464000000004,-0.0066712180000000005,-0.001543414,-0.004340376,-0.003236909,7.554,0,0
-0.0010248216,-0.0019932540000000007,-0.0009631666000000001,-0.0016664440000000002,0.000575931,7.555,0,0
-0.0006329424000000001,-0.0014907558000000001,0.0003471094000000002,-0.0005907020000000003,0.0015160109999999998,7.556,0,0
-0.0014025448000000002,-0.0029733438,6.0173000000000144e-05,-0.0007216960000000002,0.0007863989999999999,7.557,0,0
-0.0016122588000000001,-0.0025087018,0.0005482490000000002,-0.000196228,0.0008775809999999998,7.558,0,0
-0.0012340476,-0.0033475758,0.0014840150000000002,-0.000644514,-0.0002792720000000002,7.559,0,0
-0.0002373624,-0.0048548058000000005,0.0009980236000000002,-0.002124688,-0.0026285,7.56,0,0
0.0009913744,-0.002715226,-0.0004086944,-0.0023214800000000003,-0.0026134040000000006,7.561,0,0
0.0016999582000000002,0.001031178,-0.000646656,-0.0007983459999999999,-0.0006564920000000002,7.562,0,0
0.0014832222,0.00264191,-0.0015197600000000002,-0.0003294053999999999,-0.0002145913999999998,7.563,0,0
0.0017556078,0.007461516,-0.0029529060000000004,0.0007414466,0.0021287906000000004,7.564,0,0
0.0023989618,0.012938882,-0.0015933660000000006,0.0033254846000000003,0.0050779446,7.565,0,0
0.0010163698,0.010450136,-2.6822000000000347e-05,0.0028137906000000002,0.0033478226000000005,7.566,0,0
-0.0002688179999999999,0.007269124,-0.00044061800000000015,0.0009275185999999998,0.0012218606000000002,7.567,0,0
2.9294000000000076e-05,0.006791836200000002,0.00022061119999999994,0.0011320306,0.0011493800000000004,7.568,0,0
-7.577399999999997e-05,0.0017746602,0.0017935712,0.00029606259999999986,-0.0007639319999999996,7.569,0,0
-0.000445628,-0.0048252678,0.0008404511999999999,-0.0021043754000000005,-0.003732066,7.57,0,0
0.00086933,-0.0041115758,-0.0005783668000000001,-0.0007499634000000005,-0.0021270760000000003,7.571,0,0
0.0029523960000000004,-0.0011367818000000002,0.0006748492,0.0027510546,0.0011922260000000002,7.572,0,0
0.0035244036000000004,-0.0019508879999999996,0.001557266,0.003474782,0.0012464882,7.573,0,0
0.0021029856,-0.002767452,0.00079493,0.0036182880000000003,0.0008879282000000001,7.574,0,0
-0.0010250083999999997,-0.004441324,0.00109804,0.004108346000000001,0.0013008064000000002,7.575,0,0
-0.0039884303999999995,-0.00832283,0.0015392399999999999,0.0024626120000000003,-2.8111599999999922e-05,7.576,0,0
-0.0055750344,-0.010715052,8.292999999999994e-05,-0.00025272399999999996,-0.0022286985999999996,7.577,0,0
-0.004786362,-0.008006736000000002,-0.001168716,-0.000671434,-0.0014868148000000002,7.578,0,0
-0.00204714,-0.004342978,-0.0003868439999999999,-4.3598e-05,-0.0004415212000000002,7.579,0,0
-0.00034444540000000016,-0.002556992,-0.0007890313999999999,-0.0008071620000000002,-0.0008903354,7.58,0,0
0.0009509666,0.002727670000000001,-0.0014171954000000001,0.0003953440000000001,0.0013454226000000002,7.581,0,0
0.0014463165999999998,0.005705346,0.0006266406000000001,0.00219861,0.0027397276,7.582,0,0
-0.0010668914,0.0012107460000000004,0.0014062206000000001,0.00046719600000000023,0.0006468036000000003,7.583,0,0
-0.0033087033999999998,-0.0009303819999999998,-5.9981399999999886e-05,-0.00110723,0.00011564800000000031,7.584,0,0
-0.0023940280000000003,0.0011885160000000001,-8.179600000000046e-06,-0.0008748820000000001,0.0005321372000000003,7.585,0,0
-0.0002927960000000001,0.00031901400000000006,0.0003727124000000001,-0.002588122,-0.0019116448,7.586,0,0
0.001672874,-0.000389658,-0.0013267456,-0.00460972,-0.0035142308000000004,7.587,0,0
0.003912396,0.0043314420000000005,-0.00189907,-0.0025301739999999996,-0.0007597907999999998,7.588,0,0
0.004733228,0.006797484000000001,-0.000502726,2.8556000000000328e-05,0.0008500412,7.589,0,0
0.0033584659999999996,0.004831082000000001,-0.00015229839999999996,0.0003186152,0.00018240200000000002,7.59,0,0
0.0016915378,0.003443344000000001,6.545760000000001e-05,0.0010675912000000002,0.0006400500000000002,7.591,0,0
