bandpass 1,bandpass 2,bandpass 3,bandpass 4,bandpass 5,time,onset,mark
0.00010397959999999996,-0.0017565840000000003,-0.0015647052,0.0007476279999999999,0.004778200000000001,3.608,0,0
0.0009056676000000001,-0.002497776,-0.0019166691999999998,0.0022588779999999998,0.00691046,3.609,0,0
0.0015053115999999998,-0.004083008,-0.0033584472,0.0023913003999999996,0.0069160475,3.61,0,0
0.002655198,-0.0033715660000000003,-0.003628656,0.0040486944,0.0087274875,3.611,0,0
0.0032027040000000002,-0.0035083000000000002,-0.002141382,0.0044416744,0.007306162500000001,3.612,0,0
0.0029624300000000003,-0.0045042780000000004,-0.0013521408,0.0024441643999999997,0.0030383705000000005,3.613,0,0
0.002656424,-0.0017124660000000002,-0.0006807948,0.0010276246000000002,0.0014713585,3.614,0,0
0.002258592,0.0013674939999999997,0.0018798532,0.0012731502,0.0014424461999999999,3.615,0,0
0.0003768399999999999,0.0018834894,0.0030515972,-0.00024380179999999993,-0.0022742637999999997,3.616,0,0
-0.0003697380000000001,0.006306007400000001,0.0019609291999999998,-0.0013393158,-0.0022022402,3.617,0,0
-0.0009947140000000003,0.008549903400000001,0.003368762,-7.967980000000009e-05,-6.706019999999971e-05,3.618,0,0
-0.004280796,0.002096303400000001,0.004746918,-0.00143256,-0.0048884482,3.619,0,0
-0.006590688000000001,-0.0024917046,0.0034684538,-0.004014368,-0.0080964234,3.62,0,0
-0.006071948000000001,-0.002925594,0.0033238338000000003,-0.003997957999999999,-0.0057534564,3.621,0,0
-0.006045632,-0.006245478,0.0039927718,-0.00392924,-0.006003849,3.622,0,0
-0.005972072,-0.00704977,0.0017930898,-0.005182674,-0.006938907,3.623,0,0
-0.002158214,0.0008404699999999994,-0.0012867462000000001,-0.0032012879999999996,0.0005819530000000001,3.624,0,0
0.0025768460000000003,0.00771777,-0.0015440900000000001,0.0009501239999999999,0.008552773000000001,3.625,0,0
0.005047778,0.008570620000000001,-0.00169972,0.002592784,0.009894866,3.626,0,0
0.007256088,0.0089120176,-0.00257747,0.00389184,0.011232044000000002,3.627,0,0
0.00967863,0.0073135996,-0.0018220596000000002,0.005793294,0.012127768000000002,3.628,0,0
0.009468204,0.0012693395999999993,-0.0004926346000000001,0.005871032000000001,0.008643264000000001,3.629,0,0
0.0068063654,-0.0034203284000000004,-0.0007286866000000001,0.004282882,0.003899184000000001,3.63,0,0
0.0042054734,-0.0034311484000000003,-0.0018550906,0.003964636,0.0029848920000000007,3.631,0,0
0.0011174893999999999,-0.0039720680000000005,-0.0011694144,0.0035508080000000003,0.001075422,3.632,0,0
-0.0027418026,-0.0046470520000000005,-0.0015250128000000001,0.0007826500000000002,-0.003221372,3.633,0,0
-0.0036927592,0.00012050799999999964,-0.0024810118000000003,0.00019510800000000023,-0.0023414100000000004,3.634,0,0
-0.0029967046,0.00296744,-0.0001304418000000003,0.0006530160000000002,-0.0029635780000000006,3.635,0,0
-0.0038772325999999998,-0.0002650220000000006,0.0016706421999999998,-0.0022983739999999997,-0.009150946,3.636,0,0
-0.0040592366,-0.0004012640000000008,0.0009448979999999998,-0.004853536,-0.010728030000000001,3.637,0,0
-0.0036368106,0.00218859,0.0015210199999999999,-0.004823538,-0.009180402,3.638,0,0
-0.004499456000000001,0.00023106799999999996,0.0026289302,-0.006099086,-0.011097828000000002,3.639,0,0
-0.006305922,-0.0031203140000000003,0.00017900019999999997,-0.007361884,-0.010099354000000001,3.64,0,0
-0.006546166000000001,-0.001755372,-0.0022769878,-0.0038031659999999998,-0.0013197739999999997,3.641,0,0
-0.0052303720000000005,-0.0015798780000000003,-0.0021766198,0.0006957740000000001,0.004701406,3.642,0,0
-0.003808428,-0.004469824,-0.0027860638000000004,0.002686906,0.0059227774,3.643,0,0
-0.0014020280000000007,-0.005116238,-0.0032635500000000005,0.0044420480000000005,0.008140571400000001,3.644,0,0
0.003496142,-0.003412188,-0.0021889480000000005,0.0056685880000000004,0.0080146314,3.645,0,0
0.008503286,-0.0018660920000000002,-0.0011902759999999999,0.004384188799999999,0.004086363400000001,3.646,0,0
0.010053404,-0.0005175700000000003,-0.0012078240000000001,0.0021991445000000003,0.0009618814000000001,3.647,0,0
0.01016416,0.0023744000000000005,-0.0009309108,0.0017773985,0.001298754,3.648,0,0
0.007596678,0.0015828740000000004,2.114119999999998e-05,0.0006834705,-0.001300442,3.649,0,0
0.0020109940000000003,-0.0001301659999999997,-8.712799999999968e-06,-0.0011136335,-0.0030878980000000004,3.65,0,0
-0.0013474366,0.0023981160000000005,0.0016940212,-0.0003951263,0.0005313900000000001,3.651,0,0
-0.0032371886000000004,0.0015693088000000004,0.0050547692,-0.0001741699999999998,-0.0009887960000000003,3.652,0,0
-0.0049688106,-0.00044849119999999993,0.0050691880000000005,-0.0021838839999999997,-0.0056208280000000005,3.653,0,0
-0.0035464286000000005,0.004010150800000001,0.00340863,-0.00255798,-0.004439096,3.654,0,0
-0.0020174486000000004,0.0069496208,0.002644994,-0.00184744,-0.003386486,3.655,0,0
-0.003003184,0.0033422647999999996,-8.259200000000004e-05,-0.003060246,-0.006372544399999999,3.656,0,0
-0.00163947,0.0024108120000000005,-0.004672456,-0.0033906438000000003,-0.0035475883999999992,3.657,0,0
0.001898458,0.0030115520000000002,-0.005599522,-0.00040935579999999976,0.0043973116,3.658,0,0
0.002688208,-0.00160518,-0.004583296400000001,0.0016202162000000003,0.006651549600000001,3.659,0,0
0.0023793980000000005,-0.005278682,-0.0047940524,0.0018609828000000002,0.0060054436,3.66,0,0
0.0029137119999999997,-0.005076237999999999,-0.0031254404000000003,0.0027633508000000006,0.006048269400000001,3.661,0,0
0.0015044119999999997,-0.006073266,-0.00012764640000000006,0.002667877400000001,0.0032011434,3.662,0,0
-0.001255468,-0.0073546819999999995,0.0016657796000000002,0.00037150940000000004,-0.0015132046,3.663,0,0
-0.0024440000000000004,-0.004994674,0.002679336,-0.0014379585999999998,-0.0031258759999999997,3.664,0,0
-0.0025072260000000004,-0.0023971520000000005,0.00440152,-0.001446555,-0.0019146277999999995,3.665,0,0
-0.004096776000000001,-0.00387362,0.004635698,-0.0025774330000000005,-0.0037507011999999996,3.666,0,0
-0.004704216000000001,-0.0021784452000000003,0.00270177,-0.0027937777999999997,-0.0024870676,3.667,0,0
-0.002633492000000001,0.0021827128,0.0023508000000000005,-0.0006325117999999999,0.0016352004000000002,3.668,0,0
-0.0017684380000000006,0.0006440367999999999,0.002789502,-0.0005310598,-0.0005165721999999999,3.669,0,0
-0.0015737820000000006,-0.0006345851999999999,0.0015675072000000002,-0.0016923220000000002,-0.0021365044,3.67,0,0
6.41979999999998e-05,0.0024566748,0.0011606526,-0.0007667466000000001,0.0006732435999999997,3.671,0,0
0.0012802377999999999,0.003076048,0.0020411494,-0.00014843260000000011,0.00036397599999999985,3.672,0,0
0.0006313018000000001,0.001123284,0.0008150814000000002,-0.0014156424000000003,-0.0027305732000000005,3.673,0,0
0.0011737618,0.00282276,-0.0012340486,-0.00048060240000000025,0.0007673407999999999,3.674,0,0
0.0039611858,0.00491782,-0.0011496127999999998,0.0024078096,0.0055377908,3.675,0,0
0.005196437800000001,0.003005458,-0.0013166127999999998,0.0028102302000000004,0.0044644692000000005,3.676,0,0
0.004321488000000001,0.0006204959999999999,-0.0022210816,0.0020704522,0.0030185392000000007,3.677,0,0
0.0031072420000000005,-0.0015127500000000002,-0.00155539384,0.0024242160000000007,0.0022489744,3.678,0,0
0.0008998079999999998,-0.0041401020000000005,-0.00073068064,0.001572218,-0.0010933916000000002,3.679,0,0
-0.0024678140000000005,-0.0047350940000000005,-0.00088871564,-0.000660874,-0.0052368936000000005,3.68,0,0
-0.004283408000000001,-0.0021058120000000003,-0.0007861922400000001,-0.0012304199999999999,-0.004669824,3.681,0,0
-0.00388006,0.0005134660000000004,0.0006066917600000001,-0.0008317582000000001,-0.0034545440000000004,3.682,0,0
-0.003128752,0.0017557036000000002,0.0005965402840000001,-0.0020403562,-0.00414352,3.683,0,0
-0.0012659079999999996,0.0046888296000000005,-0.000534160916,-0.0015519186000000002,0.000118796,3.684,0,0
0.0005678880000000003,0.006630201600000001,0.0004365310840000002,0.00036549939999999995,0.003660478,3.685,0,0
0.00091801,0.005754479600000001,0.0006550962840000001,2.7051400000000078e-05,0.0013302639999999998,3.686,0,0
0.0017608700000000003,0.0067868996,-0.000721193716,0.000221446,0.0018854039999999998,3.687,0,0
0.0022433720000000004,0.008078294,-0.0005751718,0.0017226540000000001,0.0043312739999999995,3.688,0,0
0.000809236,0.0055292399999999995,0.00030994480000000004,0.0011434064000000002,0.0011342739999999998,3.689,0,0
-0.0003454100000000001,0.0023583479999999993,-0.00041092320000000006,-0.000191684,-0.0014146766000000003,3.69,0,0
0.0005720179999999999,0.002893254,-0.00040853520000000014,0.0015008660000000002,0.0031445674,3.691,0,0
0.001055878,0.0012263877999999998,0.0009330408,0.0030690856000000002,0.0055232294,3.692,0,0
0.000845572,-0.004061414200000001,0.0002630646,0.00252591216,0.003137077400000001,3.693,0,0
0.0019839360000000004,-0.006582170200000001,-0.0007586460000000001,0.00233406816,0.0023582254000000004,3.694,0,0
0.002623088,-0.0086027182,-0.000803517,0.0019095765600000004,0.0009735059999999999,3.695,0,0
0.0015927980000000003,-0.0116854462,-0.0015890890000000001,-0.0003705274399999998,-0.0036442740000000003,3.696,0,0
0.0004031080000000002,-0.011464479999999999,-0.0026690270000000005,-0.0028981674399999996,-0.006932412000000001,3.697,0,0
-9.517799999999983e-05,-0.006551769999999999,-0.0022498684,-0.003136052,-0.005249804000000001,3.698,0,0
-0.001420964,-0.00339765,-0.0008121503999999999,-0.002929872,-0.004713678000000001,3.699,0,0
-0.003428112,-0.0009442586000000003,-0.0014966174000000001,-0.00303318,-0.004187850000000001,3.7,0,0
-0.0033009320000000003,0.0033597054000000003,-0.0015866054000000002,-0.0008763679999999998,0.0012849100000000002,3.701,0,0
-0.003291732,0.0019879134,0.0004025386,0.0010792920000000001,0.0031028780000000008,3.702,0,0
-0.0049121320000000005,-0.0010980566,0.0004430774,0.000638854,0.000783878,3.703,0,0
-0.004051297000000001,0.0009415234,-0.00035275860000000004,0.0014283860000000002,0.0024380780000000006,3.704,0,0
-0.0006817230000000002,0.0021450880000000003,0.0008874474000000001,0.0024815460000000007,0.003403712,3.705,0,0
0.001619567,0.00043892200000000034,0.0015300280000000001,0.000988318,-0.00048492199999999994,3.706,0,0
0.003711365,0.0034106380000000006,-0.00019927799999999994,3.114540000000003e-05,-0.00047786599999999975,3.707,0,0
0.007133469,0.008802538,3.6939600000000035e-05,0.0019100434,0.004617618,3.708,0,0
0.007994053999999999,0.008508574000000001,0.0015072396000000003,0.0030707814,0.005221548,3.709,0,0
0.005444966000000001,0.00547587,0.0013856556000000002,0.0025176548000000005,0.0028695960000000007,3.71,0,0
0.002610424,0.0024493360000000003,0.0015837610000000002,0.0024063428000000004,0.002116574,3.711,0,0
-5.683000000000012e-05,-0.0021427320000000005,0.002267383,0.0014469314000000004,-0.0006111539999999996,3.712,0,0
-0.0028393159999999997,-0.006987110000000001,0.0019476300000000003,-0.0011046046000000001,-0.005422546,3.713,0,0
-0.003627102,-0.007724274,0.0008984686,-0.0031865926000000004,-0.0068029674,3.714,0,0
-0.0021878220000000003,-0.004773978,0.0012627825999999998,-0.0033005968,-0.004292395400000001,3.715,0,0
-0.00206116,-0.00325856,0.0013124746,-0.0039312068,-0.0043032294000000006,3.716,0,0
-0.001477536,0.0006215420000000001,-0.0005833034000000002,-0.0037431148000000003,-0.0021314614000000004,3.717,0,0
0.0004258320000000002,0.005793300000000001,-0.0006741394000000003,-0.0007857188,0.0032217306,3.718,0,0
-0.0007634779999999999,0.004311176000000001,0.0003742639999999999,-9.739560000000037e-05,0.0026494920000000003,3.719,0,0
-0.003103712,0.0015771300000000004,-0.00044142820000000023,-0.0013592068,0.0010138580000000003,3.72,0,0
-0.0025083080000000003,0.0030776379999999997,-0.0004962122000000004,-0.00032169272000000026,0.0031064840000000005,3.721,0,0
-0.001924408,0.0023540400000000004,0.0013698258000000001,0.00030654247999999996,0.0022156740000000004,3.722,0,0
-0.0027433896,-0.001009798,0.0012727618000000001,-0.00136665612,-0.002116384,3.723,0,0
-0.0014496036,0.00052265,-0.0007030962000000001,-0.0008595053199999999,-0.0004580359999999999,3.724,0,0
0.0012482524000000002,0.004055294000000001,-0.0013073520000000001,0.00208195068,0.0039010860000000002,3.725,0,0
0.0014688368000000001,0.003735874,-0.00213799,0.0032244766,0.0029753704000000003,3.726,0,0
0.00016461480000000005,0.0014615019999999997,-0.0034849120000000006,0.0028414574000000005,0.0012002344000000002,3.727,1,1
0.00042131640000000006,-0.0005898720000000002,-0.0033100876000000004,0.002451318,0.0005867523999999998,3.728,0,0
0.0005480184000000001,-0.003475448,-0.0024072126000000004,0.001377386,-0.0023005956,3.729,0,0
-0.0002591271999999999,-0.006503452000000001,-0.0021441346,-0.000802096,-0.0059653856,3.73,0,0
0.0006117084000000002,-0.006079856000000001,-0.0015822160000000002,-0.002392064,-0.0048108840000000005,3.731,0,0
0.0019109104000000002,-0.0035054220000000007,0.000589022,-0.0022019279999999997,-0.00237964,3.732,0,0
0.00037755440000000013,-0.0020152040000000005,0.0011681656,-0.002387054,-0.0023213640000000002,3.733,0,0
-0.0005447956,0.001967384,0.00041959859999999996,-0.001302792,0.0020425720000000003,3.734,0,0
0.001010816,0.006461702000000001,0.0015818186000000002,0.001319856,0.005690662000000001,3.735,0,0
0.0009043020000000001,0.005191572,0.0017197524,0.0015479616,0.002601972,3.736,0,0
0.000259774,0.0020910060000000003,-0.00030908559999999995,0.0011411116000000002,0.0013957739999999998,3.737,0,0
0.0013874248,0.0005671319999999997,-0.0005270036,0.0020143896000000003,0.002640199,3.738,0,0
0.0015635128,-0.00283861,0.0007949924,0.0010449116000000001,-0.0009357410000000001,3.739,0,0
-0.0004277812,-0.007094798,0.00037431840000000003,-0.0013569304,-0.004622235000000001,3.74,0,0
-0.0007139932000000001,-0.005297423999999999,0.00043168040000000007,-0.000455578,-0.000895907,3.741,0,0
0.0014121268,-0.0005219039999999988,0.0024333724,0.0014406280000000002,0.0024778070000000003,3.742,0,0
0.0023791339999999998,0.0009695500000000007,0.0030942764,0.0009101860000000001,0.0012013020000000002,3.743,0,0
0.002345496,0.0015857520000000006,0.0021541724,0.0004966019999999999,0.0012398520000000007,3.744,0,0
0.0025955340000000005,0.0019153500000000003,0.0017277609999999998,0.000498542,0.0014897520000000004,3.745,0,0
0.0014887500000000003,-0.0009725659999999998,0.0008307685999999998,-0.001363374,-0.0016618840000000002,3.746,0,0
-0.001351222,-0.004651102000000001,-0.0015354834,-0.003503438,-0.004267918200000001,3.747,0,0
-0.0025932940000000003,-0.004103928000000001,-0.0027373874,-0.003038272,-0.0022254162000000005,3.748,0,0
-0.0024579368,-0.0031794072,-0.0018219493999999995,-0.0023445425999999996,-0.0015724142000000001,3.749,0,0
-0.0030753527999999994,-0.0022473111999999997,-0.0021250440000000004,-0.0024361526,-0.0016843342,3.75,0,0
-0.0016565208,0.0028311787999999996,-0.0013601341999999999,-0.00014440459999999987,0.0033613218000000007,3.751,0,0
0.00019072520000000006,0.0059649048,0.0020830058,0.0020478714000000003,0.005087718000000001,3.752,0,0
-0.0003139527999999999,0.0047620308,0.002320859,0.0012641034,0.0019232800000000007,3.753,0,0
-0.00034241399999999987,0.004894941999999999,0.0005498289999999999,0.0012620092000000002,0.0025613700000000003,3.754,0,0
0.00036845800000000006,0.004616776,0.0011526670000000002,0.0021244572000000002,0.002946436800000001,3.755,0,0
-0.0005720119999999999,0.00029655200000000017,0.0011324867,0.0006577752,-0.0018570972,3.756,0,0
-0.0012574787999999999,-0.0015465759999999998,-0.0013932813000000002,-0.0006131094000000001,-0.0032443959999999997,3.757,0,0
0.0007763992000000001,0.0008760940000000002,-0.0012434125000000001,0.0013474286000000001,0.0014808439999999998,3.758,0,0
0.0019483852,0.00020640200000000006,0.0010582095000000002,0.0027443453999999997,0.0023814179999999997,3.759,0,0
0.0015957732000000003,-0.0021356780000000002,0.0012067315000000003,0.0018210694,0.0006891032,3.76,0,0
0.0018013956000000001,-0.0018238920000000004,0.0011815080000000004,0.0016159833999999998,0.0008734592000000004,3.761,0,0
0.0015926086000000003,-0.0022584160000000005,0.0016326560000000006,0.0010593299999999998,-0.0009225940000000002,3.762,0,0
-0.0003765754,-0.004227588000000001,0.0009089520000000002,-0.0014099480000000003,-0.004736328,3.763,0,0
-0.0018749374000000003,-0.002607592000000001,-0.000711696,-0.0031474500000000004,-0.005879051200000001,3.764,0,0
-0.0014988514,0.000661094,-0.0008422540000000001,-0.0023907808,-0.0036427272000000006,3.765,0,0
-0.0026547778,-0.0008715260000000003,-0.00045016400000000013,-0.0022212448,-0.0037422872,3.766,0,0
-0.0034240079999999997,-0.0008203120000000002,-0.0018746740000000002,-0.0019037108000000001,-0.0015452272,3.767,0,0
-0.0009597779999999997,0.003971044,-0.0017477780000000002,0.0008746372,0.0043887068,3.768,0,0
0.0005595400000000005,0.00378162,0.00012611799999999993,0.0018146752,0.0043566735999999995,3.769,0,0
-0.0004809100000000002,0.0012586059999999998,1.499700000000006e-05,0.0009055920000000002,0.0020787016,3.77,0,0
-8.027000000000002e-05,0.0035542840000000004,-0.0002553591999999999,0.0016349379999999998,0.0037056915999999994,3.771,0,0
8.243200000000023e-05,0.003327364,0.0016010388000000002,0.0018937722,0.0027282595999999996,3.772,0,0
-0.0023634560000000003,-0.0018415780000000004,0.0022314734000000004,8.910659999999989e-05,-0.0023086344,3.773,0,0
-0.0031926660000000003,-0.0019419420000000008,0.0001838454,-0.0002401574000000001,-0.001423718,3.774,0,0
-0.0011136680000000002,0.001559674,-0.0008566796,0.0016059126000000001,0.0029847320000000004,3.775,0,0
0.001224412,0.0014211159999999998,-0.0016831174000000002,0.0019110426000000002,0.0021364780000000007,3.776,0,0
0.003307514,0.0004197599999999999,-0.0038523454,0.0011402384000000004,-2.2799999999999036e-06,3.777,0,0
0.004472772,-0.0004921960000000003,-0.005010744,0.0009143420000000001,-0.000502366,3.778,0,0
0.0036361659999999997,-0.0031255120000000004,-0.004988322,1.0314000000000091e-05,-0.0030977300000000004,3.779,0,0
0.002356686,-0.005599968,-0.004867538,-0.001897992,-0.006558034000000001,3.78,0,0
0.0008391881999999999,-0.005174698,-0.0042455252,-0.002855542,-0.005512814,3.781,0,0
-0.0006924318000000001,-0.00322709,-0.0019141452,-0.002139224,-0.0027560782000000004,3.782,0,0
-0.0019145438000000002,-0.002183376,-0.0002930391999999999,-0.0023828160000000003,-0.0028131922000000005,3.783,0,0
-0.0017000258,0.001229374,0.00026346080000000014,-0.0015840894,0.0006510337999999999,3.784,0,0
-0.0002964738000000003,0.004941522,0.0028713388000000005,0.0008970505999999998,0.0043166978,3.785,0,0
0.00013231199999999977,0.004597100000000001,0.00509623,0.0009238025999999998,0.0014876398,3.786,0,0
0.0009322079999999997,0.005498212,0.004992890000000001,0.00020894059999999979,0.0005277080000000002,3.787,0,0
0.0026256179999999997,0.008137356,0.005630348,0.0011250085999999996,0.00225537,3.788,0,0
0.0030572108000000006,0.005921912,0.006623446000000001,0.0007213979999999996,-0.0001913459999999999,3.789,0,0
0.0014634068,0.002179142,0.004443424,-0.0015842780000000002,-0.0029379408000000003,3.79,0,0
0.0010302617999999998,0.0024808320000000005,0.001647136,-0.001016398,0.0011500191999999998,3.791,0,0
0.0012232118000000001,0.0003517039999999999,0.001365028,0.0011142980000000001,0.0045325152,3.792,0,0
-0.00024358819999999995,-0.005239736,0.00048550399999999994,0.001125712,0.0031344392,3.793,0,0
-0.001042639,-0.007245262000000001,-0.0008435980000000001,0.0010772160000000002,0.0029825732,3.794,0,0
-0.0009276110000000001,-0.007868408,-0.000241584,0.0016683980000000002,0.002244056,3.795,0,0
-0.001916274,-0.010101438,0.00019583599999999999,0.0008854200000000003,-0.0010303719999999999,3.796,0,0
-0.0034559820000000002,-0.009610284,-0.000764356,-0.001157964,-0.0036713446,3.797,0,0
-0.0030952720000000005,-0.004822091999999999,-0.0011725009999999998,-0.001892882,-0.0021259106,3.798,0,0
-0.0021793092000000004,-0.0015434100000000003,-0.000274149,-0.00207311,-0.0015753026000000002,3.799,0,0
-0.0021067492000000003,-0.0002479647999999999,-0.001335951,-0.0032659160000000002,-0.0017530846,3.8,0,0
-0.00017998920000000004,0.0049174252000000005,-0.0022265030000000003,-0.002312024,0.0023945234,3.801,0,0
0.0016048608000000001,0.0071317832,-0.000777535,-0.0001489900000000001,0.0034970419999999997,3.802,0,0
0.0011667068,0.0044752792,-0.0008172295999999998,-0.00030025599999999994,0.000329916,3.803,0,0
0.0008115100000000001,0.004361317200000001,-0.0017727336,-0.000433778,-7.118200000000036e-05,3.804,0,0
0.0008672008000000001,0.0034272820000000002,-0.0008860722,0.0005998565999999998,0.0008849832000000002,3.805,0,0
6.6811999999999455e-06,-0.0012003120000000003,0.0005376438,-0.0004944554000000001,-0.0033064928000000006,3.806,0,0
-0.0008279046,-0.004193844,-0.0006486322,-0.0024446113999999994,-0.0036039928000000006,3.807,0,0
0.0006126994,-0.0014640900000000001,-0.0001677186,-0.0006849014,0.0007510991999999997,3.808,0,0
0.0016377194,-0.0019287184000000002,0.0012654574,0.0016968506000000002,0.0010745612,3.809,0,0
0.0017548782,-0.0018241084,0.0006040700000000001,0.002778978,0.00278238,3.81,0,0
0.0006142077999999999,0.0046019456,0.0015127880000000002,0.00341044534,0.002678174000000001,3.811,0,0
-0.0036517944,0.0067431796,0.002707436,0.0012124373400000002,-0.004107912,3.812,0,0
-0.0079233844,0.0045125996,0.0014830260000000001,-0.0032296986600000004,-0.010037904,3.813,0,0
-0.008805956,0.0062833279999999995,-0.00017902999999999984,-0.005980890660000001,-0.008477530000000002,3.814,0,0
-0.006547309600000001,0.008633646,-0.0001217919999999998,-0.005919600660000001,-0.00561482,3.815,0,0
-0.0021490176,0.004924208,-0.0017027680000000001,-0.0036157980000000004,0.0008756019999999988,3.816,0,0
0.0050365624,0.0026610819999999995,-0.0021632319999999997,0.0017762220000000005,0.010689522,3.817,0,0
0.009408024400000001,-0.003040140000000001,-0.0005563220000000003,0.0050233432399999995,0.010931741999999998,3.818,0,0
0.008833558000000002,-0.011450080000000001,-0.0017609219999999998,0.00409693524,0.006197919999999999,3.819,0,0
0.007633194,-0.013700286000000002,-0.00329225,0.00383507724,0.004968940000000001,3.82,0,0
0.006209154000000001,-0.015735558000000004,-0.0028204266,0.0040168372400000004,0.0038318799999999993,3.821,0,0
0.0038682500000000006,-0.016520710000000004,-0.0023860786,0.0030670372400000007,0.0003625959999999985,3.822,0,0
0.0016415140000000006,-0.010769112,-0.0025484526000000003,0.0029701564000000004,0.000838096,3.823,0,0
0.00022961800000000044,-0.002031612,-0.00016871859999999998,0.0041216504,0.0019610759999999995,3.824,0,0
-0.0026089819999999997,0.0034733120000000005,0.0018251342000000002,0.0028974204,-0.0027818680000000003,3.825,0,0
-0.005813932,0.010820042000000002,0.0006468848000000002,0.00018756840000000007,-0.006165622000000001,3.826,0,0
-0.007103506,0.019337978000000002,0.0002451548,-0.0008688096,-0.0048179,3.827,0,0
-0.007151562,0.021118080000000004,0.0013215008,-0.001692092,-0.00454618,3.828,0,0
-0.0070855020000000005,0.016950380000000004,0.0015198508,-0.003989134,-0.007044120000000001,3.829,0,0
-0.005748972000000001,0.011440922000000001,0.0014910529999999998,-0.006064772,-0.007370068000000001,3.83,0,0
-0.0018791620000000002,0.004578314400000001,0.0031011530000000006,-0.006163002000000001,-0.005115934000000001,3.831,0,0
0.0016351559999999996,-0.0033180956000000003,0.002938001,-0.0059260860000000005,-0.0028590520000000017,3.832,0,0
0.005323126,-0.0051511756,0.000945205,-0.0030950060000000004,0.004715167999999999,3.833,0,0
0.009546846000000001,-0.0068606356000000005,0.001975849,0.002228214,0.012073147999999999,3.834,0,0
0.009757426000000001,-0.0160774376,0.0033064140000000006,0.0039377119999999995,0.0093496,3.835,0,0
0.006777758000000001,-0.02265903,0.0013997980000000003,0.0031298759999999998,0.0050858,3.836,0,0
0.005299808000000001,-0.021335918600000003,0.0001584700000000004,0.0036862200000000005,0.004896000000000001,3.837,0,0
0.004603496,-0.0181583586,0.00039896040000000015,0.0038918620000000007,0.0026451400000000007,3.838,0,0
0.002706216,-0.012077638600000003,-0.0015058816,0.0023630280000000005,-0.0008198999999999991,3.839,0,0
0.0017099800000000003,0.00025568139999999906,-0.0038594116000000003,0.0025026160000000005,0.0010346800000000005,3.84,0,0
0.000889288,0.010551861400000001,-0.0040371616,0.0032123660000000004,0.001181748,3.841,0,0
-0.002459132,0.014216260000000001,-0.0043658656,0.0008632780000000003,-0.0037239279999999996,3.842,0,0
-0.0057657839999999995,0.01781258,-0.005244992,-0.001518602,-0.005206218000000001,3.843,0,0
-0.006540442,0.022023940000000002,-0.004329422,-0.001632022,-0.003872190000000001,3.844,0,0
-0.006929854000000001,0.020364826000000003,-0.0016672900000000005,-0.002437004,-0.005429130000000001,3.845,0,0
-0.008681134000000002,0.013659846000000002,0.0009603719999999999,-0.004890136,-0.008355558,3.846,0,0
-0.009364804000000001,0.007834045999999999,0.00252916,-0.005486524,-0.007321067800000002,3.847,0,0
-0.008323726,0.0005208020000000012,0.0038701240000000004,-0.004646278,-0.0053936378,3.848,0,0
-0.0079688142,-0.008368618000000001,0.0034713278000000005,-0.00408213,-0.0021673058,3.849,0,0
-0.0052091342,-0.010665762,0.0023104998000000004,-0.0003463339999999998,0.0064885142,3.85,0,0
5.9265800000000025e-05,-0.010849782,0.0032593718000000003,0.0040304699999999995,0.010617278200000002,3.851,0,0
0.0035303838,-0.014908442000000001,0.0030852988,0.004022312,0.006702664000000001,3.852,0,0
0.006522409800000001,-0.015550218000000001,0.0007814568000000001,0.0032486252,0.004827756000000001,3.853,0,0
0.010471236,-0.011898096000000002,-5.8513000000000055e-05,0.0037865352,0.004735196,3.854,0,0
0.011687778,-0.009479374,-5.2329000000000156e-05,0.0028465672000000004,0.0013595479999999995,3.855,0,0
0.008854606000000001,-0.005909472000000001,-0.0020106400000000006,0.0015793412000000002,-7.954600000000022e-05,3.856,0,0
0.006892798,0.0023780480000000002,-0.0027580950000000003,0.0027518052,0.002595341999999999,3.857,0,0
0.004712289599999999,0.008475508,-0.0012127210000000002,0.0029800654,0.0012006399999999998,3.858,0,0
0.00033906760000000007,0.010814006000000001,-0.0012117110000000003,0.0010791334,-0.002675528,3.859,0,0
-0.0024428024,0.014330402,-0.0017360820000000003,0.0002478414,-0.002792958,3.86,0,0
-0.0034985404,0.01590306,-0.0007182670000000001,-0.00023038459999999997,-0.00284721,3.861,0,0
-0.0057108704,0.012174632000000001,0.00025291299999999974,-0.0023372365999999997,-0.005766938000000001,3.862,0,0
-0.007950142,0.006613161999999999,0.000203403,-0.004804836,-0.008034008,3.863,0,0
-0.007457989200000001,0.00340443,0.00042261499999999994,-0.005063666,-0.006476624,3.864,0,0
-0.006390085199999999,-0.00042752799999999983,0.0007055128,-0.004758422,-0.004660045999999999,3.865,0,0
-0.0041125272000000004,-0.0023217594,-0.0006096812000000001,-0.0033101280000000003,0.0004003559999999997,3.866,0,0
0.0012210528000000005,-0.0012794994,-0.0006161132,0.001308512,0.008935696,3.867,0,0
0.005459112800000001,-0.0050542494,0.0014377728000000002,0.004033446,0.009557276,3.868,0,0
0.006299684,-0.0106133374,0.0012757788000000003,0.0027586420000000004,0.004956080000000001,3.869,0,0
0.006188442,-0.0116801374,0.0003573620000000003,0.0019881359999999997,0.00393773,3.87,0,0
0.0056452708,-0.01120412,0.001400316,0.0019713839999999996,0.00277881,3.871,0,0
0.0032008608,-0.010626644199999999,0.001451884,0.0004042860000000001,-0.0011984500000000006,3.872,0,0
0.0006307928000000001,-0.005063873000000001,-0.0007212159999999998,-0.00010082800000000002,-0.0005679280000000001,3.873,0,0
-0.00017904879999999993,0.002073741,-0.00080005,0.0016969084000000001,0.0028461060000000006,3.874,0,0
-0.0009384708000000001,0.004438017,-6.097999999999847e-06,0.0018117216,0.0007208939999999999,3.875,0,0
-0.0015806916,0.006941031,-0.0016476000000000001,0.00012905560000000003,-0.001963672,3.876,0,0
-0.0007239576,0.012071903200000001,-0.0020511419999999997,-0.00035760840000000006,-0.001524556,3.877,0,0
-0.0005037676,0.013652908000000002,-9.342600000000019e-05,-0.0010403684,-0.0028163980000000003,3.878,0,0
-0.002159878,0.010059426,0.0011795680000000002,-0.0032849628,-0.0066264720000000004,3.879,0,0
-0.0035493,0.005987008,0.0013825714000000001,-0.004980844,-0.00760447,3.88,0,0
-0.0031836670000000003,0.001706116000000001,0.0027290794000000003,-0.00495505,-0.005667462000000002,3.881,0,0
-0.0030703250000000005,-0.004457212,0.0027691908,-0.0050076822,-0.0046808460000000015,3.882,0,0
-0.0020014170000000006,-0.006508044000000001,0.0007662668000000001,-0.0029664822,0.0012650740000000001,3.883,0,0
0.0008220470000000001,-0.0058117640000000005,0.0012241428,0.0014187377999999998,0.008309074,3.884,0,0
0.001294643,-0.009592224,0.0020187794,0.0025185958,0.0064922339999999995,3.885,0,0
0.0006045919999999999,-0.012641712000000003,0.0006090214000000001,0.0019548658000000003,0.0033658799999999995,3.886,0,0
0.001326354,-0.011318580000000002,-0.00019433200000000008,0.0028624640000000003,0.004385688,3.887,0,0
0.0014207,-0.010259192000000002,-0.00010196199999999982,0.002839892,0.0028671779999999997,3.888,0,0
0.0008721759999999996,-0.008035718000000002,-0.0020203620000000004,0.0012855260000000004,-0.0006591600000000006,3.889,0,0
0.002673474,0.0005240220000000003,-0.004649358,0.0015854,0.0015350139999999995,3.89,0,0
0.004224786,0.008805902000000001,-0.005029078000000001,0.0027925928,0.003603782,3.891,0,0
0.0021383539999999994,0.010829178000000002,-0.005349536,0.0017981286000000002,0.00035922799999999974,3.892,0,0
-0.0005348620000000003,0.012427186,-0.005951004,0.0006726006,-0.0016191520000000002,3.893,0,0
-0.00213157,0.0137441,-0.00451653,0.00037539260000000004,-0.0016469660000000001,3.894,0,0
-0.004845132,0.009264007999999999,-0.002195532,-0.0005200494000000002,-0.0039728,3.895,0,0
-0.007777162,0.002243168,-0.0007650151999999999,-0.0024466142000000002,-0.007534796,3.896,0,0
-0.0071233112,-0.00013921500000000015,0.0010649348000000003,-0.0034483520000000004,-0.007457302000000002,3.897,0,0
-0.0038457532,-0.0010981570000000002,0.0039222828,-0.0032631660000000005,-0.005578108000000002,3.898,0,0
-0.0007467552000000001,-0.002561413,0.004371348800000001,-0.003313496000000001,-0.0032630000000000003,3.899,0,0
0.0041971048,0.001580219,0.0038110506000000005,-0.0008284080000000003,0.0034689400000000002,3.9,0,0
0.008368204800000001,0.003951139,0.005297349800000001,0.0026200340000000003,0.007545574,3.901,0,0
0.007222832,-0.0017218180000000008,0.004908759800000001,0.0025946760000000006,0.004508874,3.902,0,0
0.004634734000000001,-0.006002796,0.0022690058000000004,0.0022504754000000006,0.003125985200000001,3.903,0,0
0.0028631919999999996,-0.007303966000000001,0.0014809098,0.0034625714,0.0035435892000000007,3.904,0,0
0.0008229700000000001,-0.010287000000000001,0.0012436438000000003,0.0027454314,0.0005673692000000006,3.905,0,0
-0.0008405059999999998,-0.010637026,-0.0008947141999999999,0.001080818,-0.0009824907999999998,3.906,0,0
-0.0004885039999999996,-0.004180676,-0.0018959122,0.0021681292,0.0026448096000000008,3.907,0,0
0.0004972552000000003,0.0014669640000000003,-0.0010935694,0.0029135158,0.0032414224,3.908,0,0
-0.00017627079999999978,0.0037043700000000002,-0.0014297416,0.0013629550000000001,0.00022323640000000006,3.909,0,0
-0.0019143227999999998,0.006647904,-0.0016202294000000003,0.0007595226,-0.0001979862,3.91,0,0
-0.0035615728,0.008171426,-0.0002493174000000001,0.0005917674,-0.0009326342,3.911,0,0
-0.0042675928,0.006063364,0.0006246865999999999,-0.0012305458000000003,-0.0045675946000000005,3.912,0,0
-0.004862738,0.0021926700000000003,0.00020231579999999995,-0.0034693298000000004,-0.0074072826000000005,3.913,0,0
-0.004633951999999999,-0.00038919400000000004,0.0001380032,-0.0039314810000000006,-0.0062768466,3.914,0,0
-0.0035800668,-0.0034889440000000003,0.00013429120000000005,-0.0042288266,-0.005742702000000001,3.915,0,0
-0.0016822748,-0.003841574000000001,-0.0017554088,-0.0040457088,-0.0031936060000000007,3.916,0,0
0.0019560892000000003,-0.00025968200000000023,-0.001926761,-0.0007831127999999999,0.004012634,3.917,0,0
0.004090799200000001,-0.0014904680000000004,0.0003642150000000002,0.0013937232,0.005350654,3.918,0,0
0.0039479092,-0.0060910040000000006,0.0004321916000000002,0.0005061832000000002,0.0023127239999999995,3.919,0,0
0.004537992000000001,-0.0068339180000000005,-3.7563999999999697e-06,0.0007229712000000002,0.003398514000000001,3.92,0,0
0.005434930000000001,-0.006746856000000001,0.0011810696,0.001343702,0.004186492,3.921,0,0
0.00413438,-0.008119364000000002,0.0012922538000000002,-0.0001350088000000001,0.0011236200000000003,3.922,0,0
0.0025423906,-0.004121418,-0.0005661092000000001,-0.0008057941999999999,0.0014443420000000004,3.923,0,0
0.0029929582,0.003440682,-0.0005526774000000001,0.0008223398000000001,0.005053428,3.924,0,0
0.0023661703999999996,0.006350758,0.0008690605999999999,0.0011262338,0.003827236,3.925,0,0
0.00025301840000000006,0.007257464000000001,0.0005454155999999999,0.00015693380000000005,0.0008711940000000002,3.926,0,0
-0.0009148176,0.009726712,0.0005037594,-1.730179999999995e-05,0.0002470150000000001,3.927,0,0
-0.0018304862000000002,0.010058576000000001,0.0015699544,-0.0006124343999999999,-0.0015976270000000001,3.928,0,0
-0.0033733358,0.0077137086,0.0016253152,-0.0023217404000000002,-0.005641453,3.929,0,0
-0.004228016,0.0065019364,0.0004733612,-0.0038168364,-0.007538925000000001,3.93,0,0
-0.003045056000000001,0.0068430664,0.0005515580000000001,-0.0034478210000000002,-0.006101995,3.931,0,0
-0.0024397988000000002,0.004289650400000001,0.0001757541999999999,-0.0030909246,-0.005627342,3.932,0,0
-0.0025230828000000005,0.0011703724,-0.0019908358,-0.0019967666000000003,-0.0012852819999999996,3.933,0,0
-0.0013677988,-0.00044418820000000016,-0.0024493442000000005,0.0012647874,0.005090697999999999,3.934,0,0
-0.0006345972,-0.004993608,-0.0026659882000000003,0.0023884621999999997,0.0039438500000000005,3.935,0,0
-0.0007491152000000001,-0.010089372,-0.004883968000000001,0.0011089247999999997,0.0017303680000000001,3.936,0,0
0.00021090559999999993,-0.011404046000000001,-0.0058158360000000004,0.0012443167999999997,0.0034838860000000003,3.937,0,0
0.0018253796,-0.010818524000000001,-0.004255324,0.0016343248,0.002382922,3.938,0,0
0.0014257656,-0.010170506000000003,-0.0031059819999999998,4.512160000000006e-05,-0.0011404939999999995,3.939,0,0
0.0008391619999999999,-0.0057352204,-0.0019016060000000001,0.00012044399999999997,0.0013458260000000005,3.94,0,0
0.0010408540000000001,-0.0008878643999999998,0.001443756,0.002128744,0.004494300000000001,3.941,0,0
-0.0003548260000000001,-0.00014312859999999984,0.00406532,0.002012358,0.0018861940000000003,3.942,0,0
-0.001603464,0.0015932754,0.0044453140000000006,0.000920946,-0.00022233399999999992,3.943,0,0
-0.0010839034,0.0051619054,0.005260914,0.0008104627999999998,-0.00034600199999999966,3.944,0,0
-0.0011508674,0.0056055838,0.006518244,-1.540240000000011e-05,-0.0025966419999999997,3.945,0,0
-0.0028576774000000004,0.0037592797999999998,0.005768258000000001,-0.0019913103999999997,-0.006339562,3.946,0,0
-0.0033611334000000002,0.0043118900000000005,0.004051142000000001,-0.0026280364,-0.006015486800000001,3.947,0,0
-0.0020523154000000004,0.00459622,0.0034364616000000002,-0.0021029558,-0.0038767948,3.948,0,0
-0.0011505200000000004,0.003418918,0.0012147016,-0.002139819,-0.0030556048000000002,3.949,0,0
0.0008870779999999998,0.006038354,-0.0013797824,-3.0418999999999845e-05,0.0021817552,3.95,0,0
0.003193378,0.007917858,-0.0005757904,0.002842613,0.006119851200000001,3.951,0,0
0.003309854,0.004760762000000001,-6.07144000000001e-05,0.0022005310000000004,0.0029342820000000003,3.952,0,0
0.0027417383000000006,0.001541822,-0.001086172,0.0014140344000000003,0.0012671919999999999,3.953,0,0
0.0024474423000000003,-0.0030920559999999997,-0.0003703142,0.0022974080000000003,0.0021588520000000006,3.954,0,0
0.0018052623,-0.010419576,0.00022565380000000009,0.001213696,-0.0005320059999999995,3.955,0,0
0.0010665503,-0.0136715,-0.0014780802,-0.000842854,-0.0025371399999999994,3.956,0,0
0.0015493167,-0.009990266000000001,-0.0021904182000000005,0.000488812,0.0017761260000000003,3.957,0,0
0.0014751082,-0.0059086139999999995,-0.0011701752,0.0021503860000000002,0.004198052000000001,3.958,0,0
-0.0003982618000000003,-0.0027331899399999997,-0.001420753,0.0014018078,0.0022197880000000003,3.959,0,0
-0.0027160918,0.0017478966599999998,-0.0020120090000000004,0.001329251,0.0017748736000000002,3.96,0,0
-0.0033256398000000003,0.00396714466,-0.0013673104,0.00169322672,0.0011041416,3.961,0,0
-0.0027451522000000003,0.00227459466,-0.0013969804,0.00017874071999999987,-0.0026295844,3.962,0,0
-0.0019071140000000001,0.0005100186600000001,-0.0026306434000000004,-0.0018591432800000001,-0.0057965784,3.963,0,0
0.00152278,0.0023722266,-0.0026653234,-0.0019758822799999997,-0.004387172400000001,3.964,0,0
0.0046318999999999996,0.0023831026,-0.0012660814000000002,-0.0022735354800000004,-0.0036826100000000007,3.965,0,0
0.004466336,0.0005179746,-0.0013567234000000001,-0.0027451212,-0.002092468000000001,3.966,0,0
0.0043050779999999995,0.0024116066000000004,-0.0006927690000000001,-0.0003949171999999999,0.004172752,3.967,0,0
0.003218244,0.0014011726000000002,0.001990487,0.0013424608,0.0054026738000000005,3.968,0,0
-0.0005351780000000003,-0.0031034394000000005,0.0017921989999999997,0.00012321000000000012,0.0014098857999999994,3.969,0,0
-0.002377502,-0.00226696,0.00010475899999999984,0.00011870400000000002,0.0013351917999999997,3.97,0,0
-0.002219086,0.000989282,0.0003891784,0.0009877140000000002,0.0017474957999999998,3.971,0,0
-0.0026412846000000005,0.001836566,-0.00023081400000000014,-0.00045486600000000006,-0.0018975042000000007,3.972,0,0
-0.0022386934000000005,0.004765736,-0.0026182260000000004,-0.0016317019999999998,-0.0018963014000000005,3.973,0,0
-9.559740000000003e-05,0.008898684,-0.0024317260000000004,-0.00011286600000000004,0.0025233326,3.974,0,0
0.0008984046000000002,0.00814509,-0.0010520420000000002,0.0008341260000000001,0.0026214106,3.975,0,0
0.0004908726000000001,0.0064350250000000005,-0.0016161840000000001,0.00038878780000000003,0.0004632906000000001,3.976,0,0
0.00028267920000000016,0.004301633,-0.0014028020000000003,0.0009045578000000001,0.00045437959999999997,3.977,0,0
-0.001506134,-0.0017567070000000004,0.0003571560000000001,0.0012924126000000001,-0.0007829009999999999,3.978,0,0
-0.0038248119999999995,-0.006431315000000001,0.001414108,0.0002003526000000001,-0.004329935,3.979,0,0
-0.0046142928,-0.007543101000000001,0.0015623120000000002,-0.0011516454,-0.005632355,3.98,0,0
-0.0031967208000000004,-0.007749855200000001,0.0028618960000000005,-0.0013062570000000003,-0.003629731,3.981,0,0
-0.0017230287999999996,-0.008571073200000001,0.003760642000000001,-0.0020301930000000004,-0.0036430565999999998,3.982,0,0
0.0012064212000000003,-0.0046768412,0.0022333260000000003,-0.0019491102000000005,-0.0009308125999999998,3.983,0,0
0.005370445200000001,0.0012772388000000003,0.0019534700000000006,0.0005301658,0.004845767400000001,3.984,0,0
0.005061072000000001,0.0002025448000000001,0.002774584,0.0010398768000000002,0.0037289954000000007,3.985,0,0
0.002376246000000001,-0.00244809,0.001362904,-3.0573399999999805e-05,0.0008654754000000011,3.986,0,0
0.0012294296000000004,-0.00101382,0.0005106223999999999,0.0005105999999999999,0.0023273060000000008,3.987,0,0
0.0004747516000000003,-0.00019336799999999975,0.0013203044,0.0004732263999999999,0.0015240380000000006,3.988,0,0
-0.0014315243999999995,-0.0020056939999999997,0.0004070023999999999,-0.0014630232,-0.0022123579999999993,3.989,0,0
-0.0011279163999999998,0.001015718,-0.0014128696,-0.0012424472,-5.8289999999999904e-05,3.99,0,0
0.0008812056000000001,0.006160938000000001,-0.001154915,0.0009027888,0.0041004100000000005,3.991,0,0
0.0008393836000000002,0.007035834,-0.0007291654000000001,0.0015781414,0.002830775,3.992,0,0
-0.0003096804,0.006696702,-0.0012632394,0.0019905514000000003,0.001297559,3.993,0,0
-0.0010162604,0.004938105999999999,-0.0006382938,0.0024896310000000004,0.0016259947999999998,3.994,0,0
-0.0011118204,0.0007465060000000005,0.0004842742,0.001660926,-0.0006884952,3.995,0,0
-0.0016250983999999999,-0.0039734539999999995,0.00042285360000000004,-0.00014163399999999975,-0.0050218552000000005,3.996,0,0
-0.0013100960000000002,-0.005911704,-0.00039653440000000006,-0.001213184,-0.004946142200000001,3.997,0,0
-9.028400000000015e-05,-0.005676252,-5.5869600000000045e-05,-0.0017891882000000002,-0.0032257562,3.998,0,0
3.142739999999997e-05,-0.004712725199999999,-0.0003847770000000001,-0.0026643162,-0.0037031380000000003,3.999,0,0
0.0006504054,-6.752120000000014e-05,-0.0016142930000000002,-0.0011256702000000001,0.0007027820000000003,4.0,0,0
0.0016780993999999999,0.0036585667999999997,-0.00039641700000000004,0.0013698238000000003,0.004892982000000001,4.001,0,0
0.00016825739999999992,0.0016775208000000003,0.000509969,0.0007799118000000002,0.0018573700000000005,4.002,0,0
-0.0013845506000000002,0.0006136435999999999,-0.0007958258000000003,-3.195399999999984e-05,0.0006402259999999995,4.003,0,0
-0.000849074,0.0017040908,-0.0007712568000000003,0.001081616,0.002497878,4.004,0,0
-0.0009997638000000001,-0.00022128519999999974,0.00018073919999999984,0.00059977,0.0001705075999999996,4.005,0,0
-0.0012641118000000001,-0.0006411171999999997,-0.0011718088000000004,-0.0010045608,-0.0023652144000000006,4.006,0,0
0.0009975502,0.0037697028000000005,-0.0020477868000000005,0.00031330119999999995,0.0016135056,4.007,0,0
0.0032979762000000003,0.00483652,-0.0006909020000000002,0.0020955792,0.0041305576,4.008,0,0
0.0035574882,0.002890254,-0.0011345632,0.0018008212,0.0015757116,4.009,0,0
0.0034094432,0.003000844,-0.0022550312000000003,0.0016212604000000002,0.000702242,4.01,0,0
0.0024137532000000003,0.0008795259999999998,-0.0011504352,0.0017023550000000002,0.0006049119999999998,4.011,0,0
-3.122480000000011e-05,-0.003674834,-0.0002031972000000002,0.0005839710000000001,-0.0025239540000000006,4.012,0,0
-0.0026917268000000005,-0.0058432020000000005,-0.0006996620000000002,-0.001122069,-0.0055046800000000005,4.013,0,0
-0.0034969288000000005,-0.0049978142,-0.0006762540000000003,-0.0017179010000000002,-0.00391205,4.014,0,0
-0.0034882428,-0.0052020122,0.000385452,-0.0018583922000000002,-0.0032648872000000007,4.015,0,0
-0.0034579808000000005,-0.0042779342,-0.00023167140000000005,-0.002144,-0.0027249870000000003,4.016,0,0
-0.0010661567999999998,0.0012212258000000003,-0.0004311474,-0.00044717,0.002555879,4.017,0,0
0.0011255752000000003,0.0038184818000000006,0.0022863746,0.0016330920000000003,0.003766851,4.018,0,0
0.0009338872,0.002411026,0.0039223326,0.0011742420000000005,0.0002985169999999999,4.019,0,0
0.0010333776,0.003987986,0.003642597,0.0005904940000000002,0.0009152562,4.02,0,0
0.0014889024000000002,0.00537974,0.0041152804,0.0007608382,0.0016636959999999999,4.021,0,0
-0.0002660955999999999,0.0008760139999999996,0.0040168912,-0.0008660497999999999,-0.0018486118,4.022,0,0
-0.0022589236,-0.0022452380000000005,0.0012733672000000001,-0.0027299338,-0.0016497477999999996,4.023,0,0
-0.0020108218,1.3979999999996773e-06,-0.00016243680000000007,-0.0015573458000000004,0.0034498522,4.024,0,0
-0.0019675008000000003,-0.0008583960000000004,0.0003656628,-0.0002862858000000001,0.0043446902,4.025,0,0
-0.0027342276,-0.0038254300000000003,-0.0002526692,-0.0005535799999999999,0.0026019581999999998,4.026,0,0
-0.0020735600000000003,-0.002806134,-0.000601884,-0.0001040216,0.0027306341999999996,4.027,0,0
-0.00020352399999999996,-0.001817912,0.0001669660000000001,6.297439999999996e-05,0.0011363301999999997,4.028,0,0
0.00019380219999999999,-0.0038394480000000005,1.5202000000000184e-05,-0.0013990196000000002,-0.0028377818000000004,4.029,0,0
-0.00023174839999999996,-0.003790946,-0.001212196,-0.0026889556000000005,-0.0044325058,4.03,0,0
0.0004487104000000001,-0.001188102,-0.0009602179999999999,-0.0022614974000000005,-0.0026504078,4.031,0,0
0.0005512712000000001,-0.001338082,-0.0005683123999999999,-0.0022480122000000003,-0.00306629,4.032,0,0
0.00013467320000000002,-0.0007262291999999999,-0.0020909064,-0.0015973450000000002,-0.001126962,4.033,0,0
0.0016614292,0.0025330328,-0.0020027664,0.001258361,0.00431223,4.034,0,0
0.0033081192,0.0028321548,-0.00035665039999999994,0.002580929,0.0032463960000000004,4.035,0,0
0.0028330024000000004,0.0019924294,-0.0008367184000000001,0.0020262588,9.492200000000032e-05,4.036,0,0
0.002766063,0.0048478594,-0.0011590228,0.0024463552,0.0011143020000000002,4.037,0,0
0.0031594570000000005,0.0066541006,0.00023805820000000007,0.0022957559999999995,-4.340599999999996e-05,4.038,0,0
0.0020342430000000002,0.0045615342,-4.042179999999996e-05,-2.8070000000000048e-05,-0.0040143,4.039,0,0
0.0017276689999999998,0.0060342842,-0.0020326738,-0.0008942122,-0.0018850060000000003,4.04,0,0
0.003379299,0.0091390896,-0.0016737034,0.0007161818,0.002701534,4.041,0,0
0.003211406,0.0060129396,-0.0004533285999999998,0.0012642717999999998,0.0020449113999999997,4.042,0,0
0.0006092639999999996,0.0004865835999999994,-0.0011448995999999998,0.0010020577999999998,0.0011448613999999995,4.043,0,0
-0.0020827600000000003,-0.00339083,-0.0008103615999999999,0.0017755398000000003,0.0012684233999999998,4.044,0,0
-0.004376498,-0.00913553,0.0004841572000000002,0.001353126,-0.0014194026000000002,4.045,0,0
-0.00570086,-0.014044606000000001,0.00011444480000000011,-0.0009049940000000003,-0.0045721366,4.046,0,0
-0.00505759,-0.011969928000000001,-0.0006809852000000001,-0.001734552,-0.0036709660000000008,4.047,0,0
-0.0021431239999999997,-0.005736688,0.0007073428000000002,-0.0008978020000000002,-0.001573896,4.048,0,0
0.00045769400000000013,-0.0006507120000000003,0.0015284528,-0.0014402200000000003,-0.001735718,4.049,0,0
0.002221334,0.004729726,0.0008711140000000001,-0.0010368524000000001,0.00163919,4.05,0,0
0.003507184,0.00846483,0.002555522,0.0013721836000000001,0.004715884,4.051,0,0
0.001730104,0.004818382000000001,0.0035263960000000002,0.0009545516,0.0010629900000000002,4.052,0,0
-0.0012798059999999997,-0.0003156579999999999,0.0017335260000000004,-0.0006134904000000001,-0.001320052,4.053,0,0
-0.0017555329999999997,-0.001340224,0.0014053211999999998,-0.00010400360000000004,-0.0001794460000000002,4.054,0,0
-0.001099005,-0.002837074,0.0021948412,-0.00015801280000000005,-0.002089734,4.055,0,0
-0.001034651,-0.0051060440000000006,0.0006184162000000001,-0.0017385548000000003,-0.0043398384000000005,4.056,0,0
0.0010909970000000002,-0.0026657460000000005,-0.0012483398,-0.0008790048000000001,0.00030301959999999985,4.057,0,0
0.003969063,8.730087999999996e-05,-0.0008658297999999999,0.0015884712,0.0043181756,4.058,0,0
0.003601366,-0.00122629512,-0.0015521190000000002,0.0017267004,0.0028113856000000002,4.059,0,0
0.001730574,-0.00182805112,-0.003011583,0.001277132,0.0022797795999999993,4.06,0,0
0.0005278007999999998,-0.00188034512,-0.0026284840000000004,0.001110874,0.0020871839999999997,4.061,0,0
-0.0010743832000000002,-0.0034943751200000005,-0.0021671574,-0.0003556220000000001,-0.0013032060000000003,4.062,0,0
-0.0028385132,-0.004101794,-0.0026089754000000005,-0.0027683760000000003,-0.004462698000000001,4.063,0,0
-0.0028330132000000006,-0.0022801300000000004,-0.0022142116,-0.003086912,-0.0028793780000000006,4.064,0,0
-0.0026883332000000003,-0.0017231420000000002,-0.0004807615999999999,-0.001973878,-0.0019229490000000004,4.065,0,0
-0.003675228,-0.0009676400000000005,-0.0011150316,-0.0017047021999999996,-0.0016730592000000005,4.066,0,0
-0.0026556248,0.003943332000000001,-0.0016974482,0.0007636378000000002,0.0034753927999999997,4.067,0,0
-0.0009378368,0.0062640560000000005,0.0006615638,0.0035250938000000002,0.0051640268,4.068,0,0
-0.0012379088,0.0040020360000000005,0.0013177459999999998,0.0029037458,0.0013647848000000002,4.069,0,0
-0.0006481389999999998,0.004480530000000001,0.0004587759999999999,0.0021139018,0.0011598474,4.07,0,0
0.0012149990000000002,0.006096762,0.001622866,0.002640224,0.0013823246,4.071,0,0
0.0011334810000000002,0.0037851880000000005,0.0030052939999999995,0.0011684714,-0.0029181754,4.072,0,0
0.00042316520000000015,0.002330444,0.001714357,-0.0011232106,-0.0037331138,4.073,0,0
0.0022562612,0.00474913,0.001723907,-5.081459999999998e-05,0.0015979662000000002,4.074,0,0
0.0034946814,0.0042285032,0.0033786810000000006,0.0011036234,0.0033097466000000003,4.075,0,0
0.0024644554,0.0010458252,0.0031169130000000002,0.0002758894,0.0019167856,4.076,0,0
0.0021258002000000002,5.8068600000000097e-05,0.0025354494,9.883599999999996e-05,0.0023325476000000006,4.077,0,0
0.0018871148000000006,-0.0017641674000000002,0.0021320944000000003,0.00015612399999999984,0.0013361360000000001,4.078,0,0
2.7886800000000026e-05,-0.0053183314,0.00027720239999999997,-0.0013822820000000003,-0.0022757320000000004,4.079,0,0
-0.0013384322000000001,-0.005771006600000001,-0.0022823996000000003,-0.002673074,-0.00432637,4.08,0,0
-0.0003796962000000002,-0.0033772646,-0.0029724766,-0.0017465740000000003,-0.0026860240000000004,4.081,0,0
0.0004396478000000001,-0.0032708762,-0.002779867,-0.0014957854,-0.003123154,4.082,0,0
0.0007367356000000001,-0.0013382922000000003,-0.003207883,-0.0011222270000000004,-0.0022291762000000003,4.083,0,0
0.0019414236,0.0041880878,-0.002048278,0.0012139849999999999,0.0026075318,4.084,0,0
0.0016539646000000004,0.005407741800000001,-0.0009800644,0.001876703,0.0023313978000000005,4.085,0,0
-0.0011239914,0.0037185758,-0.0032152674,0.000175129,-0.0004338342000000002,4.086,0,0
-0.0031613434000000006,0.0035124974,-0.0059782614000000005,-0.0003532136,0.0006970597999999997,4.087,0,0
-0.004144176,0.0009115814000000004,-0.006397521400000001,-0.0005193339999999999,8.528799999999988e-05,4.088,0,0
-0.005432948,-0.0041221786,-0.0057969184,-0.002299062,-0.0042325,4.089,0,0
-0.005183901800000001,-0.0046760505999999995,-0.003867454,-0.002535651,-0.0029162960000000005,4.09,0,0
-0.0023033038000000003,-0.0022921165999999996,0.0015108060000000008,-0.0001240369999999998,0.002255504,4.091,0,0
0.00010653820000000006,-0.0018012119999999993,0.007640786,0.0011736330000000003,0.002923928,4.092,0,0
0.0018316442,0.0005783464000000001,0.011182890000000001,0.0009703710000000001,0.0023722979999999997,4.093,0,0
0.0042468682,0.0038476884000000007,0.011731469999999999,0.0014185304000000002,0.0031309474000000004,4.094,0,0
0.004841572,0.0029522624000000003,0.009786120599999998,0.0009911354000000003,0.0013405814000000001,4.095,0,0
0.0037662599999999996,0.00046746640000000007,0.0056918866,-0.0010137086,-0.0024607626000000002,4.096,0,0
0.0028220204000000003,-7.408299999999999e-05,0.0011526886000000004,-0.0018677792000000003,-0.0026478866000000005,4.097,0,0
0.0017111504,-0.0015367674000000002,-0.0009541654,-0.0011824632,-0.0007794586000000004,4.098,0,0
-0.0005137776000000001,-0.0051348894,-0.0023483213999999997,-0.0015192586,-0.0015950620000000004,4.099,0,0
-0.0007920196000000001,-0.0037066454,-0.0038030119999999997,-0.00043827860000000016,0.0011530879999999996,4.1,0,0
0.0007642823999999999,0.0004227205999999999,-0.0023457319999999997,0.0022091714,0.0050632920000000005,4.101,0,0
0.000516556,-0.0003353080000000001,-0.0008196379999999999,0.001853338,0.0019214659999999997,4.102,0,0
-0.000276262,-0.000887962,-0.001812326,0.0006939639999999997,-0.00034197600000000035,4.103,0,0
-4.609599999999997e-05,0.0013474698000000003,-0.0013145193999999998,0.0012540122,0.0011733180000000005,4.104,0,0
-0.00034592619999999994,-0.0005160402,0.00038984099999999993,0.0007423206000000001,-0.001177148,4.105,0,0
-0.0023120522000000003,-0.0044424622,-0.00028587900000000006,-0.0012934254000000003,-0.004743862,4.106,0,0
-0.0022523502000000003,-0.0015542282,-0.001772941,-0.0007950546000000001,-0.001022922,4.107,0,0
-4.8402199999999975e-05,0.0022161338,-0.0011176034000000001,0.0012920574,0.003189224,4.108,0,0
0.0005953458000000001,0.0012297579999999998,-0.0006723140000000002,0.0015690592,0.0018906139999999999,4.109,0,0
6.0518000000000073e-05,0.0012367340000000004,-0.0012987884,0.0013017148,0.0013118020000000004,4.11,0,0
4.836800000000024e-05,0.001196664,-0.0005265504,0.0013312068000000002,0.0014576899999999998,4.111,0,0
-0.0012234400000000001,-0.0027541560000000002,0.000447,0.0004091580000000002,-0.0015142960000000005,4.112,0,0
-0.004090718,-0.005794524,-1.6061600000000036e-05,-0.001412722,-0.004799874,4.113,0,0
-0.0045895078,-0.004233962000000001,-0.00051359694,-0.002099984,-0.0034936640000000005,4.114,0,0
-0.0031293078000000003,-0.002811988,0.00043278106,-0.002083474,-0.0022706300000000005,4.115,0,0
-0.0019307678000000004,-0.0010588199999999998,-0.0004367529400000001,-0.002319232,-0.00248654,4.116,0,0
0.0012371721999999998,0.00471252,-0.0015133533400000002,-0.0006186220000000002,0.001538486,4.117,0,0
0.0044329802000000005,0.008151166000000001,9.165065999999994e-05,0.0011612480000000001,0.0033636480000000003,4.118,0,0
0.003480982,0.007027960000000001,0.0001928411999999998,0.0005619199999999999,0.00015721599999999995,4.119,0,0
0.0018340620000000005,0.008078568,-0.0008677628000000002,0.0002391819999999999,0.000165342,4.12,0,0
0.0014640328000000004,0.009230712,-1.632680000000005e-05,0.0005014957999999999,0.0011681719999999999,4.121,0,0
-0.00033837479999999985,0.006511426000000001,0.0010609478,-0.0008249562,-0.0018225280000000003,4.122,0,0
-0.0019507605999999997,0.006161801999999999,-0.00021934040000000003,-0.00214702,-0.002746244,4.123,0,0
-0.00033669060000000005,0.009845489999999998,-0.0009937976,-0.0005139680000000002,0.0018663560000000002,4.124,0,0
0.0007748634,0.007758659999999999,-0.00023496980000000013,0.0013712420000000002,0.004049314,4.125,0,0
-0.00023615940000000003,-0.00100072,-0.0005393896000000001,0.0016969828000000001,0.0026758780000000005,4.126,0,0
0.00030846819999999996,-0.008071234,-0.0008108990000000001,0.0020371352,0.0024695500000000005,4.127,0,0
0.002143982,-0.012688770000000002,0.00034765519999999984,0.0020285206,0.0014180059999999999,4.128,0,0
0.0026683,-0.016194346000000002,0.0015735912000000001,0.0005885866000000001,-0.0017569580000000003,4.129,0,0
0.002024796,-0.014560036000000002,0.001274888,-0.0013266734000000001,-0.0035575448000000004,4.13,0,0
0.001958134,-0.006899138000000002,0.0013329817999999998,-0.0013218140000000001,-0.0013251287999999997,4.131,0,0
0.0004343579999999999,-0.0017853840000000008,0.0015244498399999999,-0.0014667924,-0.0009779168,4.132,0,0
-0.0018557080000000002,0.00016921799999999984,-0.00113078416,-0.001956818,-0.0002945464,4.133,0,0
-0.0016921739999999998,0.002554008,-0.0027392921599999997,1.2239999999999734e-06,0.004245077600000001,4.134,0,0
-0.0009644320000000001,0.00026429199999999974,-0.0014175607599999996,0.0011556740000000002,0.0035516724000000006,4.135,0,0
-0.0008418480000000001,-0.0032705860000000007,-0.0016818761599999997,-0.00020146599999999997,-0.00010002159999999982,4.136,0,0
0.0003176726,-0.0018122300000000002,-0.0019422914,-0.000280668,0.00046357040000000014,4.137,0,0
0.0009774642,-0.0009137082000000002,0.0007635866000000001,0.0005398396000000001,0.000149304,4.138,0,0
-0.0008150558,-0.0029430932000000004,0.0020543246,-0.0007117880000000001,-0.0039029780000000005,4.139,0,0
-0.0016646338,-0.0009225712000000001,9.773859999999987e-05,-0.0015131272000000002,-0.0033263654,4.14,0,0
3.93762e-05,0.0032418628,0.0002974328,0.0002458988000000001,0.0012161826000000003,4.141,0,0
0.0009532976000000001,0.0029288668000000003,0.0015789848000000001,0.0011707148,0.0012997926000000001,4.142,0,0
0.0008010444000000002,0.0019251310000000005,0.0005912090000000001,0.0005674552,-0.00011190140000000011,4.143,0,0
0.0018185804000000001,0.002526416000000001,0.0004297680000000002,0.00045949460000000006,0.00011256060000000025,4.144,0,0
0.0022449204,0.0007715980000000003,0.0013841376000000001,0.00035505380000000014,-0.001017772,4.145,0,0
0.0007587204000000002,-0.00219616,0.0007172808000000001,-0.00045700220000000004,-0.003520294,4.146,0,0
-0.000286592,-0.001125152,-0.0009034592000000001,-0.0008271142000000001,-0.0031531639999999995,4.147,0,0
-0.0005598624000000001,0.0020639400000000002,-0.0008775218000000001,1.2817799999999984e-05,-0.0006863139999999999,4.148,0,0
-0.0027862743999999997,0.001966066,-0.0013521648000000002,-4.3800400000000036e-05,-0.000900268,4.149,0,0
-0.0046281464,0.003947524,-0.0029377644,0.0004916916,0.001440632,4.15,0,0
-0.0039065186,0.007943068000000001,-0.0021928854000000005,0.0026470456000000004,0.0049386659999999995,4.151,0,0
-0.0046992162,0.004856072,-0.0011623293999999998,0.0024218616,0.00209941,4.152,0,0
-0.0053939282,-0.0003923679999999997,-0.001688907,0.0008352556000000002,-0.0006052740000000003,4.153,0,0
-0.0022772262000000003,-0.0006240048,-0.0007637389999999999,0.0006927220000000004,6.12345999999999e-05,4.154,0,0
0.0011847917999999998,-0.0009452747999999998,0.0011122530000000001,-0.0002834799999999996,-0.0022436754000000002,4.155,0,0
0.0025494059999999997,-0.0036120848,0.0009730288600000002,-0.002944266,-0.0056326934,4.156,0,0
0.004973630000000001,-0.0021604288,0.0005587790600000001,-0.0029547456,-0.0019767974,4.157,0,0
0.007772714000000001,0.0016300712000000004,0.00197787906,-0.0006464156000000002,0.0029849226000000003,4.158,0,0
0.007054278,0.0011958920000000003,0.0025804230600000003,2.4814400000000038e-05,0.00324047,4.159,0,0
0.004228030000000001,-0.001504604,0.0019422630600000005,0.0003289123999999999,0.003681014,4.16,0,0
0.001826356,-0.002898846,0.0023925702,0.0009973270000000001,0.0040395909999999995,4.161,0,0
-0.000502144,-0.00374586,0.0026811739999999997,0.0006410306000000001,0.0014279909999999995,4.162,0,0
-0.003161368,-0.004558405200000001,0.00108587,-0.0004372068,-0.0018573910000000001,4.163,0,0
-0.004120532,-0.0022668032000000005,-0.0005841580000000002,-0.0004325367999999999,-0.0015385290000000003,4.164,0,0
-0.002578184,0.0018704768,-0.0003453938000000001,7.374839999999997e-05,-0.0008657758000000001,4.165,0,0
-0.0012074059999999998,0.005429068800000001,-0.0013374658000000002,-0.0005674842,-0.0016688328000000001,4.166,0,0
0.0007449419999999998,0.0104661408,-0.0024866958,0.0005123838000000001,0.0016935712,4.167,0,0
0.002398426,0.01076921,-0.00034187979999999985,0.0019630412,0.0036961192,4.168,0,0
0.0012714839999999998,0.0042324039999999995,0.0011392162000000003,0.0007376812000000001,-2.8604800000000055e-05,4.169,0,0
0.00048620599999999966,0.0005825620000000009,0.0010158010000000002,0.00014858599999999998,-0.001442436,4.17,0,0
0.00038849999999999974,-0.0014014839999999997,0.0025475410000000004,0.0007497216000000003,-0.0010037280000000002,4.171,0,0
-0.0010592460000000002,-0.0052335102,0.003913725,-0.00045481440000000014,-0.004296094,4.172,0,0
-0.002171352,-0.0046585202,0.002112713,-0.0021526504,-0.0061907279999999995,4.173,0,0
-0.0007749615999999999,0.0005485878000000001,0.0005311309999999998,-0.0007684484000000002,-0.0011225640000000004,4.174,0,0
-0.0003471818,0.0012286658000000002,0.0006433583999999999,0.0013102656000000001,0.00271134,4.175,0,0
-0.0022054538,-0.0023873682,-0.0007938156000000002,0.0016097512,0.002523828,4.176,0,0
-0.0020601904,-0.0037045840000000003,-0.0032218456000000003,0.0018327932000000002,0.0032967,4.177,0,0
-0.00046920040000000005,-0.0046407466,-0.0045431316,0.00206395146,0.0031197519999999995,4.178,0,0
-0.0005725920000000002,-0.0064311066,-0.005256649600000001,0.00108566946,0.00046737800000000017,4.179,0,0
-0.0009360718000000002,-0.0054058196,-0.005618308000000001,-0.00070595074,-0.001527822,4.18,0,0
0.00022120819999999993,-0.0020092675999999997,-0.00444165,-0.0006849607399999999,-0.00012770000000000001,4.181,0,0
-0.0011238712,-0.0030037056,-0.001961126,-0.00080531874,-0.0004925659999999999,4.182,0,0
-0.0034265132,-0.004379635,-0.001264376,-0.001971255,-0.0005584339999999999,4.183,0,0
-0.0014246740000000001,6.903700000000009e-05,-0.0006467599999999999,-0.000624917,0.0032980360000000003,4.184,0,0
0.0007022519999999998,0.00152354,0.0012121760000000001,0.0001425472,0.002497252,4.185,0,0
0.0007900079999999998,0.00046595800000000004,0.00039418440000000014,-0.0011909339999999998,-0.001506208,4.186,0,0
0.002090237,0.003975354,-0.0007332376,-0.0009270651999999999,-0.0013523499999999996,4.187,0,0
0.0035152010000000003,0.00596209,0.00038871240000000007,-0.00011808920000000008,-0.00171148,4.188,0,0
0.002168921,0.0023992500000000003,0.0008207963999999999,-0.0015077632000000001,-0.005784512,4.189,0,0
0.0002764308000000001,0.0007922886200000002,-0.0011465156,-0.0022574920000000003,-0.005018588000000001,4.19,0,0
0.0010747988,0.00273271462,-0.0013011760000000002,-0.00024835600000000014,0.0008951719999999996,4.191,0,0
0.0018476538000000002,0.00196711862,0.0008285619999999997,0.0010852792,0.0028013639999999998,4.192,0,0
0.0013445636,0.0007944266199999999,0.0017963419999999998,0.0013214222000000001,0.002661012,4.193,0,0
0.0011879216,0.00113862662,0.0030273239999999996,0.0015847482000000003,0.0035835987999999997,4.194,0,0
0.0006623938,-0.0005946200000000001,0.004965104,0.0012509330000000005,0.0023912888000000004,4.195,0,0
-0.0004469662,-0.0034219800000000007,0.0056540520000000006,-0.00010968299999999985,-0.0006894152000000001,4.196,0,0
-0.00012454419999999994,-0.0033991480000000003,0.0041989378,-0.001315807,-0.0014847592,4.197,0,0
0.0014527440000000002,-0.0016971719999999998,0.003983497799999999,-0.000738792,0.0002044528000000001,4.198,0,0
0.0011742713999999999,-0.0020748600000000004,0.0038913678,-0.0008918419999999999,-0.0007762159999999998,4.199,0,0
0.0012028054,0.0011063819999999997,0.0013949378000000002,-0.0007294440000000001,0.0007622820000000001,4.2,0,0
0.0025339214,0.006394866,0.0009375293000000001,0.0014304480000000002,0.004537986000000001,4.201,0,0
0.0012210673999999999,0.0061880120000000005,0.0015472755,0.0012842984000000003,0.0019640600000000005,4.202,0,0
-0.0022246866000000002,0.004792122,-0.0002270944999999998,-0.0004568536,-0.0012059859999999996,4.203,0,0
-0.0039097080000000005,0.004834334000000001,-0.0010792784999999999,5.404220000000012e-05,-0.0005645219999999992,4.204,0,0
-0.004114700000000001,0.002519996,0.0002920895000000002,0.0002686038,-0.002526593999999999,4.205,0,0
-0.005319966000000001,-0.0011988936000000001,-0.00010479399999999985,-0.0017033382000000003,-0.006539606000000001,4.206,0,0
-0.0049005658,-0.0005896276000000002,-0.001953624,-0.0012214326000000001,-0.0035354340000000005,4.207,0,0
-0.0016815898000000003,0.0012059084,-0.0022385440000000003,0.0017685354,0.0017786460000000003,4.208,0,0
0.0008386742,4.510400000000241e-06,-0.002991108,0.0026332196,0.00241609,4.209,0,0
0.0013402822000000002,-0.0011495515999999997,-0.004477902000000001,0.0025760964,0.002743794,4.21,0,0
0.0009260542,-0.0018817419999999996,-0.0038510100000000006,0.0031777664000000004,0.0033729505,4.211,0,0
9.904599999999988e-05,-0.003985664,-0.002430966,0.0025114824,0.0013626044999999999,4.212,0,0
-0.0005702360000000001,-0.006021666,-0.0020766260000000003,0.0004186783999999999,-0.0014194255,4.213,0,0
-4.738600000000017e-05,-0.004071292,-0.0014376162,-0.00021124759999999995,-0.0003904294999999998,4.214,0,0
0.00149777,-0.0009916860000000003,0.00040360579999999997,0.0006763000000000001,0.0007946105,4.215,0,0
0.0031183960000000003,0.0010395779999999996,0.00030478640000000006,0.00012425400000000002,7.706599999999998e-05,4.216,0,0
0.005137296,0.0056535760000000004,-0.0008909656000000001,0.001006754,0.0036028200000000005,4.217,0,0
0.005920988,0.00830207,0.00046587440000000005,0.003189738,0.005839110000000001,4.218,0,0
0.004163244,0.005905436,0.0007396552,0.002103048,0.0020398,4.219,0,0
0.00262904,0.0039790699999999995,-0.0012233028000000002,0.00028155,0.0006040480000000003,4.22,0,0
0.0016267580000000003,0.0025602639999999996,-0.0010515174000000002,0.00023208799999999987,0.0006429140000000002,4.221,0,0
-0.0006257499999999998,-0.002220090000000001,0.0003141405999999998,-0.0011708820000000003,-0.003800978,4.222,0,0
-0.002846126,-0.0055747340000000005,-0.0005657274000000002,-0.0038074480000000006,-0.006709654,4.223,0,0
-0.0020626159999999998,-0.0027909280000000002,-0.0008291774000000003,-0.003105391792,-0.002721182,4.224,0,0
-0.0006179559999999998,-0.001758184,0.0013959865999999999,-0.0013320017919999996,0.0002019480000000002,4.225,0,0
-0.0007760919999999999,-0.0036444620000000002,0.0021780446,-0.0015281917920000002,-0.0002681519999999996,4.226,0,0
-0.000371964,-0.0030591140000000004,0.0019174866000000001,-0.0014679617920000001,0.0008042620000000002,4.227,0,0
-0.00015112800000000005,-0.0038425840000000005,0.0031282686,-0.001050191792,0.0010082479999999998,4.228,0,0
-0.001742262,-0.007062376,0.0037256740000000004,-0.002017866,-0.0017488999999999998,4.229,0,0
-0.0033039460000000003,-0.006719232000000001,0.002136474,-0.003866564,-0.004199536,4.23,0,0
-0.0027153552,-0.0032401980000000006,0.0009188945999999997,-0.0038510080000000004,-0.0031485628000000004,4.231,0,0
-0.0026489212000000003,-0.0032209960000000003,0.0010990766,-0.0035277039999999996,-0.0035436668000000003,4.232,0,0
-0.0036366672,-0.0028171140000000008,-0.0008670594,-0.0042028000000000005,-0.0041773108,4.233,0,0
-0.0027869632,0.0011662119999999998,-0.0022968794,-0.0024339860000000004,-0.00012847480000000022,4.234,0,0
-0.0023984025999999998,0.0008489609999999999,-0.0005992794,-0.0003298120000000004,0.0002641591999999999,4.235,0,0
-0.0039980094,-0.002789933,-0.00047665599999999994,-0.001137998,-0.0031698400000000006,4.236,0,0
-0.0041762494,-0.0021914676,-0.0012074999999999998,-0.0017066980000000002,-0.0028037520000000005,4.237,0,0
-0.0024351040000000004,-0.0009290396,0.000129014,-0.0015424980000000002,-0.0031101600000000003,4.238,0,0
-0.0016741680000000004,-0.003982411599999999,0.0010589238,-0.0033710280000000003,-0.007562512,4.239,0,0
-0.0011879786000000001,-0.0043824406,-0.00021181279999999997,-0.00498032,-0.00754391,4.24,0,0
0.0013043794000000002,-4.916060000000012e-05,-0.000281663,-0.0032210380000000007,-0.00173449,4.241,0,0
0.0034817354000000007,0.001238722,0.000685915,-0.0011968240000000004,0.0008129760000000002,4.242,0,0
0.00413701,0.0014673226,-8.747700000000008e-05,-0.0005053280000000003,0.0013581860000000004,4.243,0,0
0.005137424000000001,0.0043112866,-0.0006561068000000001,0.0008635100000000001,0.0035942780000000002,4.244,0,0
0.005384192,0.0039331406,-0.0002608682000000001,0.0018840859999999999,0.004206004000000001,4.245,0,0
0.0035502560000000008,0.0005533046000000001,-0.0009315640000000001,0.0014136020000000001,0.002358542,4.246,0,0
0.0020804410000000006,0.0005121786,-0.00244363,0.000980356,0.0020722220000000003,4.247,0,0
0.0019357630000000003,0.0017443720000000001,-0.0020858888,0.002022264,0.00420288,4.248,0,0
0.0001265630000000001,0.00021426460000000008,-0.0016281388000000002,0.00208173,0.00357398,4.249,0,0
-0.0007013026,0.0022138606,-0.0031401188,0.0021936200000000003,0.00459686,4.25,0,0
0.0011717374000000003,0.0064964766,-0.0020856208,0.00432738,0.0077929819999999995,4.251,0,0
0.0004949904000000003,0.0044426886,0.0005442832000000001,0.004397014,0.005018958,4.252,0,0
-0.0017769416,0.0016021745999999998,0.0003096000000000001,0.002645792,0.0012632320000000004,4.253,0,0
-0.0018270256,0.0028987939999999997,0.0002951902000000001,0.0021906881999999997,0.0010924995999999996,4.254,0,0
-0.0021281139999999995,0.0020451920000000004,0.0017482124000000002,0.0013614881999999997,-0.0014912304000000002,4.255,0,0
-0.0032667604,-0.0015711780000000001,0.0010855024,-0.0013477218,-0.0062846684,4.256,0,0
-0.0018795323999999999,-0.00091847,-0.0007702167999999998,-0.0020081812,-0.0041210424,4.257,0,0
0.0007148256,0.00123413,0.00010897719999999992,0.00046655679999999997,0.0011601376,4.258,0,0
0.0020320176,-0.0006051440000000001,0.0011160850000000002,0.0015793845999999999,0.0019473160000000002,4.259,0,0
0.0023537277999999997,-0.002516622,0.0006583648,0.0018493748,0.002721568,4.26,0,0
0.0024120575999999998,-0.002477518,0.001198197,0.0032193647999999996,0.004499014000000001,4.261,0,0
0.0021693436,-0.0022499282,0.0014064201999999999,0.0033575446000000003,0.0036735352000000004,4.262,0,0
0.0008957255999999998,-0.0018119202000000004,0.0002680902000000001,0.0016156606,0.0014560212000000001,4.263,0,0
0.00020588559999999999,0.0006794657999999998,-0.0006379052000000001,0.0012543246,0.0022254412000000004,4.264,0,0
0.0013258494,0.0036295658000000002,0.00032110680000000004,0.0024804804000000003,0.0034930952000000004,4.265,0,0
0.00131119708,0.0045756518,-1.243699999999999e-05,0.0016098440000000002,0.0022049552000000003,4.266,0,0
0.00089978334,0.007133004000000001,-0.001508081,0.0018465436000000002,0.00428036,4.267,0,0
0.0016354513400000002,0.0087209,-0.00011041499999999988,0.0040608656000000005,0.005834774000000001,4.268,0,0
0.00035917733999999996,0.005122494000000001,0.0008646964000000002,0.0029472756000000003,0.0013222880000000009,4.269,0,0
-0.0016298966600000002,0.0025016279999999997,-0.00018098359999999973,0.0006846116000000001,-0.0012898599999999997,4.27,0,0
-0.0019097057400000001,0.002171904,0.0006394260000000002,0.0004989040000000003,-0.0013572759999999997,4.271,0,0
-0.0027023280000000004,-0.0020153220000000004,0.0025294520000000006,-0.0006698859999999997,-0.005502996,4.272,0,0
-0.0038948220000000005,-0.005975722000000001,0.0017531433600000003,-0.00341277,-0.008878794,4.273,0,0
-0.0027042704,-0.00329358,0.00049516336,-0.0027713539999999997,-0.0045566520000000004,4.274,0,0
-0.0006858404000000002,-0.0011344899999999997,0.0009397589600000001,-0.00015664999999999971,-0.0008869419999999997,4.275,0,0
0.00010482359999999997,-0.0018860040000000002,0.0005958469600000001,0.00046857600000000033,-0.0011112320000000004,4.276,0,0
0.0007732608000000001,-0.0008802279999999999,-3.612043999999992e-05,0.0011150036000000002,0.0006373959999999999,4.277,0,0
0.0013202588,-0.0006461959999999998,0.0004775122000000001,0.0022329796000000006,0.0020215259999999996,4.278,0,0
0.0007994432,-0.002806264,0.0007969062000000001,0.0019374076000000001,0.0002980139999999999,4.279,0,0
0.00016690719999999995,-0.002715576000000001,0.00020077059999999995,0.0010796896,-0.0008067480000000003,4.28,0,0
0.00038970519999999986,0.0007837620000000001,-0.00019730200000000006,0.0017606056000000001,0.0018573599999999997,4.281,0,0
0.00029888459999999985,0.0021149280000000003,0.00012356719999999995,0.0021919920000000002,0.0022622,4.282,0,0
0.00023186059999999984,0.0034469984000000003,-0.0015528968000000003,0.001607258,0.0013651539999999995,4.283,0,0
0.0021367706,0.0078558484,-0.0029846828000000005,0.0028919740000000003,0.004703163999999999,4.284,0,0
0.0034412686,0.007348680400000001,-0.0019103768000000001,0.003402506,0.004112546,4.285,0,0
0.00270551876,0.0033497624,-0.0026727382,0.00092833,-0.0013096639999999999,4.286,0,0
0.0030291965599999996,0.003883930400000001,-0.0040667640000000005,-0.0006368340000000004,-0.002724942,4.287,0,0
0.00307116056,0.0030460120000000007,-0.0025783760000000003,-0.0013537520000000004,-0.0031695120000000006,4.288,0,0
0.0003335105599999997,-0.003760128,-0.001278774,-0.004094540000000001,-0.007593458,4.289,0,0
-0.00302438744,-0.00758665,-0.002884854,-0.006642686000000001,-0.00831334,4.29,0,0
-0.0038878335999999996,-0.006678054,-0.0029693140000000007,-0.005640456,-0.002601886,4.291,0,0
-0.003497862,-0.00839287,-0.0010551900000000001,-0.004110196,9.359799999999986e-05,4.292,0,0
-0.0032091552,-0.009447982,-0.0006309860000000004,-0.0039881380000000004,-0.00011731400000000009,4.293,0,0
-0.0024517092000000003,-0.006065804,0.00013239199999999995,-0.0028061600000000003,0.0015367488,4.294,0,0
-0.0013131232,-0.003742848,0.002210546,-0.0012862262000000002,0.0020855574000000006,4.295,0,0
-0.00011081520000000002,-0.002791762,0.003125209192,-0.0011563902,-9.968219999999996e-05,4.296,0,0
0.0007997487999999999,0.00274145,0.0022450935919999995,-0.0009957062000000001,-0.0004378642000000001,4.297,0,0
0.00029430799999999985,0.007497478,0.002728791592,0.0006575318000000001,0.0023990078,4.298,0,0
-0.0018625640000000004,0.0055984,0.003583337592,0.0010281134000000001,0.001770933,4.299,0,0
-0.0011114880000000003,0.0063818559199999994,0.0025021605920000005,0.0007778366000000002,0.0019300724000000003,4.3,0,0
0.0015104959999999998,0.00775018392,0.0035975134000000007,0.0027180886000000002,0.005171058000000001,4.301,0,0
0.0009273379999999998,0.0008099039200000001,0.006045507,0.0029446606,0.002309834,4.302,0,0
-8.744200000000029e-05,-0.004946616080000001,0.0049581578,0.0006610026000000001,-0.002247102,4.303,0,0
0.0008889819999999991,-0.0036154720800000003,0.0031811398,-3.329499999999992e-05,-0.0020606339999999996,4.304,0,0
-0.00043421600000000007,-0.004975734000000001,0.0035143708,-0.0004936160000000001,-0.00385363,4.305,0,0
-0.003926782,-0.007968682000000001,0.0022169168,-0.003095266,-0.008529236,4.306,0,0
-0.0037899260000000008,-0.004238922000000002,-0.0009801932000000001,-0.00403876,-0.006380440000000001,4.307,0,0
-8.422000000000074e-05,0.00044302399999999976,-0.0015219320000000001,-0.0018134200000000005,-0.0008027999999999998,4.308,0,0
0.003266692,0.001778918,-0.0011366710000000001,-0.0007590400000000003,-7.120199999999949e-05,4.309,0,0
0.0051731680000000006,0.0036929199999999997,-0.0026584450000000006,-0.0008834040000000002,0.0004622140000000003,4.31,0,0
0.005159624000000001,0.003968018,-0.0035095050000000004,0.00015461060000000003,0.0027921200000000004,4.311,0,0
0.0027362540000000005,-0.00010426200000000036,-0.003046501,0.0006677708,0.0025821830000000005,4.312,0,0
7.954799999999938e-05,-0.003098926,-0.003573101,-0.00012165199999999995,0.00036140700000000006,4.313,0,0
-0.0012369520000000004,-0.0026999420000000003,-0.004586968,-0.00015084800000000003,0.001152163,4.314,0,0
-0.0012970200000000007,-0.0023359440000000004,-0.0033935899999999997,0.00092312,0.003180583,4.315,0,0
-0.0008852034000000001,-0.0017677434000000004,-0.002588662,0.0005736994000000001,0.002040643,4.316,0,0
0.00011503659999999999,0.0031765966,-0.003090738,0.0007356772000000001,0.0037188660000000004,4.317,0,0
0.0005391226000000002,0.0072996946,-0.0012318420000000004,0.00218027,0.006164062,4.318,0,0
-0.0018207154,0.0043802926,0.0008830080000000002,0.0013404580000000003,0.0021494179999999997,4.319,0,0
-0.004306063400000001,0.0021102606000000003,0.0009589182000000002,2.228600000000005e-05,-0.0013925300000000003,4.32,0,0
-0.004806716,0.0019830319999999996,0.0023474582000000003,-0.00013355599999999995,-0.001761088,4.321,0,0
-0.005179144,-0.0018335060000000006,0.004630942200000001,-0.001354316,-0.005559438,4.322,0,0
-0.004831478,-0.005061085000000001,0.0037001172000000002,-0.003399052,-0.00956291,4.323,0,0
-0.0011915900000000006,-0.0031216462,0.0020271372,-0.0029679442,-0.0055557,4.324,0,0
0.0031338339999999994,-0.0024827622000000004,0.0021304366,-0.0011484242000000002,-0.0006424800000000004,4.325,0,0
0.005315882,-0.0042360162,0.0008613096000000002,-0.0004963382000000001,4.332479999999982e-05,4.326,0,0
0.0068343200000000005,-0.0036734182000000004,-0.0011827564,0.00010786380000000004,0.0016472608000000003,4.327,0,0
0.007377614,-0.0033673550000000007,-0.0011364478000000001,0.0008265122,0.0030522964,4.328,0,0
0.005483882000000001,-0.004760875800000001,-0.000826741,0.0009289400000000001,0.0018233120000000001,4.329,0,0
0.002491494,-0.004471843800000001,-0.0016851566,0.000542602,0.00021904400000000005,4.33,0,0
0.0010961130000000001,-0.0008832298000000002,-0.0016833020000000002,0.0012973720000000002,0.0017724792,4.331,0,0
6.401700000000003e-05,0.0006041802,-0.000601312,0.002058086,0.0021473126000000004,4.332,0,0
-0.002002467,0.00112591,-0.0015963516,0.0015126196000000002,0.0010600569999999997,4.333,0,0
-0.0018500131999999998,0.006696252,-0.0023673504000000004,0.00272321,0.004176851400000001,4.334,0,0
-0.0013514635999999998,0.009664358000000001,-0.0003174403999999999,0.0036418020000000004,0.0040066654,4.335,0,0
-0.0036888446000000004,0.006960974000000002,4.1819999999995476e-07,0.001456692,-0.0011563565999999996,4.336,0,0
-0.0048724286,0.006353616000000001,-0.0009287418000000002,-8.947399999999976e-05,-0.002250434,4.337,0,0
-0.0033454906,0.006008630000000001,0.0006529482,-0.00027533400000000023,-0.002399544,4.338,0,0
-0.0028438423999999998,0.0012968020000000001,0.0019382602000000003,-0.002578212,-0.006924970000000001,4.339,0,0
-0.0027398784000000004,-0.0008948960000000001,0.000489265,-0.004889698,-0.008021514,4.34,0,0
0.0006884516000000001,0.002325094,0.0003205106,-0.0032757579999999997,-0.0021803340000000004,4.341,0,0
0.0037250296,0.0019858376000000005,0.0016939446000000002,-0.00132174,0.0010042380000000002,4.342,0,0
0.0036691156000000003,-0.0011895904,0.0014051266,-0.001042922,0.0011712720000000001,4.343,0,0
0.0039793816,-0.0022631224000000004,0.000992884,0.00017112760000000002,0.0030682080000000002,4.344,0,0
0.0041947,-0.0050989244000000005,0.0013938552000000003,0.0015472936000000001,0.0037121898,4.345,0,0
0.0020772480000000003,-0.009789764400000001,0.0006575394000000001,0.0010337348000000002,0.0013050158,4.346,0,0
-0.0002499099999999998,-0.010643434000000002,-0.0011561906000000003,0.0004973428000000001,0.00017440780000000007,4.347,0,0
-0.0010543879999999999,-0.007469004000000001,-0.0016843804000000002,0.0014683648,0.0023725518,4.348,0,0
-0.0031233320000000004,-0.005798804000000001,-0.0013195298000000003,0.001159919,0.0015263838000000004,4.349,0,0
-0.005266544,-0.002627544,-0.0017969558000000003,0.0006676443999999998,0.0015262762,4.35,0,0
-0.004220532999999999,0.003967536,-0.0003139378000000002,0.0022862311999999997,0.0051550702,4.351,0,0
-0.0036632970000000003,0.006272,0.0027564922,0.0023908792,0.0032837042,4.352,0,0
-0.005031599,0.004697016,0.003139024,0.00040318319999999995,-0.0010649917999999998,4.353,0,0
-0.004278563,0.0045322906,0.0024714480000000002,-0.0001244086000000001,-0.0011588057999999998,4.354,0,0
-0.0022711790000000003,0.0025371785999999995,0.0024759960000000003,-0.0006846940000000002,-0.002502104,4.355,0,0
-0.00179114,-0.0027860474,4.895199999999989e-05,-0.0032551840000000004,-0.006941282,4.356,0,0
-0.00024744199999999963,-0.0040351884,-0.004902948,-0.004265078,-0.00527584,4.357,0,0
0.0032894660000000004,-0.0016951424,-0.006904006,-0.002200508,0.0004207,4.358,0,0
0.005028828000000001,-0.0017660030000000004,-0.006532084,-0.0009755619999999998,0.001250402,4.359,0,0
0.005301350000000001,-0.0007001469999999999,-0.006739402,-0.0008946679999999999,0.0010704540000000002,4.36,0,0
0.005916190000000001,0.003138419,-0.0050389932,0.00017608785999999996,0.002546346,4.361,0,0
0.005312572000000001,0.004385526000000001,-0.0014994772,0.0006083958599999999,0.00132432,4.362,0,0
0.00289296,0.0029903640000000006,0.0003900488000000001,-0.0002074367400000001,-0.0014365942,4.363,0,0
0.00107287,0.0031876898000000003,0.0003482144000000001,-0.00022990274000000011,-0.0005378542000000002,4.364,0,0
0.0003935302000000003,0.0023171738000000003,0.0018722924000000001,0.00111650526,0.0014896418,4.365,0,0
-0.0027962758000000002,-0.0025955262,0.0032079856,0.0008526254000000001,0.00014211179999999994,4.366,0,0
-0.0042854898,-0.0023254442000000004,0.0030357476000000003,0.0009220388000000003,0.0020040718,4.367,0,0
-0.0008804258000000001,0.0032919657999999994,0.0046179155999999996,0.0028683254000000003,0.0048248860000000005,4.368,0,0
0.0008979562,0.004490648,0.0059278560000000004,0.0021081774000000003,0.0010552960000000003,4.369,0,0
0.0009938873999999996,0.005469338,0.004392328,0.00010888940000000017,-0.00208847,4.37,0,0
0.0032017594,0.009952578,0.003283734,2.0717400000000094e-05,-0.001781384,4.371,0,0
0.002912453399999999,0.00920226,0.00332186,-0.0007080899999999999,-0.004447012,4.372,0,0
-0.0020104866000000003,0.0013464600000000003,0.0013185620000000001,-0.0031527779999999997,-0.00749375,4.373,0,0
-0.004069224600000001,-0.0031449220000000005,-0.0001990120000000001,-0.0028569563999999996,-0.003182486,4.374,0,0
-0.0029697020000000003,-0.004830712000000001,0.0010906239999999999,-0.0005892023999999997,0.0020393140000000004,4.375,0,0
-0.0028997140000000003,-0.009478232,0.00146447,-2.1568399999999968e-05,0.00247205,4.376,0,0
-0.0019633738,-0.012439792000000002,0.0005719200000000001,0.0005004256000000001,0.0031482060000000006,4.377,0,0
0.0007307082000000001,-0.010885220000000001,0.001130332,0.0013919176,0.0038118220000000003,4.378,0,0
0.0015163750000000001,-0.00851623,0.001598664,0.001390508,0.0016101780000000005,4.379,0,0
0.0003388014000000001,-0.005933092,0.00022584199999999986,0.0008216480000000001,-0.000683896,4.38,0,0
0.0007562854000000001,-0.0008710319999999999,-0.0010407460000000002,0.0016532460000000001,0.000859004,4.381,0,0
0.0012961772000000002,0.0022640540000000006,-0.001234386,0.0026492340000000003,0.0017221344,4.382,0,0
0.0007149326000000001,0.003131823600000001,-0.00290059,0.001894322,0.0006698784000000001,4.383,0,0
0.0022641158,0.0073957936000000005,-0.004659992,0.002593462,0.0034870784,4.384,0,0
0.004402117400000001,0.009458367600000002,-0.00373944,0.003524768,0.0039401844,4.385,0,0
0.0028144934000000005,0.0053405876,-0.0031756962,0.00141942,-0.0008233816000000008,4.386,0,0
0.0005007833999999998,0.0031317516000000005,-0.0031843162,-0.00046491199999999983,-0.00217571,4.387,0,0
-0.000780116,0.0022980380000000014,-0.0011080282,-0.0007515259999999999,-0.0018559840000000004,4.388,0,0
-0.003724868,-0.002766604,0.0007711978,-0.00252769,-0.005374108000000001,4.389,0,0
-0.006658224000000001,-0.006197770000000001,-0.00031188419999999997,-0.00459313,-0.006540936,4.39,0,0
-0.005106432,-0.0028848860000000006,-0.0005002299999999999,-0.0031383939999999996,-0.000894096,4.391,0,0
-0.0010975359999999992,5.165799999999978e-05,0.0010529420000000003,-0.0007892719999999995,0.0023310680000000004,4.392,0,0
0.0015347780000000003,7.368999999999952e-05,0.0005822388000000002,-1.4681399999999771e-05,0.001824442,4.393,0,0
0.003722062000000001,0.0011849199999999997,0.00037633820000000006,0.0005949046000000003,0.0029063938000000004,4.394,0,0
0.004981148,0.0012760279999999998,0.0019930622000000004,0.0008543926000000002,0.0027873438000000006,4.395,0,0
0.004302536200000001,-0.0010369000000000003,0.0021424374,-0.0001403653999999998,-0.00022661620000000008,4.396,0,0
0.0025936042000000003,-0.0015595420000000001,0.0004454614000000002,-0.0014844808,-0.0017935562,4.397,0,0
0.0018044702000000001,0.0015919379999999998,0.0003759876000000001,-0.0008990434,5.5851800000000155e-05,4.398,0,0
0.0007855602000000002,0.002756164,0.0006847902000000001,-0.00019900340000000003,-0.0011121300000000002,4.399,0,0
-0.0011576657999999998,0.003916424,-0.0017435958,7.167420000000005e-05,-0.000997124,4.4,0,0
-0.0019341019999999998,0.007673708,-0.002686293,0.0022393282,0.0036864360000000004,4.401,0,0
-0.003304116,0.006590041,-0.0009690110000000001,0.0029186236,0.0026614700000000004,4.402,0,0
-0.005476826000000001,0.0023633009999999995,-0.0014257319999999999,0.0007683796,-0.00137052,4.403,0,0
-0.005786846,0.0006275629999999998,-0.002231568,-0.00022467240000000022,-0.000440436,4.404,0,0
-0.005185242,-0.0022612590000000003,-0.00015084199999999988,-0.0006580520000000004,-0.001177832,4.405,0,0
-0.005078872000000001,-0.007379379,0.0007666260000000002,-0.0030799420000000004,-0.006142156000000001,4.406,0,0
-0.002779854,-0.0077089352,-0.00047274000000000003,-0.003894634,-0.004715794,4.407,0,0
0.0015995980000000003,-0.0037422512000000003,0.0006889720000000002,-0.001314836,0.001220146,4.408,0,0
0.0036231640000000008,-0.0023773191999999998,0.002391278,0.000345604,0.002514008,4.409,0,0
0.004462839800000001,-0.0016885752,0.002076454,0.0006953022,0.002581338,4.41,0,0
0.005914031800000001,0.0004214529999999998,0.002535912,0.0014232276,0.004066210000000001,4.411,0,0
0.005192987800000002,-0.0007178838000000004,0.003535378000000001,0.001536129,0.0029682119999999996,4.412,0,0
0.00262656756,-0.0038980958,0.0025348732000000005,0.00029383619999999997,-0.000291536,4.413,0,0
0.00146939836,-0.0026940337999999996,0.0005762171999999999,-0.0005190396,-0.0006598540000000002,4.414,0,0
0.0021511485600000002,0.0008346042000000001,0.0005903832000000001,0.00024325419999999995,0.000808226,4.415,0,0
0.00144090116,0.0014962680000000007,0.00016457960000000003,0.00010659680000000004,-0.0007814620000000002,4.416,0,0
0.00048882516,0.004279636000000001,-0.0023343803999999998,0.0002894218200000001,0.0004692279999999999,4.417,0,0
0.0015515114,0.008184744,-0.0026259696,0.00193990662,0.003799676,4.418,0,0
0.0017132506000000001,0.0068898806,-0.001833998,0.00143648242,0.000671282,4.419,0,0
0.00040456659999999985,0.0047663782,-0.0031550659999999998,-0.00024656158,-0.0024157719999999996,4.42,0,0
5.255799999999986e-05,0.0040182128000000004,-0.0031840194000000003,-9.291978000000004e-05,-0.001494542,4.421,0,0
-0.00028138200000000005,0.0008199348000000005,-0.0011188494,-0.0007221882000000001,-0.003716036,4.422,0,0
-0.002884012,-0.0038908052,-0.0009886034,-0.0029990622000000003,-0.007171006,4.423,0,0
-0.003976994,-0.004303199800000001,-0.001789313,-0.0025037400000000004,-0.0031747420000000004,4.424,0,0
-0.002522892,-0.002946015399999999,-0.00045688900000000004,-8.260000000000168e-06,0.002134718,4.425,0,0
-0.0023044540000000005,-0.004035881999999999,0.000506434,0.0007538001999999999,0.0021718700000000002,4.426,0,0
-0.002297566,-0.004136646,0.00024967380000000017,0.0011457122,0.0025280420000000003,4.427,0,0
-0.0010025220000000003,-0.0030492619999999996,0.0011730698,0.0020416206000000003,0.003461166,4.428,0,0
-0.0004074260000000001,-0.004128908,0.0022991538000000002,0.0014716184000000002,0.001224814,4.429,0,0
-0.001084178,-0.005554988,0.0018514136000000003,-2.6612200000000036e-05,-0.0015777259999999998,4.43,0,0
-0.0009295356,-0.0027714180000000008,0.0011523566,-0.00011098819999999998,-0.0003069179999999998,4.431,0,0
-0.00040907840000000003,0.00037735000000000004,0.0018237508,0.00025782359999999995,0.0003996184000000001,4.432,0,0
-0.0007005224000000001,0.0015122812000000002,0.0007675708000000001,-0.00021961680000000012,-0.0010060896,4.433,0,0
-0.0003184164000000001,0.005434715200000001,-0.0008605352000000001,0.0010790872,0.0022776784000000006,4.434,0,0
9.563759999999997e-05,0.008071451200000001,0.00025181299999999993,0.0024805878,0.0038777924000000007,4.435,0,0
-0.0012401008000000003,0.0057874172000000005,0.0004955239999999999,0.0008338218,-0.0004947375999999996,4.436,0,0
-0.0011476532,0.0049979531999999995,-0.000668824,-0.000495232,-0.001771676,4.437,0,0
0.0007940187999999999,0.004367908,0.0005543899999999999,-0.0008959780000000002,-0.0009648020000000001,4.438,0,0
0.0002626987999999999,-0.0016264520000000005,0.002291464,-0.0029740820000000003,-0.0042951940000000004,4.439,0,0
-0.0008256172000000001,-0.005958080000000001,0.0006904599999999999,-0.004795976,-0.0059087828,4.44,0,0
0.0011828268,-0.003811910000000001,-0.0005888340000000001,-0.0032656480000000003,-0.00046512279999999994,4.441,0,0
0.0029617220000000004,-0.0028143460000000006,-4.8722799999999946e-05,-0.000739136,0.0031256532,4.442,0,0
0.0022230500000000003,-0.002897086000000001,-0.0010490888,0.00039995599999999987,0.0021660691999999997,4.443,0,0
0.002312556,9.402999999999983e-05,-0.0016148188000000001,0.0018933440000000001,0.0026175492,4.444,0,0
0.002438196,0.0010732939999999996,-2.002079999999999e-05,0.0030368419999999997,0.0028418948000000005,4.445,0,0
-0.00014530800000000024,-0.0022815820000000003,0.0008616512,0.002044708,0.0001479967999999999,4.446,0,0
-0.00251652,-0.004141842000000001,0.0007118906,0.0009073849999999999,-0.0017718172000000003,4.447,0,0
-0.001598528,-0.0016801219999999998,0.0013019166,0.0015302410000000001,0.00023429880000000003,4.448,0,0
-0.000652684,-0.000689194,0.0015193226000000002,0.001472299,0.00012719480000000013,4.449,0,0
-0.00024835679999999987,0.0007732320000000002,-4.110539999999997e-05,0.00086907056,-2.607599999999994e-05,4.45,0,0
0.0032459732,0.006443842,-0.00036903940000000007,0.00266521656,0.004119402,4.451,0,0
0.004439345200000001,0.007368442,0.000975498,0.00322746956,0.0037292522000000007,4.452,0,0
0.0011601132000000002,0.0029972120000000004,0.0005007438,0.0009038615600000001,-0.00021251979999999983,4.453,0,0
-0.00041283680000000014,0.0014842880000000003,-0.0007012582000000001,-0.00043992244000000034,-0.0006633477999999997,4.454,0,0
-0.0006409720000000001,-0.0003133200000000002,-0.0004081282000000001,-0.0014643859999999998,-0.0022593438,4.455,0,0
-0.0022043766000000003,-0.00537296,-0.0006149562,-0.003859986,-0.0070897258,4.456,0,0
-0.0029529986000000003,-0.0061650912,-0.0030312962000000002,-0.0050049000000000005,-0.006343686,4.457,0,0
-0.0013796222000000003,-0.0025518772,-0.0036914020000000003,-0.0029031640000000006,-0.00034176599999999986,4.458,0,0
0.00023570779999999999,-0.0015267190000000004,-0.0025081540000000003,-0.0009022620000000001,0.0019146720000000003,4.459,0,0
0.00030701380000000013,-0.0017949230000000004,-0.0027632700000000004,-0.0001793000000000003,0.002573538,4.46,0,0
-9.829359999999994e-05,-0.0010026130000000003,-0.0023972326,0.0010378136,0.0040447776000000005,4.461,0,0
0.0006163504,-0.0015746678000000001,-0.0006169066000000003,0.001272843,0.0026888696,4.462,0,0
0.00040022600000000005,-0.0029727978,0.00017995798000000005,-2.4594999999999977e-05,-0.0007764004,4.463,0,0
-0.000892444,-0.001022826,0.0005043499800000001,-0.000660295,-0.0014840304,4.464,0,0
-0.00031424200000000006,0.003005964,0.00270086798,0.00021950300000000007,7.353159999999982e-05,4.465,0,0
-0.000847458,0.00319506,0.00394824058,-0.00013515459999999995,-0.001215804,4.466,0,0
-0.002038992,0.004497724,0.00265607858,8.91800000000006e-06,0.000289152,4.467,0,0
-0.001098204,0.0080917,0.0028974480000000004,0.002486088,0.003923922,4.468,0,0
-0.001462668,0.0056178059999999995,0.00325908,0.002662694,0.0011408580000000002,4.469,0,0
-0.002773274,0.0018361080000000001,0.0009224640000000002,0.0011290459999999999,-0.0019531540000000003,4.47,0,0
-0.0018953790000000002,0.0019982170000000005,-0.00023754759999999994,0.0013374548000000001,-0.0010377070000000003,4.471,0,0
-0.000489659,-0.00030307100000000024,0.0008266944,0.0009309188,-0.0030543290000000006,4.472,0,0
0.0001332010000000001,-0.004997607,0.00013879240000000002,-0.0015797132,-0.006747651,4.473,0,0
0.0018669530000000002,-0.004319823800000001,-0.0016628076000000003,-0.0020292452,-0.003169169,4.474,0,0
0.003897811,-0.0019119258000000001,-0.0010661054,-0.00015441919999999978,0.002446091,4.475,0,0
0.004014286000000001,-0.0022872268000000005,-0.0004413478000000001,0.00020662800000000026,0.002987152,4.476,0,0
0.0034071624,-0.0003675808000000001,-0.0010464448000000002,0.000175822,0.003114562,4.477,0,0
0.0035695924,0.0027246912000000005,-0.00041049140000000016,0.0008294763999999999,0.0040928380000000006,4.478,0,0
0.0029916383999999997,0.0006300400000000001,0.00028598360000000006,0.0004058443999999998,0.001922394,4.479,0,0
0.0011181164,-0.00315212,-0.0006652725999999999,-0.0007885996000000001,-0.0017755880000000003,4.48,0,0
0.0007761418000000003,-0.002267804,-0.0017800946,-0.0005595856000000001,-0.0011328500000000001,4.481,0,0
0.0008542606000000003,-0.0022575536,-0.0016926058,0.0002857964,0.000291566,4.482,0,0
-0.0009906474,-0.0039809138,-0.0030893472,-0.00056458,-0.0012112840000000002,4.483,0,0
-0.0010277613999999998,0.0009498782000000004,-0.004470686200000001,0.000160728,0.001552208,4.484,0,0
0.00011420859999999999,0.0059275382000000005,-0.0021310922000000003,0.0018550380000000003,0.00397822,4.485,0,0
-0.0015481908,0.0039187202,-0.00012489620000000006,0.000339198,-0.0003933879999999997,4.486,0,0
-0.003451888,0.0027746277999999994,-0.00011558200000000009,-0.00116968,-0.002405374,4.487,0,0
-0.004113500000000001,0.00237654,0.001733804,-0.0006899920000000002,-0.0016218320000000004,4.488,0,0
-0.0060836480000000005,-0.002287574,0.003979676000000001,-0.0017520360000000002,-0.004809470000000001,4.489,0,0
-0.007587608,-0.005559838000000001,0.002979802,-0.003671292,-0.0068432064,4.49,0,0
-0.004942032000000001,-0.0027224480000000006,0.0015618793199999998,-0.002317632,-0.0014253064,4.491,0,0
-0.0013881020000000004,-0.0009112600000000001,0.0023942233199999996,-0.00017267200000000002,0.0028393116000000004,4.492,0,0
0.0002975239999999993,-0.002301958,0.00249542332,0.0001903396,0.0026675376000000004,4.493,0,0
0.0027117219999999997,-0.001257308,0.0016913747200000002,0.0005220836,0.0035950716000000007,4.494,0,0
0.0052342940000000004,-0.0001307659999999999,0.00199696472,0.0008035736000000001,0.0036489990000000004,4.495,0,0
0.0053151299999999995,-0.002075876,0.001960045,-0.00023490639999999998,0.000564749,4.496,0,0
0.00405574,-0.0028755794,0.000497535,-0.0016319004,-0.0020797606,4.497,0,0
0.0036589508,-0.0005363474000000002,-0.000617681,-0.00110085,-0.0005842786,4.498,0,0
0.0030074694,-0.0004430634,-0.00041759640000000003,-0.0005042654,-0.0008160706000000002,4.499,0,0
0.0016221768,0.00017749460000000014,-0.0021142484,-0.0007441034,-0.0013698356000000002,4.5,0,0
0.0015539468000000001,0.0056612826,-0.0033975040000000004,0.0011047846000000001,0.0026015144000000002,4.501,0,0
0.001188777,0.007198842,-0.0017329320000000002,0.0023503326000000003,0.002947874,4.502,0,0
-0.0005135158,0.005031308,-0.0012479238000000002,0.0005119426000000002,-0.0005999600000000001,4.503,0,0
-0.0013272384000000003,0.006622038,-0.001403046,-0.00033209799999999964,-0.00042041599999999985,4.504,0,0
-0.0018418018,0.0057086486,0.0004249599999999999,-0.00018612599999999967,6.0117400000000076e-05,4.505,0,0
-0.0036473738000000005,-0.00035455739999999984,0.0018058634,-0.0019210059999999998,-0.0033575026000000003,4.506,0,0
-0.004144572,-0.0021011858,0.0005939033999999999,-0.0027681876,-0.0028523405999999994,4.507,0,0
-0.0015152980000000002,0.0008671722000000003,0.0005474486000000001,-0.0002108975999999998,0.0025575794,4.508,0,0
0.0004742479999999998,0.0002930582000000002,0.0011490008,0.0018209604,0.0036892694,4.509,0,0
0.0008413240000000001,-0.0018158484,-3.2379200000000146e-05,0.0020340288,0.002264542,4.51,0,0
0.0017051754000000003,-0.0024502964000000004,-0.00045813260000000013,0.0026350542,0.0028281884000000003,4.511,0,0
0.0019736972000000005,-0.005088332000000001,-7.181520000000018e-05,0.0024184264,0.0014774724,4.512,0,0
0.0006640238000000001,-0.007795464,-0.0006181546000000002,0.0005650644000000002,-0.0024822516000000006,4.513,0,0
0.00022693980000000006,-0.006972960000000001,-0.0017555906000000002,-0.0009750824000000001,-0.003201385600000001,4.514,0,0
0.0014010278,-0.0030157720000000003,-0.0009941785999999998,-0.0008043458,-0.0012718376000000003,4.515,0,0
0.0008273544,-0.0015443260000000004,-6.718259999999993e-05,-0.0011595792,-0.0025651520000000002,4.516,0,0
9.530059999999997e-05,0.00148917,-0.001044742,-0.0011710776000000002,-0.0013367920000000003,4.517,0,0
0.000921736,0.005646656,-0.0001552119999999999,0.0007181084000000001,0.0030367720000000005,4.518,0,0
-0.0004473340000000001,0.00274825,0.0017168360000000002,0.0009294659200000001,0.0016403800000000003,4.519,0,0
-0.002428082,-0.0005518419999999999,0.0010910980000000002,-0.0005333210800000001,-0.0011436899999999997,4.52,0,0
-0.0017422772,0.00040136199999999983,0.0003645682000000002,-0.00042482708000000013,0.0007156680000000004,4.521,0,0
-0.0013438812000000002,-7.077199999999998e-05,0.0019223342000000004,-0.0005721852800000001,-0.0004388199999999998,4.522,0,0
-0.0030588012000000004,-0.004747312,0.0013203980000000002,-0.00250912128,-0.0037442995999999997,4.523,0,0
-0.0031154932,-0.0021258559999999998,-0.0003623420000000001,-0.0022375560000000004,-0.0009595855999999995,4.524,0,0
-0.0009855832000000002,0.00058157,-0.00022183800000000013,-0.0008646980000000002,0.0004955984,4.525,0,0
-0.00021178600000000005,0.0003829880000000001,-0.0021818242000000002,8.05039999999999e-05,0.0008430524,4.526,0,0
-0.000357676,0.009928406,-0.0036014162,0.002085236,0.0030029704,4.527,0,0
0.00012375799999999996,0.018079186,-0.0024929500000000003,0.002007364,-0.0013031500000000003,4.528,0,0
-0.0006074440000000002,0.016321130000000003,-0.0018995832000000003,-0.0006891900000000001,-0.008941985999999999,4.529,0,0
-0.0025481260000000004,0.012024628000000002,-0.0019773772000000003,-0.0026211399999999997,-0.01016251,4.53,0,0
-0.0026844660000000004,0.007199354000000002,3.386400000000053e-06,-0.0034477646,-0.0076721540000000005,4.531,0,0
-0.0011239120000000001,-0.0048674059999999995,0.0006703251999999999,-0.0033577946,-0.00406018,4.532,0,0
0.0017026880000000006,-0.013239946,-0.0005322608,0.0001549434000000004,0.00605012,4.533,0,0
0.004938322,-0.01693076,0.0009170024000000002,0.0045314454,0.013694891999999998,4.534,0,0
0.005932656400000001,-0.02242658,0.0014197244000000004,0.0052982934,0.011018192,4.535,0,0
0.0062788084000000004,-0.02222026,0.0001441788000000003,0.00476614,0.007680926999999998,4.536,0,0
0.007678462400000001,-0.018178272,-3.7977999999997216e-06,0.005489728,0.008120127000000001,4.537,0,0
0.007603982400000001,-0.013494891999999998,0.0005045602000000002,0.005527848,0.0063945270000000005,4.538,0,0
0.0062508164,-0.006335651999999997,-0.0001908337999999999,0.004818814,0.004358465000000001,4.539,0,0
0.005229982,0.005338488000000001,-8.817999999999413e-07,0.006091294400000001,0.006834985,4.54,0,0
0.002816306,0.013869268,0.0019456722,0.006434852400000001,0.005663066,4.541,0,0
-0.0011051399999999997,0.0177104,0.0020409708000000003,0.0034921284000000007,-0.0006494620000000003,4.542,0,0
-0.0043954300000000005,0.02239856,0.0013658048,0.0011315904000000002,-0.003320028,4.543,0,0
-0.006225378,0.024413360000000002,0.0019876988000000003,0.00016946240000000013,-0.003174416,4.544,0,0
-0.008113776,0.020611866000000003,0.0026619528000000003,-0.0019908160000000003,-0.0062872760000000005,4.545,0,0
-0.010149374,0.013962566000000003,0.0018155168000000004,-0.004972462,-0.011158312000000002,4.546,0,0
-0.01030749,0.007671022000000003,0.0013847240000000004,-0.00649158,-0.011901346000000002,4.547,0,0
-0.009530444,-0.0014450719999999993,0.0020664800000000003,-0.007444664,-0.011161360000000002,4.548,0,0
-0.008782234000000002,-0.009833192000000001,-0.00035556999999999993,-0.007401076000000001,-0.007747622000000001,4.549,0,0
-0.005350726,-0.011764118,-0.00206599,-0.0036377960000000013,0.0015809379999999992,4.55,0,0
-0.0011023699999999999,-0.014887578000000002,-0.00011050799999999983,-0.0002747018000000002,0.005827092000000001,4.551,0,0
7.216799999999995e-05,-0.021550354,-0.0003535559999999999,-0.0005919598000000002,0.002878034,4.552,0,0
0.002043566,-0.022055520000000002,-0.0026640960000000003,-0.0004129598000000001,0.0030415939999999995,4.553,0,0
0.005993634,-0.016361060000000004,-0.0023991900000000003,0.0010522721999999998,0.0050378739999999995,4.554,0,0
0.008229306,-0.01153916,-0.0018016351800000004,0.0009009802000000001,0.003497774,4.555,0,0
0.00973559,-0.00360818,-0.003701773180000001,0.0008158491999999997,0.003493425999999999,4.556,0,0
0.011872676000000002,0.00806134,-0.003376649180000001,0.0026132172,0.0062204520000000004,4.557,0,0
0.010538636000000002,0.014196840000000002,-0.00123076438,0.0025097172,0.003463184,4.558,0,0
0.005752130000000001,0.016651900000000004,-0.00084100638,0.0003766912,-0.0016355666000000002,4.559,0,0
0.0018189139999999998,0.0202243,-0.0002515191999999999,-0.0002731127999999999,-0.0021351486000000005,4.56,0,0
-0.0025444860000000003,0.019548606000000003,0.0016641188000000003,-0.0004053802,-0.0025884146000000005,4.561,0,0
-0.007770168000000001,0.013027026,0.0029376428000000006,-0.0022538882,-0.0065974806,4.562,0,0
-0.010395322000000002,0.006210246,0.0028677380000000003,-0.0048973262,-0.0096770126,4.563,0,0
-0.0091468724,-4.043800000000093e-05,0.0031764924000000005,-0.0060034962,-0.00912713,4.564,0,0
-0.006857630399999999,-0.008049998000000001,0.0029925504,-0.0066133562,-0.008752687999999998,4.565,0,0
-0.002731350400000001,-0.01171394,0.0011146484000000001,-0.005424652,-0.0037657079999999987,4.566,0,0
0.0034843495999999996,-0.010796638,0.0012306784000000002,-0.0010251320000000002,0.004791132,4.567,0,0
0.006140719600000001,-0.014356898,0.0028718684000000006,0.0016354820000000004,0.005257132000000001,4.568,0,0
0.00561921,-0.017867514,0.0014320760000000004,0.0014276420000000005,0.0022770200000000003,4.569,0,0
0.005473604,-0.015258852000000002,-0.0009837939999999996,0.002006378,0.0034544600000000008,4.57,0,0
0.004998444,-0.011728254,-0.001809492,0.002903708,0.0037969600000000003,4.571,0,0
0.003153902,-0.008335224000000002,-0.003054532,0.00244356,0.0018009179999999997,4.572,0,0
0.0019157119999999998,-0.00019745200000000074,-0.004713872600000001,0.003442786,0.004063992,4.573,0,0
0.00158967,0.008958908000000002,-0.0033374986599999995,0.0055526,0.0066690351999999994,4.574,0,0
-0.0006483059999999998,0.012813666000000001,-0.00127279086,0.0046145816,0.0032661316,4.575,0,0
-0.0036145780000000002,0.014693124,-0.0014273868600000001,0.0022835636000000004,4.421160000000011e-05,4.576,0,0
-0.00476176,0.016565632,-0.0012302798600000002,0.0010741856,-0.00020045239999999997,4.577,0,0
-0.005039774,0.015367426,-0.00018629726000000003,-0.0007940543999999999,-0.0022592064000000003,4.578,0,0
-0.005997476,0.009826146,2.294480000000003e-05,-0.0038820724000000004,-0.0066551296,4.579,0,0
-0.006561498000000001,0.0039922659999999995,-0.000585697,-0.005755126000000001,-0.008193354,4.58,0,0
-0.005575386000000001,-0.0006324719999999996,0.0006531112000000001,-0.005843246000000001,-0.0069796020000000005,4.581,0,0
-0.004421058,-0.005760594,0.0011503002000000002,-0.006008068000000001,-0.005875722,4.582,0,0
-0.0016877480000000002,-0.006688528,0.00045560620000000007,-0.0038673820000000012,0.00023241799999999943,4.583,0,0
0.0020967880000000005,-0.00683607,0.0024019942,0.00018851199999999984,0.006023506,4.584,0,0
0.0038768670000000004,-0.011143050000000002,0.0038846441999999997,0.001116536,0.003609573999999999,4.585,0,0
0.005200061000000001,-0.013208552,0.002576854,0.0006292440000000002,0.0017066440000000002,4.586,0,0
0.006825077000000001,-0.010681262,0.0014123699999999998,0.002083152,0.00307783,4.587,0,0
0.006102327,-0.008938378,0.0010401932,0.0029044759999999996,0.0018485919999999998,4.588,0,0
0.0033164109999999996,-0.006636144,-0.0012009570000000001,0.0019190239999999996,0.0005108016000000001,4.589,0,0
0.0025146859999999995,0.0013639659999999999,-0.0028751650000000003,0.0028729614,0.0040515116,4.59,0,0
0.0015452347599999997,0.007635546,-0.0018096030000000001,0.0044162514,0.0053153416,4.591,0,0
-0.0017478132400000003,0.009232358000000001,-0.0011440498000000001,0.0032080854000000004,0.0016980836,4.592,0,0
-0.003268009240000001,0.012057042,-0.001479175,0.0016991454000000001,0.0005101396,4.593,0,0
-0.0027147012400000003,0.013983950000000002,-0.0006619948000000002,0.0014624514000000002,0.000628322,4.594,0,0
-0.0034347252400000004,0.01044838,0.0008379791999999999,0.00018796600000000013,-0.0023794080000000004,4.595,0,0
-0.005495268000000001,0.004947199999999999,0.0010881399999999998,-0.002584304,-0.0061305000000000005,4.596,0,0
-0.005801166000000001,0.0013145059999999998,0.0012995531999999998,-0.004106594,-0.0056831444,4.597,0,0
-0.004662128,-0.00384054,0.0020501131999999997,-0.004296994,-0.0048477544,4.598,0,0
-0.003432572000000001,-0.007782830000000001,0.0010300812,-0.004090328,-0.0032903884,4.599,0,0
6.98360000000002e-05,-0.006039224,0.00020092599999999998,-0.0011184340000000002,0.0037490116,4.6,0,0
0.004325876,-0.005521418,0.0017501012,0.0021173880000000004,0.006716447600000001,4.601,0,0
0.005912738000000001,-0.008618523999999999,0.0019517688000000003,0.0016948000000000006,0.0026955899999999994,4.602,0,0
0.006541024,-0.0075406668,0.0008553647999999998,0.001127108,0.0017500999999999997,4.603,0,0
0.007187886000000001,-0.0035681368,0.0012414552,0.0018891060000000006,0.0024419739999999995,4.604,0,0
0.0055900640000000005,-0.0026394127999999997,0.0008334043999999997,0.0012209460000000005,-0.0007991040000000006,4.605,0,0
0.003107718,0.0005259252000000005,-0.0017616076,0.0002891190000000001,-0.0016852440000000005,4.606,0,0
0.0026320532000000006,0.0083780052,-0.0027856016,0.002176567,0.0024939162,4.607,0,0
0.0013519552,0.012390034000000001,-0.0022539342,0.003631597,0.0025197462000000003,4.608,0,0
-0.0013175468,0.013234854,-0.0030725706000000004,0.002444165,-0.00046249379999999986,4.609,0,0
-0.0027663048,0.014378604,-0.0031180586,0.001828851,-1.8947799999999792e-05,4.61,0,0
-0.0037691068,0.010765720000000001,-0.0015706765999999998,0.0015668432,-0.00017691579999999977,4.611,0,0
-0.005148746000000001,0.0039168000000000015,-0.0005764626,-0.0004771508,-0.003972516,4.612,0,0
-0.005770984000000001,-0.001625994,-0.00031784899999999993,-0.0028710408,-0.0064154,4.613,0,0
-0.0044032552,-0.006007492,0.000895187,-0.0029213328000000003,-0.004231912000000001,4.614,0,0
-0.0029436512000000003,-0.009351844,0.0018861349999999997,-0.0029145688,-0.003346666,4.615,0,0
-0.0010154412000000002,-0.008652341999999999,0.0005891249999999999,-0.0026266232000000003,-0.0003316199999999995,4.616,0,0
0.0026061468000000004,-0.006258986,0.0007381009999999999,0.0004529228000000002,0.006506400000000001,4.617,0,0
0.0045562568,-0.007560092000000001,0.0022860140000000003,0.0019203592200000002,0.006272176,4.618,0,0
0.0042179821999999995,-0.009100454000000001,0.0009679859999999999,0.0006184092200000001,0.002059948,4.619,0,0
0.0041289982,-0.007788252,-0.00031492,0.0004849532200000002,0.00226407,4.62,0,0
0.0035933648000000006,-0.0065122900000000004,0.000842968,0.0008030844200000001,0.0019562,4.621,0,0
0.0010740708000000002,-0.006471696000000001,0.0006181840000000001,-0.00047704838,-0.0014767380000000002,4.622,0,0
-0.0008632532000000001,-0.0034509306000000003,-0.0012061060000000002,-0.0005792676,-0.00028606,4.623,0,0
-0.0009941194,0.0013251294000000001,-0.0006980319999999999,0.0012316044,0.0031587180000000005,4.624,0,0
-0.0015944914,0.0035173794000000003,-2.1903999999998833e-06,0.0017003604,0.001800336,4.625,0,0
-0.0023003420000000004,0.006185495399999999,-0.0011758204,0.00137311,0.00015692179999999997,4.626,0,0
-0.0017723920000000005,0.0096788454,-0.0014493256,0.0015879648000000001,0.0009946498,4.627,0,0
-0.001400358,0.00990395,-0.0008290956,0.0010530936,-0.00024270819999999997,4.628,0,0
-0.002862898,0.006718094000000001,-0.0008864956000000002,-0.0010769444,-0.0042588262,4.629,0,0
-0.003989548000000001,0.004930464,-0.0012107372,-0.0030590444000000005,-0.005526220200000001,4.63,0,0
-0.003086184,0.004756184,-0.00014775919999999998,-0.003251692,-0.003963760000000001,4.631,0,0
-0.0031513512000000002,0.0020174340000000002,0.00012059600000000005,-0.0032542299999999994,-0.0038031980000000007,4.632,0,0
-0.0025123712000000003,0.001241474,-0.001074558,-0.0018465739999999997,0.00030552199999999926,4.633,0,0
0.0009471248,0.001746984,0.00013971200000000017,0.001546866,0.005544042000000001,4.634,0,0
0.0030389508,-0.0034101060000000004,0.0016146940000000003,0.00215067,0.0033897019999999996,4.635,0,0
0.0034234088,-0.008382846,0.0005646320000000002,0.00028721400000000005,0.0006200480000000006,4.636,0,0
0.004601466,-0.007579834,0.00043208540000000005,0.00031758000000000025,0.0014772119999999999,4.637,0,0
0.0048725420000000005,-0.006033984,0.0017558674,0.000597102,0.0001966120000000003,4.638,0,0
0.002693278,-0.0045186639999999995,0.0008792615999999999,-0.0008937039999999997,-0.002506444,4.639,0,0
0.0006066019999999997,0.0007813480000000006,-0.00045036240000000013,9.484600000000005e-05,0.0006141256,4.64,0,0
-0.0011769959999999998,0.004134582,0.0006899915999999998,0.00296297,0.0037897156,4.641,0,0
-0.0034152060000000005,0.0034037048800000004,0.0005769745999999998,0.0028454200000000004,0.0018464416,4.642,0,0
-0.004142514,0.00367879488,-0.0011380314000000002,0.002094578,0.0007101936000000002,4.643,0,0
-0.0034736964,0.00339951688,-0.0013252196,0.0024602860000000003,0.0010190596,4.644,0,0
-0.0029629504000000004,0.0008864788799999995,-0.0011757720000000003,0.0013291040000000002,-0.00136601,4.645,0,0
-0.0029073904000000003,-0.00134234512,-0.0019064620000000003,-0.000705448,-0.005111694,4.646,0,0
-0.0011689603999999998,-0.0012705376000000002,-0.0015728684000000006,-0.0011921704000000001,-0.004653624800000001,4.647,0,0
0.0019707536,-0.0015695796,0.00047739360000000004,-0.0010831264,-0.0030692148000000005,4.648,0,0
0.0037876500000000005,-0.0017434755999999997,0.0007540684000000001,-0.0013356364,-0.0012796328000000009,4.649,0,0
0.006131758000000001,0.0026908904000000006,0.0007988422,0.0005832096000000001,0.0044403472,4.65,0,0
0.008385812,0.005729160400000001,0.0025651782000000005,0.0022029896,0.0066200632,4.651,0,0
0.006553960000000001,0.0025378680000000004,0.0022229108000000005,0.00031011600000000004,0.0023637119999999996,4.652,0,0
0.00294085,0.0003548760000000007,0.0004683288000000001,-0.0014890440000000001,0.00038703199999999907,4.653,0,0
0.001250182,0.00032761400000000005,0.0009441460000000003,-0.0016560192000000002,-0.00019810000000000118,4.654,0,0
-0.00012016720000000006,-0.0025155306,0.0020546686,-0.0025249452000000003,-0.003892454000000001,4.655,0,0
-0.0018965432000000002,-0.0041402966,0.0011882506000000003,-0.0031531492,-0.004528728000000001,4.656,0,0
-0.0016201972000000002,-0.0009918519999999999,0.000894116,-0.0005897891999999999,0.000901512,4.657,0,0
-0.0008778272,0.000542294,0.0017818949400000002,0.0021359448,0.00405743,4.658,0,0
-0.0018605572000000002,-7.450939999999999e-05,0.00123183294,0.0023676039999999997,0.0029323942,4.659,0,0
-0.0024928240000000003,0.0009078752000000001,-6.259706000000007e-05,0.002365636,0.0022440961999999997,4.66,0,0
-0.0017296960000000002,0.0011062934,-0.00021414505999999998,0.0022629137999999995,0.0005073721999999999,4.661,0,0
-0.001459084,0.00023438080000000023,3.450194000000005e-05,0.0008293958000000002,-0.0034074478000000004,4.662,0,0
-0.0026792960000000003,9.398800000000117e-06,-0.000506141,-0.0011722062,-0.0063892898000000005,4.663,0,0
-0.002722878,0.00026095100000000015,-0.000972221,-0.0018766422,-0.005453168,4.664,0,0
-0.0019091920000000003,-0.0012967809999999999,-0.0012240649999999999,-0.0024175822,-0.004027132,4.665,0,0
-0.00211966,-0.0018888572,-0.0029156610000000004,-0.002667254,-0.000902246,4.666,0,0
-0.0016411514000000003,-0.0005358352000000001,-0.0035182460000000005,-0.0005933,0.0049824940000000005,4.667,0,0
-0.0010107014000000003,-0.0032041552000000003,-0.0022937420000000005,0.000534992,0.004551034000000001,4.668,0,0
-0.0012910314,-0.006601542000000001,-0.0028875460000000004,-0.000429144,0.0008430679999999993,4.669,0,0
-0.0014631018000000001,-0.005849754600000001,-0.0032882980000000003,-0.000600166,0.0010887740000000003,4.67,0,0
-0.0008662898000000001,-0.0045786906,-0.001764564,-0.000586194,0.0002999107999999999,4.671,0,0
-0.00012958639999999992,-0.0045513646,-0.0011609146,-0.0019681179999999996,-0.003473689200000001,4.672,0,0
0.0011234156000000002,-0.00025117460000000005,-0.0018056062000000002,-0.002656672,-0.0024906456000000003,4.673,0,0
0.0029327376000000006,0.0062628854,-9.072620000000003e-05,-0.001170746,0.0019809384,4.674,0,0
0.0032433820000000004,0.008155134000000001,0.0024178878,-7.444199999999987e-05,0.0020953344,4.675,0,0
0.0030200280000000006,0.009444862,0.0028188638,0.00024309740000000006,0.0015467496000000002,4.676,0,0
0.003258728,0.010605602,0.0033294904,0.0006500934000000002,0.0026912236000000006,4.677,0,0
0.0024169736,0.007349484,0.003995810000000001,-2.4466600000000102e-05,0.0012345020000000004,4.678,0,0
0.0007497815999999998,0.0024729259999999994,0.0031385339999999997,-0.0020961306,-0.0027205420000000003,4.679,0,0
-0.00028605440000000024,-3.8430000000000105e-05,0.0009733940000000001,-0.0037025226,-0.004106736,4.68,0,0
-0.0008204432000000002,-0.00224893,0.0001725569999999999,-0.0036668508,-0.002620204,4.681,0,0
-0.0021424952,-0.00528494,-0.00047798900000000006,-0.0036295227999999994,-0.0030537000000000003,4.682,0,0
-0.0018066961999999998,-0.0038346632,-0.002235157,-0.0018212667999999996,4.00960000000001e-05,4.683,0,0
0.00029033580000000013,-0.0016540652000000002,-0.0013474210000000001,0.0019738192,0.004936716,4.684,0,0
-6.989819999999995e-05,-0.0046934732,0.0005933070000000001,0.0030021228,0.0025428839999999996,4.685,0,0
-0.0012109273999999998,-0.0066806212,0.00041824600000000005,0.0024488736,-0.00010286600000000007,4.686,0,0
-0.0008026891999999998,-0.0050991752,0.0005399224000000002,0.0027842736,0.0011074679999999995,4.687,0,0
-0.0007074438,-0.004628584,0.0020434024000000003,0.0018296506000000001,-0.0008344280000000003,4.688,0,0
-0.0016733018000000001,-0.004054388000000001,0.0014863638000000001,-0.00044630740000000004,-0.004114716,4.689,0,0
-0.0009684437999999999,0.00027094399999999996,-0.0006492082,-0.00039763220000000004,-0.0006768380000000001,4.69,0,0
0.0010840922000000001,0.003745404,-0.00041028900000000004,0.0013141098000000002,0.003176202,4.691,0,0
0.0012509440000000001,0.003933608000000001,6.74565999999999e-05,0.0013944218000000001,0.0022198659999999996,4.692,0,0
0.00031530800000000004,0.004178136,-0.0006147514000000001,0.0018346988000000001,0.0025276796,4.693,0,0
8.064600000000126e-06,0.004231852,5.153199999999888e-06,0.0031667808000000004,0.0037324896,4.694,0,0
-0.0004946174000000001,0.0024033480000000005,0.0014420752,0.0028132179999999997,0.0016383495999999997,4.695,0,0
-0.0015428754000000001,-0.00019444800000000006,0.001111674,0.0008863139999999999,-0.0019126124000000003,4.696,0,0
-0.0004016734000000001,-0.0004994375999999999,-0.00022475800000000014,-0.0002780780000000002,-0.0022504482,4.697,0,0
0.0018660326,-0.0008909196,0.0003415399999999999,-0.0007663136000000002,-0.0024410258,4.698,0,0
0.002508264,-0.0020491346,-0.0002826112,-0.0017561456000000002,-0.0029963294,4.699,0,0
0.0038700640000000003,0.0010373574000000002,-0.0017150072000000002,-0.0003486496000000001,0.0013553725999999999,4.7,0,0
0.004423872000000001,0.0030232534,-0.00031499719999999987,0.0016462923999999999,0.0036253986000000004,4.701,0,0
0.0015435180000000007,-0.00017041699999999996,0.00019841279999999992,0.0007753484000000001,0.0002635383999999995,4.702,0,0
-0.001315704,-0.0015866490000000003,-0.0016713392,-0.0001392679999999999,-0.00038153159999999983,4.703,0,0
-0.002630576,-0.0012336600000000001,-0.0018215622000000002,-5.2720400000000214e-05,4.663400000000004e-05,4.704,0,0
-0.0031809572000000004,-0.0027303160000000004,-0.0009694256000000001,-0.0012839373999999999,-0.003437716000000001,4.705,0,0
-0.0029685232,-0.0015178640000000007,-0.0022169296,-0.0028870054,-0.004991270000000001,4.706,0,0
-0.0013089054000000003,0.003735636,-0.0021122016,-0.00146833,-0.00049924,4.707,0,0
0.0001568358,0.005299576,-0.00021625559999999993,0.000687966,0.0019009440000000001,4.708,0,0
-0.0005586902000000002,0.003449928,-4.3235999999999963e-05,0.0009003044000000001,0.000688326,4.709,0,0
-0.0013764150000000002,0.00253025,6.2694000000001e-06,0.0010444174,0.0013072804,4.71,0,0
-0.0012567530000000002,0.00041822600000000006,0.0013794874000000001,0.0015511658000000002,0.0014550084,4.711,0,0
-0.0011903068,-0.002896478,0.0019938374,0.0007526944000000003,-0.0011793376000000001,4.712,0,0
-0.0006885079999999999,-0.003011604,0.0013376554000000002,-0.0009819456,-0.0028501974,4.713,0,0
0.002194428,0.0001733259999999999,0.0013673758000000004,-0.0010192276,-0.0007838813999999999,4.714,0,0
0.003851932,0.0006251066400000001,0.0016997378000000005,-0.0007422135999999999,-0.0005482827999999998,4.715,0,0
0.002684766,0.00166505064,0.00014227380000000005,-0.0009066301999999998,0.0002287732000000003,4.716,0,0
0.0025758332,0.00630415464,-0.0006949562,0.0013158718000000002,0.0046099692,4.717,0,0
0.0010614971999999999,0.004376350640000001,0.0005979998000000002,0.0025819078000000003,0.0038553290000000002,4.718,0,0
-0.0026729908000000004,-0.002488157359999999,0.0004218720000000001,0.0011051338,-7.609300000000017e-05,4.719,0,0
-0.003945190800000001,-0.0041397299999999995,-0.0003911399999999999,0.0008506686,0.00031307199999999985,4.72,0,0
-0.0027478548,-0.005693836,0.0008994360000000001,0.0009610203999999998,-2.5067600000000254e-05,4.721,0,0
-0.002426318,-0.009687974000000002,0.0017399260000000001,-0.0012016016000000003,-0.0042637196,4.722,0,0
-0.001030706,-0.006975407999999999,-3.834200000000002e-05,-0.0023484836000000004,-0.0038171256000000004,4.723,0,0
0.0022278520000000002,-3.4267999999999625e-05,-0.000539994,-0.00024159560000000004,0.0012443944,4.724,0,0
0.002853668,0.0017102372000000002,5.776200000000002e-05,0.0007547355999999999,0.0021088464000000003,4.725,0,0
0.001385294,0.0016130332000000003,-0.00135986,0.0004710699999999999,0.0012393220000000002,4.726,0,0
0.0010037162000000003,0.0022840138000000004,-0.0021078819999999997,0.0013200485999999999,0.002423334,4.727,0,0
0.0007950222000000001,0.0003917818000000002,-0.0014064767999999999,0.0015907978000000002,0.0017461859999999998,4.728,0,0
-0.0006178338,-0.0026249742,-0.0018061967999999998,-0.00021663420000000001,-0.0017867780000000002,4.729,0,0
-0.0010376972,-0.0028782116,-0.0026916008,-0.0017124642000000002,-0.0031785771999999998,4.73,0,0
-7.049440000000005e-05,-0.0011424016000000001,-0.0017368488000000003,-0.0011074122,-0.0016012231999999998,4.731,0,0
-0.0008826826000000001,-0.0020644502000000003,-0.0008954767999999999,-0.0014826708,-0.0020411652000000002,4.732,0,0
-0.0017437786000000003,-0.0008689622000000001,-0.001304026,-0.0012604166000000003,0.00029245279999999974,4.733,0,0
-0.0007553686,0.0032352538000000003,0.000304932,0.0014549454,0.0047107968,4.734,0,0
-0.0010732692,0.0032301654000000003,0.00218005,0.0019983358,0.002508756,4.735,0,0
-0.0015062800000000002,0.0019969534000000002,0.0016383172,0.0005414098000000001,-0.0006094080000000005,4.736,0,0
0.0003996380000000001,0.0029037158000000006,0.0014431886,0.0008957535999999999,0.0004278019999999995,4.737,0,0
0.001579554,0.0015048378000000005,0.0023721366,0.0009303762,-0.0011110880000000005,4.738,0,0
0.0010653995999999998,-0.0022511761999999998,0.0016946986,-0.0012409958,-0.005008598,4.739,0,0
0.001640222,-0.0018761816,5.8592599999999985e-05,-0.0014194136,-0.002268318,4.74,0,0
0.002358504,0.0002839924,0.000401724,0.0009200944000000001,0.0021417220000000004,4.741,0,0
0.000898804,0.00047887199999999976,0.0007542406,0.0016554286000000002,0.0018685100000000003,4.742,0,0
-0.0003299499999999999,0.0019659639999999997,5.463460000000006e-05,0.0014340914,0.0021593208,4.743,0,0
-6.913159999999999e-05,0.0038809560000000005,0.0004900266000000002,0.0018596006,0.0028339416,4.744,0,0
-0.0002577708,0.0028250280000000003,0.0014199486,0.0013567320000000003,0.0005852615999999999,4.745,0,0
-0.0008991308,0.0012483237999999998,0.0012164894000000002,-0.0004554960000000001,-0.0021386884000000003,4.746,0,0
-0.0004374728,0.0022933218000000003,0.0008830556000000001,-0.001287756,-0.0018209384,4.747,0,0
0.0004511152,0.0019509938,0.0018060016,-0.0010569348,-0.0015980260000000002,4.748,0,0
-2.1556799999999997e-05,-2.666419999999988e-05,0.0011218156,-0.00210086,-0.0024861568,4.749,0,0
0.0005485080000000001,0.0021219498,-0.0008046364000000001,-0.0016483626,0.0011187892000000003,4.75,0,0
0.001974416,0.0027423680000000002,-0.0008543836000000002,-2.7738600000000013e-05,0.0036986012,4.751,0,0
0.0009835820000000002,-0.001600386,-0.0015901718000000003,-0.0011390445999999999,0.00023615519999999968,4.752,0,0
-0.0001821459999999999,-0.002416762,-0.0038843178000000003,-0.0020347105999999997,-0.0009444520000000004,4.753,0,0
0.0004136160000000001,-0.0007324559999999997,-0.004296489800000001,-0.0008166546,0.00036540599999999965,4.754,0,0
-0.0002549599999999999,-0.00318813,-0.0034439518,-0.0008528501999999999,-0.0024468000000000007,4.755,0,0
-0.0021430700000000004,-0.005528734,-0.004051588,-0.0019961338,-0.0045590162,4.756,0,0
-0.0011812608,-0.0024607276,-0.0037829720000000003,-0.00035933379999999993,0.00017584380000000002,4.757,0,0
0.0006554432000000001,-0.0009802716,-0.0013996460000000005,0.0018231862000000001,0.0035073837999999996,4.758,0,0
0.00026288080000000006,-0.0025950596,-7.00220000000001e-05,0.0018323682,0.0026240637999999997,4.759,0,0
4.2850799999999986e-05,-0.0016539356,0.0010151679999999999,0.0022136684000000004,0.0034613732,4.76,0,0
0.0006799846000000001,-0.00011957440000000003,0.0034337400000000002,0.00303021,0.0035248766,4.761,0,0
-0.00020113659999999986,-0.0011783428,0.00474206,0.0015674439999999999,-0.0003905234000000006,4.762,0,0
