bandpass 1,bandpass 2,bandpass 3,bandpass 4,bandpass 5,time,onset,mark
0.0037380340000000003,0.00703934,-0.001189185,-0.006079604000000001,-0.0020274588,4.428,1,1
0.004864914,0.00987652,-0.000945753,-0.007495408,-0.0016120668,4.429,0,0
0.005801798,0.01219574,-0.000919265,-0.008934966,-0.0013239048,4.43,0,0
0.005338884,0.011019669999999999,0.00022823100000000002,-0.009712562000000001,-0.0007779487999999999,4.431,0,0
0.00424831,0.009974681999999999,0.001854405,-0.009993362000000002,-0.0008742947999999999,4.432,0,0
0.0038844120000000003,0.007739480200000001,0.00202492,-0.010123902,-0.0015273099999999998,4.433,0,0
0.0030574160000000003,0.0020848802,0.001351928,-0.009829112000000001,-0.0017530176,4.434,0,0
0.0012505720000000006,-0.0051080197999999995,0.0011609474,-0.00838868972,-0.0013592256,4.435,0,0
-0.000267344,-0.0109452898,-4.434600000000196e-06,-0.00572495372,-0.00045227559999999985,4.436,0,0
-0.002077528,-0.015898021800000002,-0.0017063206,-0.00397799972,0.00018574240000000005,4.437,0,0
-0.0050650980000000005,-0.01893754,-0.0014669106000000003,-0.004163379720000001,-0.00021963760000000005,4.438,0,0
-0.00684117,-0.017782016,0.0009918293999999998,-0.00466740572,-0.00125289,4.439,0,0
-0.00709406,-0.01319642,0.004731262,-0.005882844000000001,-0.002243146,4.44,0,0
-0.006731028,-0.007113257999999999,0.00865647,-0.006273012600000001,-0.0020492419999999997,4.441,0,0
-0.005591492,9.1982e-05,0.012732684000000001,-0.0022579266000000006,-0.00012782199999999987,4.442,0,0
-0.00348765,0.0074550219999999995,0.017011480000000002,0.0050934134,0.0026863020000000002,4.443,0,0
-0.0007487800000000001,0.014002398,0.0189548,0.0115361134,0.00463945,4.444,0,0
0.0018267280000000003,0.018670222,0.01746944,0.016778467400000004,0.0056757299999999995,4.445,0,0
0.003823142,0.0195457,0.01155098,0.020455760000000003,0.006403556,4.446,0,0
0.006044674000000001,0.016061262399999998,0.0032119999999999996,0.018917720000000002,0.005710596,4.447,0,0
0.008271702,0.0084342824,-0.0038799200000000002,0.013348728000000002,0.003531962,4.448,0,0
0.008910254,-0.0022033376000000007,-0.00993142,0.006927590000000001,0.0014952959999999997,4.449,0,0
0.008773678,-0.013045917600000002,-0.012553288000000001,0.00033668999999999973,-0.00035057200000000017,4.45,0,0
0.008339962,-0.0192653776,-0.008274252000000001,-0.006428370000000001,-0.0031650840000000003,4.451,0,0
0.006934358,-0.018088418,-0.004878804,-0.011245970000000001,-0.005781794,4.452,0,0
0.004435453600000001,-0.012526638,-0.010367184000000002,-0.013569738000000001,-0.00702537,4.453,0,0
0.0013715876,-0.0057047400000000015,-0.016437844,-0.015179340000000003,-0.007837756000000001,4.454,0,0
-0.0018598944000000003,0.00363708,-0.017743924,-0.014638560000000002,-0.007792212000000001,4.455,0,0
-0.0046968164,0.01152146,-0.0171916,-0.011620626200000001,-0.00651903,4.456,0,0
-0.006684488400000001,0.013446778000000001,-0.013929126000000003,-0.0080452122,-0.005247018,4.457,0,0
-0.007761152000000001,0.015414018000000002,-0.006691908000000002,-0.0044170862,-0.0034874398,4.458,0,0
-0.007528664000000001,0.01891272,-0.0013155279999999998,0.0004164737999999997,-0.0005412358,4.459,0,0
-0.006983326,0.015555046000000001,-0.004294200000000001,0.0053794738,0.0021065822,4.46,0,0
-0.006927506,0.002070866000000001,-0.010624900000000001,0.008873780000000001,0.0038040122000000008,4.461,0,0
-0.006453208,-0.011645774000000001,-0.0123233314,0.011921486000000002,0.005634666200000001,4.462,0,0
-0.004605962000000001,-0.018962194,-0.0089956094,0.014451519999999999,0.007081808000000001,4.463,0,0
-0.0026518059999999996,-0.024290872,-0.0033119493999999986,0.015051660000000001,0.006871750000000001,4.464,0,0
-0.0007245499999999998,-0.024867888000000005,0.004843970600000001,0.013982534000000001,0.005886448000000001,4.465,0,0
0.00226335,-0.015397570000000001,0.012651710600000001,0.0122239,0.004972824000000001,4.466,0,0
0.004118058,-0.004921153000000001,0.0173067,0.00887166632,0.0034880700000000002,4.467,0,0
0.003700366,-0.001318357,0.020674360000000003,0.004801788320000001,0.0012162720000000002,4.468,0,0
0.0028481167999999998,0.0007415450000000001,0.022562500000000003,0.0018852443200000004,-0.000327314,4.469,0,0
0.002463719,0.0022755630000000004,0.019066698,-0.00047599168000000015,-0.0004609099999999999,4.47,0,0
0.0018970430000000002,0.0019233382000000004,0.010406418,-0.0022422456800000002,-0.0002562799999999999,4.471,0,0
0.001586909,0.0036915212,0.0020646379999999997,-0.0016594420000000001,0.0009746240000000002,4.472,0,0
0.0019428030000000003,0.0073548052,-0.004070188800000001,0.000370942,0.003314552,4.473,0,0
0.0022233682000000004,0.0114957412,-0.0077427528,0.0018430960000000002,0.00474605,4.474,0,0
0.0021247108,0.0175251132,-0.006154836799999999,0.003177564,0.0050467820000000005,4.475,0,0
0.0015981738,0.02416924,-0.00012007880000000008,0.004464934,0.005324412000000001,4.476,0,0
0.0008328758000000002,0.027437560000000003,0.0025475292000000007,0.0049344739999999995,0.0048134960000000004,4.477,0,0
0.00022232619999999995,0.02681414,0.0008371719999999997,0.005020788,0.0037028980000000005,4.478,0,0
-0.00032228940000000005,0.02340966,-0.0009020940000000003,0.005933456,0.0036861560000000003,4.479,0,0
-0.0010933522000000002,0.01438234,-0.003082132,0.006095248000000001,0.0036705360000000003,4.48,0,0
-0.001098115,-0.0014438000000000003,-0.005222372000000001,0.004536378000000001,0.0028766968000000005,4.481,0,0
-0.000419193,-0.019746140000000002,-0.004985078,0.002131984000000001,0.0021588268000000002,4.482,0,0
-2.7367399999999958e-05,-0.03740188,-0.00256128,-0.001985756,0.0005080948000000002,4.483,0,0
0.0005324002000000002,-0.050956800000000003,-0.0007061540000000003,-0.007932114,-0.0025731092,4.484,0,0
0.0014353182000000002,-0.05487256,0.0007224600000000001,-0.013198352000000002,-0.0053605352000000005,4.485,0,0
0.0020632320000000003,-0.04808554,0.002508774,-0.016836544000000002,-0.007642029999999999,4.486,0,0
0.002010052,-0.033022464,0.003684166,-0.019387260000000003,-0.009773700000000001,4.487,0,0
0.0016789236000000001,-0.012672544,0.0028148018000000003,-0.019345460000000002,-0.01060373,4.488,0,0
0.0012311148600000002,0.011679936000000002,0.0008947997999999999,-0.016551688000000002,-0.009739494000000001,4.489,0,0
0.00036545486,0.035010596000000005,-0.0008524661999999998,-0.012553508,-0.008056688000000001,4.49,0,0
-0.0012511631399999999,0.049489856000000006,-0.0034536422,-0.008176406,-0.005499662000000001,4.491,0,0
-0.0032280311400000004,0.05426500000000001,-0.005522480200000001,-0.0034895539999999997,-0.0018661700000000001,4.492,0,0
-0.00442918274,0.051680800000000006,-0.004985336,0.0006886419999999999,0.0016300980000000002,4.493,0,0
-0.0042749368,0.037488288,-0.0017995099999999998,0.003548358,0.0038041200000000002,4.494,0,0
-0.0031620008000000006,0.012195268000000002,0.0010019220000000001,0.00555661,0.004584584000000001,4.495,0,0
-0.0015985028000000004,-0.010780952,0.0016070919999999999,0.007620748000000001,0.0047527440000000015,4.496,0,0
0.00010858480000000006,-0.026757032,0.001737374,0.008892236000000001,0.0040242640000000005,4.497,0,0
0.0007258968,-0.036606492000000004,0.003774219999999999,0.009514068,0.0029860900000000003,4.498,0,0
-5.03684000000001e-05,-0.03637945,0.00663908,0.01072176,0.0030108120000000003,4.499,0,0
-0.0009514104,-0.0262991,0.008141404000000001,0.010511236000000002,0.0029236640000000007,4.5,0,0
-0.0009630184000000001,-0.011168280000000001,0.010583682,0.0082567138,0.001565448,4.501,0,0
0.0001266940000000001,0.004277980000000002,0.012945842000000003,0.0053342378000000015,-0.00042726799999999996,4.502,0,0
0.00217942,0.01573112,0.010972956000000002,0.0017355038000000007,-0.0026905979999999998,4.503,0,0
0.004238090000000001,0.020842250000000003,0.005016330000000001,-0.0030979162,-0.004972268,4.504,0,0
0.0048681264000000005,0.02202238,-0.0002329700000000003,-0.006594254200000001,-0.005780696,4.505,0,0
0.0038824284000000004,0.019809444000000002,-0.0029358360000000007,-0.007607380000000001,-0.005272932,4.506,0,0
0.0014083443999999997,0.008962264000000001,-0.005313718,-0.008071668,-0.004497036,4.507,0,0
-0.0017711056000000002,-0.008717556000000001,-0.006908906000000001,-0.007808236000000001,-0.0030885080000000002,4.508,0,0
-0.0042000776,-0.021299976000000005,-0.006947366,-0.006064760000000001,-0.0014196500000000002,4.509,0,0
-0.005033440000000001,-0.024542290000000005,-0.005167420000000001,-0.0033450080000000004,-0.00019794400000000014,4.51,0,0
-0.005073090000000001,-0.020782974000000003,-0.002823186,-0.0008654500000000005,0.001054686,4.511,0,0
-0.004228120000000001,-0.008691333999999998,-0.00218915,0.00210476,0.002800746,4.512,0,0
-0.0014808980000000002,0.007904806,-0.00136058,0.004373856000000001,0.004017346,4.513,0,0
0.0014935520000000002,0.018064544,0.00038328600000000004,0.004148206000000001,0.004005272,4.514,0,0
0.0035404780000000005,0.018250966799999997,2.5047999999999954e-05,0.0032053333999999996,0.0032206877999999997,4.515,0,0
0.005092872,0.012965196800000002,-0.0020144240000000003,0.0023461854000000003,0.0027947118,4.516,0,0
0.005895906,0.0066529928,-0.0021019080000000004,0.0004591854000000001,0.0024133358000000002,4.517,0,0
0.004587574200000001,0.0022382547999999997,-0.0023114400000000005,-0.0016710126000000001,0.0008949317999999999,4.518,0,0
0.0018789101999999993,0.0004580948,-0.00586048,-0.0013448666,-0.0006380442000000004,4.519,0,0
-0.0007046398000000003,0.000507114,-0.008686248,-0.0005364580000000001,-0.0017561260000000004,4.52,0,0
-0.0027919738,1.3297399999999925e-05,-0.008342920000000002,-0.0016386360000000002,-0.0037744800000000006,4.521,0,0
-0.0032053386,-0.0006501658,-0.007947934,-0.002008694,-0.005996294000000001,4.522,0,0
-0.0026147908,0.00016037820000000004,-0.007858492000000002,-0.00139201,-0.006708292,4.523,0,0
-0.0019052466000000002,0.0009892022,-0.0045475080000000005,-0.002070924,-0.006552920000000001,4.524,0,0
-0.0013719486,0.0023270082000000003,0.00023502000000000028,-0.0028847701999999997,-0.005444439800000001,4.525,0,0
-0.0013002966,0.0041738248,0.0028112280000000003,-0.0020965921999999996,-0.0030213898000000013,4.526,0,0
-0.0014786198,0.003629666,0.005044184,-0.0011595342,-0.0003932498000000003,4.527,0,0
-0.0016887617999999998,-0.0006635599999999992,0.006295882,-0.00019924819999999976,0.0021360822,4.528,0,0
-0.001152696,-0.0069402019999999995,0.006361398,0.0014759118000000002,0.004624260200000001,4.529,0,0
0.00090129,-0.012712876000000001,0.00718367,0.0018385206000000002,0.0059438220000000005,4.53,0,0
0.003628768,-0.017679226000000003,0.007593214000000001,0.0010398106,0.0054693580000000006,4.531,0,0
0.004589330000000001,-0.019475040000000002,0.0068346100000000005,0.0013998905999999998,0.0051898940000000005,4.532,0,0
0.0039927700000000005,-0.016639624000000002,0.0028539659999999994,0.0022370606,0.00504675,4.533,0,0
0.002598758000000001,-0.012059950000000002,-0.003323174000000001,0.0024488846000000003,0.004138724000000001,4.534,0,0
0.00014999600000000011,-0.007174023999999999,-0.005792254,0.003279782,0.0029547154000000003,4.535,0,0
-0.002629968,-0.0006187839999999998,-0.005268294000000001,0.0053621020000000005,0.0017396194,4.536,0,0
-0.0046222400000000005,0.004854876,-0.005218692,0.007016296,0.0005006434,4.537,0,0
-0.004839872,0.005310386,-0.0020096604,0.007704706,-0.0006601584,4.538,0,0
-0.0035878159999999997,0.003896132,0.0035521856000000004,0.008672308,-0.0008487144,4.539,0,0
-0.001592418,0.001147366,0.0042032216,0.008879944,-0.0003372838,4.54,0,0
0.0007675259999999999,-0.0034052000000000006,0.0013142416,0.007105473999999999,0.0006676942,4.541,0,0
0.0029807740000000003,-0.005351486000000001,-0.00014107239999999998,0.0042257499999999995,0.0016309942,4.542,0,0
0.0033265278000000004,-0.001388012000000001,-0.000372074,0.0011280719999999995,0.0016651282000000002,4.543,0,0
0.0016146058000000001,0.007066148,3.079999999999706e-07,-0.0021971480000000003,0.0007113062000000003,4.544,0,0
-0.0004525982000000001,0.015952427999999998,3.5935999999999976e-05,-0.005176984000000001,-0.0005665857999999999,4.545,0,0
-0.0019021402000000001,0.023314034,0.00029572880000000004,-0.0073344460000000005,-0.0016305498,4.546,0,0
-0.0024718682000000004,0.02774102,0.0019316508000000003,-0.009657462,-0.0029503918000000004,4.547,0,0
-0.0015738520000000002,0.028724180000000002,0.0023977868,-0.011147998000000001,-0.0032368740000000003,4.548,0,0
0.00070802,0.02425706,0.0012092608000000003,-0.011166390000000002,-0.0022506320000000002,4.549,0,0
0.00246208,0.014023180000000001,-0.0002198352000000001,-0.01120379,-0.0014325505999999999,4.55,0,0
0.003802794,0.0027090800000000017,-0.001182824,-0.010413414000000001,-0.0007228085999999999,4.551,0,0
0.004820914000000001,-0.00687692,-0.0016774780000000005,-0.0072944160000000015,0.0002453594000000001,4.552,0,0
0.0044217760000000005,-0.0158479,-0.0016040400000000004,-0.003585472,0.0010304474,4.553,0,0
0.0031867860000000005,-0.02287182,-0.0010719444000000002,-0.00114052,0.00077464148,4.554,0,0
0.002081676,-0.0238259,-0.0006793004,0.001869062,0.00037367208000000003,4.555,0,0
0.0005064859999999999,-0.022466120000000003,-0.0013311164000000004,0.005454626000000001,0.00056505108,4.556,0,0
-0.001486288,-0.022366240000000003,-0.0034565964000000003,0.007330488000000001,0.00037730508,4.557,0,0
-0.00245852,-0.0203151,-0.004103356400000001,0.008729144000000001,0.00036915908,4.558,0,0
-0.0026001580000000004,-0.015168492,-0.003819902000000001,0.01127554,0.0014346690000000002,4.559,0,0
-0.0019331322000000002,-0.009495383999999999,-0.0033906139999999997,0.013843580000000001,0.0027214810000000004,4.56,0,0
-0.0012750372000000002,-0.0029791839999999993,-0.0008269780000000001,0.014993780000000002,0.003086234,4.561,0,0
-0.0012836312,0.005643536000000001,0.0030785,0.01503414,0.0034155,4.562,0,0
-0.0012872492000000001,0.014657136000000001,0.005422115999999999,0.013872552000000002,0.004004096,4.563,0,0
-0.0016932492000000003,0.023824608000000004,0.006224966,0.010368836800000001,0.0030531272,4.564,0,0
-0.0025569110000000003,0.0301767,0.007858216000000001,0.0057627288,0.0013870312,4.565,0,0
-0.0035545100000000007,0.030480880000000002,0.006187522,0.0017026688000000003,0.0003711491999999999,4.566,0,0
-0.00424623,0.02324412,0.000928342,-0.0018861832000000001,-0.0008371308000000002,4.567,0,0
-0.004092526,0.010817239999999999,-0.002216808,-0.0050447732,-0.0025710088000000003,4.568,0,0
-0.003043988,-0.0007210600000000008,-0.0032049592000000003,-0.007435578,-0.003611216,4.569,0,0
-0.0013938760000000003,-0.008644902000000001,-0.004827292600000001,-0.00917465,-0.003936234,4.57,0,0
0.001159248,-0.011950678000000001,-0.0051288946,-0.011092210000000002,-0.004550656,4.571,0,0
0.004134144,-0.009408871200000002,-0.0018121926,-0.012917458,-0.004667518000000001,4.572,0,0
0.0054372380000000005,-0.004998079200000001,0.0005789294000000002,-0.01440526,-0.004184378,4.573,0,0
0.005186188,-0.006568519200000001,0.00039255720000000015,-0.015476640000000002,-0.003585984,4.574,0,0
0.003977304,-0.011688377200000002,0.0011846446,-0.0159122,-0.0024318622,4.575,0,0
0.0012779080000000001,-0.017595341200000003,0.0027045085999999998,-0.01598492,-0.0011926812,4.576,0,0
-0.0003599918000000001,-0.024572588000000003,0.0018448886000000002,-0.01497534,-0.0006025532,4.577,0,0
0.0007119162000000002,-0.027910280000000003,0.0001145966,-0.012786444000000001,-0.0004687758,4.578,0,0
0.0025230322000000006,-0.02583362,-0.00011654999999999999,-0.009695369999999998,-0.0004124758,4.579,0,0
0.0040900382,-0.019919542800000002,-0.000800323,-0.0068174664,-0.0009511976,4.58,0,0
0.0054673222,-0.012235576800000002,-0.0015821950000000002,-0.0042882664,-0.0019052006000000003,4.581,0,0
0.0054431602,-0.002188676800000001,-0.001602681,-0.0010378744,-0.0021826426,4.582,0,0
0.0034613276000000004,0.009540523200000001,-0.002315511,0.0013818016000000002,-0.0023963780000000002,4.583,0,0
0.0005671895999999998,0.014850203200000002,-0.0018283630000000004,0.0027516336,-0.0028370440000000004,4.584,0,0
-0.0019790504,0.012063126000000002,-1.6401999999999996e-05,0.005014950000000001,-0.0026539493999999998,4.585,0,0
-0.0029672184000000003,0.013420040000000001,0.0008488639999999998,0.00849679,-0.0011443213999999997,4.586,0,0
-0.0032684546000000003,0.018366780000000003,0.001859534,0.011439858,0.0005324265999999999,4.587,0,0
-0.0031397088000000004,0.01745744,0.004324662,0.013941846,0.0017185666000000001,4.588,0,0
-0.0018830972,0.018637920000000002,0.006819042,0.0170435,0.0038673086,4.589,0,0
-0.0005297687999999999,0.02528754,0.00803661,0.019106240000000003,0.005652184,4.59,0,0
-9.04894e-05,0.025123200000000002,0.010209424,0.019976780000000003,0.00662298,4.591,0,0
-0.0005785154,0.017384246000000003,0.012283278,0.02100812,0.0079415,4.592,0,0
-0.0016898546,0.011021144,0.00884894,0.021770180000000004,0.00913142,4.593,0,0
-0.0035893522,0.006771207800000001,0.0017884599999999995,0.020859360000000004,0.009566394,4.594,0,0
-0.0059592225999999995,0.0037379818,-0.00206351,0.018790420000000002,0.009692636000000001,4.595,0,0
-0.007981016,0.0027898538,-0.0058129160000000004,0.016547594000000002,0.009698638,4.596,0,0
-0.009016072,0.0039456718,-0.011219056,0.012232724,0.008545478,4.597,0,0
-0.009117326,0.0029480218000000006,-0.010203154,0.005945648000000001,0.0066611176000000005,4.598,0,0
-0.007822676,-0.0055666019999999995,-0.005693603199999999,3.458799999999946e-05,0.004642322000000001,4.599,0,0
-0.005409454000000001,-0.017326236000000002,-0.0050582752,-0.005952832,0.002485876,4.6,0,0
-0.002888518,-0.027241888,-0.004457519200000001,-0.012739246000000001,-0.00037843800000000026,4.601,0,0
-0.0003278459999999999,-0.036240812000000004,-0.0025365852,-0.018692516,-0.0038057780000000005,4.602,0,0
0.00208877,-0.041255400000000005,-0.0028232012,-0.022821820000000003,-0.0070567376000000015,4.603,0,0
0.004339372000000001,-0.03688094,-0.004052406000000001,-0.02653656,-0.011004,4.604,0,0
0.006203150000000001,-0.025504770000000003,-0.004498818,-0.0285913,-0.014903602000000002,4.605,0,0
0.007900894,-0.01300069,-0.003997077000000001,-0.027253180000000002,-0.01694614,4.606,0,0
0.008768498,-0.0017154899999999992,-0.002653585,-0.02421904,-0.016703242,4.607,0,0
0.008084870000000001,0.010441210000000001,-0.0008644330000000002,-0.019461776000000004,-0.014230188,4.608,0,0
0.0063297924,0.021925930000000003,0.001535039,-0.012689282,-0.010110428,4.609,0,0
0.0040643724,0.025351960000000003,0.003787157,-0.006192039999999999,-0.005708702800000001,4.61,0,0
0.0019257600000000003,0.021314958000000002,0.0050329500000000004,-0.0019334,-0.0024430394,4.611,0,0
7.918000000000001e-05,0.015973998000000003,0.0034799780000000008,0.0012606920000000003,-0.0006626272000000001,4.612,0,0
-0.000715514,0.010471214000000003,-0.0021053,0.0036601280000000003,0.0003471908,4.613,0,0
-0.00016403040000000004,0.005211993999999999,-0.008233878,0.004101528000000001,0.0010924408,4.614,0,0
0.0013349716,0.0052398340000000005,-0.010227388,0.004790114000000001,0.0021585996,4.615,0,0
0.0029533040000000003,0.010886956,-0.009246212,0.006401274,0.0038665782,4.616,0,0
0.0038949460000000003,0.017765036,-0.006227518000000001,0.007292632,0.00555282,4.617,0,0
0.004130316000000001,0.0244418,0.0005723080000000001,0.007897194,0.00638856,4.618,0,0
0.003528766,0.02768928,0.007924488,0.00924432,0.0067988779999999995,4.619,0,0
0.00158977,0.023913416,0.012501894000000003,0.00978349,0.007030491999999999,4.62,0,0
-0.0013657400000000003,0.014950316000000002,0.013685394,0.008642506,0.006303544,4.621,0,0
-0.0034062520000000002,0.003927596000000001,0.013059226,0.00784675,0.0057275320000000005,4.622,0,0
-0.004288478000000001,-0.010177044,0.01115797,0.006888084000000001,0.0050390999999999995,4.623,0,0
-0.004983070000000001,-0.022844984,0.00580241,0.0047877586,0.0031240880000000006,4.624,0,0
-0.00511073,-0.02876898,-0.0004841900000000011,0.0025124366,0.0009099920000000003,4.625,0,0
-0.0042581780000000005,-0.02962714,-0.0033171380000000007,0.00037299260000000015,-0.0009783840000000001,4.626,0,0
-0.0031294446,-0.025716342,-0.0036261740000000002,-0.0019705834000000003,-0.002798264,4.627,0,0
-0.0024039002,-0.017999208,-0.003070602,-0.0037981634000000004,-0.004191598,4.628,0,0
-0.0014429981999999999,-0.009552026000000002,-0.0017440200000000002,-0.0042285000000000005,-0.003955874,4.629,0,0
0.00014317180000000015,-0.0035840420000000004,-0.0013427439999999999,-0.004208112000000001,-0.003368986,4.63,0,0
0.0018723058000000002,1.2443999999999964e-05,-0.002780244,-0.0037518700000000005,-0.0031051720000000007,4.631,0,0
0.0037849544000000002,0.0019097419999999996,-0.004979394,-0.0023696236,-0.0019974600000000004,4.632,0,0
0.005875572000000001,0.001258508,-0.005623446000000001,-0.0013458590000000002,-0.0005361260000000003,4.633,0,0
0.006915386000000001,-0.000213558,-0.0037269020000000003,-0.001038905,0.0002558639999999999,4.634,0,0
0.006545918000000001,-0.0007536420000000001,-0.0018845726000000004,-0.00018042700000000004,0.0006858332,4.635,0,0
0.004989706000000001,-0.0013255080000000002,-0.0009954620000000003,0.000736731,0.0013246584,4.636,0,0
0.0022662900000000002,-0.001981956,0.00039945,0.0005874228,0.001104867704,4.637,0,0
-0.0002939819999999999,-0.0002780580000000001,0.0007116986,0.0002022181999999999,0.00044659470400000003,4.638,0,0
-0.002215144,0.0025532460000000003,-0.00025741140000000006,0.0006195302,0.0005122807040000001,4.639,0,0
-0.003177394,0.0038653920000000005,-0.0005388468000000001,0.0010076402,0.000796627504,4.64,0,0
-0.003466056,0.004354832,0.0004178926000000001,0.0012556142,0.0009246429040000001,4.641,0,0
-0.004449514,0.0037949200000000002,0.0021480466,0.002276122,0.0009031016,4.642,0,0
-0.005755426,0.0013404180000000003,0.001982338,0.003465628,0.0012175146,4.643,0,0
-0.006610902,-0.0012706937999999999,0.00047508200000000037,0.0039368219999999995,0.0014622446000000001,4.644,0,0
-0.007239728000000001,-0.0022506282,0.0008275288000000002,0.004318136,0.0015684786,4.645,0,0
-0.007197820000000001,-0.0014890942,0.0013644408000000005,0.005885710000000001,0.002398196,4.646,0,0
-0.005609878,-0.0003549518,0.0011959048000000007,0.007428446000000002,0.003501604,4.647,0,0
-0.004005728000000001,-0.00015843780000000004,0.003944794800000001,0.009024084000000002,0.004490722,4.648,0,0
-0.0028608680000000004,-0.000202856,0.0098689148,0.011281806000000002,0.005117652,4.649,0,0
-0.0016468572000000001,0.0005696964000000001,0.012650938,0.012048498000000001,0.0051066440000000005,4.65,0,0
-0.0006493072000000001,0.0014645723999999998,0.010749464,0.010848670000000001,0.004465384,4.651,0,0
0.0006210467999999999,0.002816484,0.0059011,0.00900987,0.0033771960000000003,4.652,0,0
0.0019756788,0.005406782000000001,-0.00265022,0.006266894,0.001910732,4.653,0,0
0.0036378288000000003,0.007074614000000001,-0.008794960000000001,0.0013996859999999998,0.00016510199999999998,4.654,0,0
0.005610546,0.00768733,-0.009141240000000002,-0.0037311720000000005,-0.001562758,4.655,0,0
0.00701618,0.008279678000000002,-0.008339898000000002,-0.0075120840000000005,-0.00307308,4.656,0,0
0.007440250000000001,0.006797011,-0.007102828,-0.010783564000000002,-0.004042286,4.657,0,0
0.007374484000000001,0.002967975000000001,-0.0025954360000000004,-0.012877588000000002,-0.005161164,4.658,0,0
0.006447090000000001,-1.4770999999999795e-05,4.7320000000000164e-05,-0.012581038000000001,-0.005973867999999999,4.659,0,0
0.0044390918,-0.0015464779999999998,-0.0025675806000000005,-0.011421858,-0.006077286,4.66,0,0
0.0026630378,-0.0029276199999999997,-0.0042179586,-0.011927377999999999,-0.006543468,4.661,0,0
0.0010863278,-0.001186461,-0.0034269346,-0.013050418000000001,-0.007026084,4.662,0,0
-0.00010622019999999993,0.003062187,-0.0028308406,-0.013821538000000001,-0.007210544,4.663,0,0
-0.0004287734,0.0028247649999999995,-0.0033512138000000003,-0.014803060000000002,-0.0073211560000000005,4.664,0,0
-0.00043895018,-0.0013226280000000006,-0.0023764152,-0.013953628000000001,-0.006567258,4.665,0,0
-0.00052969258,-0.0038032639999999998,-0.00017158920000000005,-0.011006680000000001,-0.0049078106,4.666,0,0
-0.00045730258000000005,-0.005854332,6.131079999999991e-05,-0.008216214000000001,-0.0035505906000000004,4.667,0,0
-0.00032614738000000005,-0.008222413,-0.0015372152000000005,-0.0058715320000000005,-0.0018485010000000004,4.668,0,0
-0.00044085478000000005,-0.0066090624,-0.0031474420000000003,-0.0030020460000000004,0.0003955270000000002,4.669,0,0
-0.0007312178000000001,-0.0030792083999999996,-0.0029904940000000007,8.153400000000008e-05,0.002024821,4.67,0,0
-0.0015190474,-0.0023979763999999997,-0.0006957239999999996,0.003630846,0.0032875376000000003,4.671,0,0
-0.0025753014000000005,-0.003927012400000001,0.004574882000000001,0.00928792,0.005077617600000001,4.672,0,0
-0.0037020366,-0.006878891400000001,0.011549482,0.015477898,0.0068369039999999996,4.673,0,0
-0.004701646,-0.011385376,0.016338446,0.019644312,0.007785197999999999,4.674,0,0
-0.0046833560000000005,-0.01584709,0.01723848,0.02181646,0.008691332,4.675,0,0
-0.003433638,-0.019823582000000003,0.013648542,0.022569900000000004,0.009267414,4.676,0,0
-0.0020581350000000004,-0.02484168,0.003689002000000001,0.020555540000000004,0.008835366,4.677,0,0
-0.0013631530000000002,-0.02826284,-0.009127978000000002,0.016494414,0.007586188000000001,4.678,0,0
-0.001215365,-0.02721582,-0.016895818,0.013431272000000003,0.0060624319999999995,4.679,0,0
-0.001060545,-0.022195662400000003,-0.017484226,0.010130144000000002,0.004143426600000001,4.68,0,0
-0.0003266270000000001,-0.010668442400000002,-0.012789148000000002,0.005247676,0.0018955686,4.681,0,0
0.0003722719999999999,0.0079309976,-0.0020942680000000007,0.0009343340000000002,0.00046445480000000005,4.682,0,0
0.001361004,0.028319617600000003,0.010571312,-0.0024284599999999995,-0.0004201052,4.683,0,0
0.003335692,0.0465979976,0.01575037,-0.0067795979999999995,-0.0015245652,4.684,0,0
0.004285418,0.0605929,0.012145938000000002,-0.010966469999999999,-0.0025558218,4.685,0,0
0.0035864600000000005,0.07078754000000001,0.005357258000000002,-0.013399362,-0.0032987678,4.686,0,0
0.0025538440000000004,0.0758029,-0.0016614819999999997,-0.0153199,-0.0045343020000000005,4.687,0,0
0.0006364860000000001,0.06743112,-0.008863162,-0.016340900000000002,-0.005627296,4.688,0,0
-0.002403854,0.04279822,-0.012359199999999999,-0.015375076,-0.005372372,4.689,0,0
-0.00488559,0.0089576,-0.012032066,-0.013582348,-0.00507683,4.69,0,0
-0.005841402,-0.025453,-0.011285153999999999,-0.011392132,-0.004938008,4.691,0,0
-0.005120286,-0.05248958000000001,-0.008632711999999999,-0.008341262,-0.0037070832,4.692,0,0
-0.0029032160000000006,-0.06615892000000001,-0.00484409,-0.006063466,-0.0024184044,4.693,0,0
-0.00028248400000000027,-0.061562900000000004,-0.0037216640000000004,-0.0054065020000000005,-0.0023219804,4.694,0,0
0.0021536380000000003,-0.040901872000000006,-0.0033946040000000007,-0.004935964,-0.0023916884,4.695,0,0
0.003363732,-0.021793404,-0.0005752420000000005,-0.004014328,-0.0019976984,4.696,0,0
0.003351694,-0.012222326,0.0006461959999999997,-0.0031098320000000003,-0.0021814072,4.697,0,0
0.003229208,-0.0040697752,0.0017685239999999996,-0.0015087260000000002,-0.002487494,4.698,0,0
0.0031701180000000004,0.0031293228,0.006527078,0.002028546000000001,-0.0014371919999999997,4.699,0,0
0.0031878500000000003,0.006167494799999999,0.010215624000000001,0.005908320000000001,6.99339999999999e-05,4.7,0,0
0.00307181,0.007907686799999999,0.010950486,0.007901402000000002,0.000996792,4.701,0,0
0.0027124659999999997,0.009856728799999999,0.009911584000000001,0.008978596,0.0021229760000000004,4.702,0,0
0.001363436,0.009856309,0.005996258000000002,0.009832852000000001,0.0032344020000000004,4.703,0,0
-0.0008582199999999998,0.006633427,0.0010220180000000004,0.00874001,0.003174562,4.704,0,0
-0.0027328419999999996,0.0026497129999999993,-0.0017071679999999998,0.0061774078000000005,0.0028398340000000003,4.705,0,0
-0.0035103540000000003,0.0017498190000000001,-0.0025083019999999996,0.0042186598,0.0029419340000000006,4.706,0,0
-0.003499418,0.002728999,-0.0014594999999999999,0.0021021577999999997,0.0022505386,4.707,0,0
-0.0026731187999999998,0.004822248,0.0015126580000000003,-6.695019999999993e-05,0.0013704796000000002,4.708,0,0
-0.00014450879999999985,0.007583434,0.0035010858000000004,-0.0011847646372,0.0009478514000000002,4.709,0,0
0.0027281692,0.007935663200000002,0.0029518398,-0.0023120544372,-0.0001035486,4.71,0,0
0.0041653052,0.0061917558000000004,0.0009949477999999998,-0.0033543644372,-0.0017697966000000001,4.711,0,0
0.0043450092000000004,0.0042297658,-0.0013763542000000003,-0.0035516604372,-0.0030204072,4.712,0,0
0.0041725432,0.0016824898,-0.0020466622,-0.0039113304372,-0.0038337382,4.713,0,0
0.0031452156000000005,-0.0015345842,-0.0005620220000000001,-0.00462574,-0.004536254,4.714,0,0
0.0010782176000000002,-0.0042114794,0.001569626,-0.00338282,-0.0039143136,4.715,0,0
-0.00036339639999999996,-0.006745618,0.00287143,-0.0004246120000000002,-0.0018084356,4.716,0,0
-0.0008345896,-0.009357988000000001,0.002238438,0.002418426,0.00041112439999999994,4.717,0,0
-0.0011638088,-0.011361092000000001,8.597399999999995e-05,0.005645666000000001,0.0023880544,4.718,0,0
-0.0015770632,-0.011976180000000001,-0.0022413600000000004,0.009310032,0.0041560464,4.719,0,0
-0.0016688552,-0.01156556,-0.004098606,0.011875444000000002,0.005193186,4.72,0,0
-0.0015802354000000003,-0.011156856000000001,-0.005609922,0.01239022,0.005280648000000001,4.721,0,0
-0.0017897842,-0.009306192000000001,-0.004878526199999999,0.01289112,0.00573496,4.722,0,0
-0.0018542342,-0.005569842000000001,-0.0013676662,0.01307606,0.006711842000000001,4.723,0,0
-0.0014620462,-0.0019404700000000006,0.0025638798,0.010768242,0.0067615,4.724,0,0
-0.0014165981999999999,0.001212408,0.0058861498000000005,0.0077171724,0.00638153,4.725,0,0
-0.0018958820000000002,0.004300484,0.008008993800000001,0.0057511744000000005,0.006162605999999999,4.726,0,0
-0.002144346,0.00681846,0.0076778720000000005,0.0028185124,0.0050107139999999994,4.727,0,0
-0.002428952,0.010421930000000001,0.004746224000000001,-0.0011120376,0.0029187708,4.728,0,0
-0.003110748,0.015253478000000001,-0.001240136,-0.0029909736000000003,0.0017654826,4.729,0,0
-0.003356396,0.017399420000000002,-0.0071118959999999995,-0.004797184,0.0007565166,4.73,0,0
-0.003124374,0.017010566,-0.007846428,-0.008303086000000001,-0.0015947774000000003,4.731,0,0
-0.0024906144,0.016041458,-0.005670896,-0.011135224,-0.0040368534,4.732,0,0
-0.0009512164000000001,0.0109220194,-0.00408043,-0.012449314000000001,-0.006368950200000001,4.733,0,0
0.0010329356,0.0007919194000000004,-0.0023869139999999995,-0.012651456000000002,-0.008940554,4.734,0,0
0.0030028836,-0.0086807206,-0.002161594,-0.010745074,-0.010388510000000002,4.735,0,0
0.0046455796,-0.015373286600000001,-0.0052529840000000005,-0.006453395999999999,-0.009171910000000002,4.736,0,0
0.005368378000000001,-0.0203226586,-0.008001284000000001,-0.001868511999999999,-0.00705705774,4.737,0,0
0.004649070000000001,-0.019383504000000003,-0.008025918,0.0011822120000000002,-0.00535756174,4.738,0,0
0.0033619825999999997,-0.010738603999999999,-0.004453454000000001,0.00231715,-0.0034805157399999996,4.739,0,0
0.0024955845999999997,-0.000327364000000001,0.0020956259999999997,0.00156342,-0.00237549574,4.74,0,0
0.0017689286000000001,0.008515776,0.006846486000000001,-0.0011947339999999998,-0.00260003774,4.741,0,0
0.0011984912,0.015130376,0.008306034,-0.0049701780000000004,-0.003174618,4.742,0,0
0.0015030272,0.016123397999999997,0.008472282000000001,-0.007933982000000001,-0.0030720020000000003,4.743,0,0
0.0020036185999999997,0.009889508,0.006323887000000001,-0.010816004,-0.0031463800000000003,4.744,0,0
0.0015697083999999999,0.0007397079999999995,0.0037353090000000005,-0.013554236,-0.003328002,4.745,0,0
0.0007251304,-0.007858692,0.004196489,-0.013852500000000002,-0.00300149,4.746,0,0
-0.00028876620000000026,-0.016227972,0.004093317,-0.013039784,-0.0027090239999999995,4.747,0,0
-0.0016104542000000002,-0.023418590000000003,0.003775547,-0.011865846000000001,-0.0022956794,4.748,0,0
-0.0027081902,-0.02577182,0.00553616,-0.0087523458,-0.0007578293999999999,4.749,0,0
-0.0028671534000000005,-0.022344632,0.004373696,-0.004157377800000001,0.0017142126,4.75,0,0
-0.0025776036,-0.0158832,0.0010787799999999997,0.0005627622000000001,0.0040376906,4.751,0,0
-0.0019748196000000003,-0.0060627,0.001834796,0.0064464862000000005,0.0069277126,4.752,0,0
-0.0008841116000000001,0.00720934,0.00163792548,0.0134292482,0.010005016,4.753,0,0
-0.00011336139999999997,0.01919146,-0.00266655252,0.019147688,0.011613098,4.754,0,0
-0.0001317762,0.025988432000000006,-0.004045386519999999,0.02352204,0.011702503999999999,4.755,0,0
-0.0001394612,0.028987080000000002,-0.00332046412,0.025562580000000005,0.010939933999999998,4.756,0,0
3.631200000000002e-05,0.02758916,-0.004122308119999999,0.02397196,0.008898954,4.757,0,0
-0.00035943,0.021132188,-0.0054128556,0.020584619999999998,0.0063206619999999995,4.758,0,0
-0.0009056422000000001,0.014027968000000002,-0.0068925756,0.016815956,0.004430248,4.759,0,0
-0.001605778,0.009038554,-0.0089313796,0.011760898000000002,0.00249247,4.76,0,0
-0.0024910468,0.00558366,-0.010839786,0.006314274,0.00044099000000000015,4.761,0,0
-0.003031234,0.0032117880000000006,-0.011840196,0.002214106,-0.0013210340000000002,4.762,0,0
-0.0032773259999999997,0.0017755095999999998,-0.011104066,-0.0020845940000000004,-0.0031148260000000002,4.763,0,0
-0.003263424,-0.0002037444000000001,-0.007720282,-0.007657490000000001,-0.0056350919999999995,4.764,0,0
-0.00284871,-0.0026048304,-0.0035963520000000006,-0.012886232000000001,-0.007822318,4.765,0,0
-0.0021086330000000004,-0.0052493364,-0.0008033079999999999,-0.017673148,-0.008873804,4.766,0,0
-0.001038255,-0.008098824400000001,0.0010716220000000004,-0.02214822,-0.009746000000000001,4.767,0,0
0.00016169900000000007,-0.011398334000000001,0.002815082,-0.02418976,-0.009587480000000002,4.768,0,0
0.001438515,-0.01568212,0.004023306000000001,-0.02206819,-0.007338024000000001,4.769,0,0
0.0018810968,-0.02121062,0.0038522698,-0.016121528,-0.004164032000000001,4.77,0,0
0.0013547237999999998,-0.02703188,0.0041145878000000006,-0.008025028000000002,-0.0014076780000000007,4.771,0,0
0.0011644758,-0.028878120000000004,0.0063550478,0.0014239720000000008,0.001695118,4.772,0,0
0.0009590658000000001,-0.026321430000000007,0.0087942638,0.010017632000000002,0.004724344,4.773,0,0
0.00015678117400000005,-0.018503890000000002,0.010775275800000001,0.015456442,0.006263302,4.774,0,0
0.000335581374,-0.0046593699999999995,0.012816682,0.018142500000000002,0.007051412,4.775,0,0
0.0020886513739999998,0.00990495,0.014556020000000003,0.01862758,0.007406204,4.776,0,0
0.002809249374,0.01984205,0.013209824000000002,0.01691531,0.006576076,4.777,0,0
0.002821647374,0.02488862,0.011410768000000002,0.013602201999999999,0.005123516000000001,4.778,0,0
0.0031829959999999996,0.02827304,0.011863708,0.010165935999999999,0.004158342000000001,4.779,0,0
0.0034784079999999997,0.027955940000000002,0.008737900000000002,0.005912988,0.0027026288,4.78,0,0
0.003575714,0.021858196000000003,0.004434249999999999,0.000534648,0.00024005480000000002,4.781,0,0
0.00385555,0.0162224596,0.0012483160000000002,-0.004367862,-0.0015211192,4.782,0,0
0.0052157,0.015297339600000003,-0.0035668680000000004,-0.009438834,-0.0030591172,4.783,0,0
0.006245382,0.0154580796,-0.0068112606,-0.014852148000000003,-0.0056029112,4.784,0,0
0.006059716000000001,0.0164268596,-0.0051771106,-0.018239880000000003,-0.007507596,4.785,0,0
0.0050258858,0.0191720436,-0.004919712600000001,-0.01916396,-0.008040992,4.786,0,0
0.0028191477999999996,0.013392480000000002,-0.008837442600000002,-0.019426300000000004,-0.00800252,4.787,0,0
-0.0013954242000000002,-0.00791934,-0.0115040226,-0.018132960000000004,-0.007741484,4.788,0,0
-0.005527440200000001,-0.03161472,-0.015002150000000002,-0.014718296,-0.006716742,4.789,0,0
-0.007408746200000001,-0.045179359999999995,-0.018232072000000002,-0.011551632000000001,-0.0052548000000000004,4.79,0,0
-0.007951742000000001,-0.05043696,-0.017640782,-0.008723340000000001,-0.004301516,4.791,0,0
-0.0068597698,-0.045845760000000006,-0.0124493332,-0.004926595999999999,-0.003211074,4.792,0,0
-0.0039762018,-0.028301476,-0.0079448752,-0.000964304,-0.0020581429999999997,4.793,0,0
-0.0011256616000000002,-0.009952418000000001,-0.007133755200000001,0.002264724,-0.001244695,4.794,0,0
-9.45136000000001e-05,-0.0002079979999999996,-0.0043670732,0.00509012,-0.00022788700000000008,4.795,0,0
-0.0006466656,0.005800002,-0.0008981511999999999,0.007858188000000002,0.0015782370000000001,4.796,0,0
-0.0014183258,0.009859782000000001,0.0013843800000000002,0.009657604,0.0031591590000000004,4.797,0,0
-0.002001989,0.014345858,0.005744142,0.010089686,0.004556864000000001,4.798,0,0
-0.0023599992000000003,0.02101456,0.012284322,0.010579334000000001,0.006630268,4.799,0,0
-0.0016790252000000003,0.027373059999999998,0.0153962,0.010792974,0.007809460000000001,4.8,0,0
-0.00021954119999999998,0.032494920000000004,0.0154418,0.010231646,0.008061284000000002,4.801,0,0
0.0006721008,0.0339077,0.0129147338,0.009984966000000001,0.008378012,4.802,0,0
0.0009067194000000001,0.026212,0.006995573799999999,0.010124824000000001,0.008006880000000001,4.803,0,0
0.000989089,0.00900166,0.0018967558000000002,0.009382724,0.00627176,4.804,0,0
0.0005031170000000002,-0.009923540000000002,-0.0030347321999999997,0.00829374,0.0045083394,4.805,0,0
-5.735239999999995e-05,-0.02448236,-0.007924832199999999,0.007516328,0.00316682,4.806,0,0
2.9855600000000006e-05,-0.031449960000000006,-0.008525974,0.004323594,0.0007748179999999998,4.807,0,0
0.0002867282,-0.028635656000000002,-0.006061611999999999,9.421999999999382e-06,-0.001618324,4.808,0,0
0.0007628326,-0.0177385,-0.0045972184,-0.0024208840000000008,-0.002793796,4.809,0,0
0.0011762183999999998,-0.006123574,-0.0031215976000000005,-0.004255614000000001,-0.0034712014,4.81,0,0
0.0012889933799999998,0.0009505300000000004,-0.0017701376,-0.005533276000000001,-0.0035472022000000002,4.811,0,0
0.0009796405800000002,0.00305563,-0.0008180003999999999,-0.003203644000000001,-0.0018800662000000002,4.812,0,0
0.0005406214100000001,-0.00012825399999999952,0.0014912176,0.001668176,0.0007935138000000001,4.813,0,0
0.00052645341,-0.00717693,0.005227702,0.005053242,0.0026875598000000002,4.814,0,0
0.00041817681000000005,-0.015554896,0.0090843092,0.008523716,0.0044420498,4.815,0,0
-9.800477000000002e-05,-0.02325996,0.0108204732,0.012302038000000001,0.0056672860000000005,4.816,0,0
-0.0007775059700000001,-0.0286741,0.008210844,0.013596040000000002,0.0051278159999999995,4.817,0,0
-0.0017425048000000002,-0.029493540000000006,0.0031562039999999997,0.012544608000000002,0.003666734,4.818,0,0
-0.0030891228,-0.024730184000000002,-0.0002174720000000003,0.009793146000000003,0.0022219860000000004,4.819,0,0
-0.003531592,-0.015339984000000003,-0.0020508920000000003,0.004525206,0.00023000599999999983,4.82,0,0
-0.002573362,-0.0011975239999999984,-0.003544108000000001,-0.0024454140000000004,-0.0018918440000000002,4.821,0,0
-0.0012891480000000004,0.017365096000000003,-0.003812348,-0.008507134000000001,-0.0026728999999999998,4.822,0,0
-5.846000000000003e-05,0.034982716000000004,-0.0036956079999999995,-0.014352682000000002,-0.0035686859999999997,4.823,0,0
0.0011892954,0.04603302000000001,-0.006137551999999999,-0.020695520000000002,-0.005955052000000001,4.824,0,0
0.0021842794,0.05043154000000001,-0.00755869,-0.02509358,-0.008797642000000001,4.825,0,0
0.0028339774000000002,0.047878180000000006,-0.004375438000000001,-0.026878980000000004,-0.010703920000000002,4.826,0,0
0.0028020114,0.03746118,0.00011141999999999966,-0.02710852,-0.011690632,4.827,0,0
0.0021526614000000003,0.023963694,0.0028792057999999995,-0.023992134000000002,-0.011336574000000002,4.828,0,0
0.0014878120000000002,0.011952134000000001,0.0031794118,-0.016019726,-0.007992406000000002,4.829,0,0
0.00013186800000000005,0.00021391399999999994,0.0008183937999999993,-0.006426626000000001,-0.003446908,4.83,0,0
-0.002073524,-0.009087186,-0.003003362200000001,0.0020830540000000004,-0.0001726560000000001,4.831,0,0
-0.003743476,-0.010989700000000002,-0.0050502922000000006,0.010414534,0.0026383100000000005,4.832,0,0
-0.0040439740000000005,-0.009557688000000002,-0.0036610060000000005,0.016641148,0.0050153540000000005,4.833,0,0
-0.0036856266000000006,-0.009230508000000002,0.0004248879999999998,0.01876762,0.0058773820000000004,4.834,0,0
-0.0020673266,-0.005264768,0.004317344,0.019442019999999997,0.006384728000000001,4.835,0,0
0.0014463334000000003,0.004348052000000001,0.0065147320000000005,0.01962858,0.006798632000000001,4.836,0,0
0.0043054094,0.011713966000000001,0.007215600000000001,0.01738164,0.0056684246,4.837,0,0
0.0051951994,0.015846000000000002,0.006320604,0.013126918,0.0034391066000000006,4.838,0,0
0.005972584000000001,0.018785128,0.004763492000000001,0.009149532,0.0011418506000000004,4.839,0,0
0.005942250000000001,0.009830408000000002,0.0034591660000000005,0.004300473999999999,-0.0010025694,4.84,0,0
0.0034559316000000004,-0.007926932000000001,0.0024290496,-0.0012787860000000003,-0.0025869234000000002,4.841,0,0
0.0018430496,-0.019910432000000002,0.0014218056000000001,-0.005462226000000001,-0.003440074,4.842,0,0
0.0018631996,-0.028827352,-0.00022726639999999976,-0.008383504,-0.0035409580000000003,4.843,0,0
0.0008677596,-0.03560258,-0.0022575124,-0.009879138,-0.0029197556,4.844,0,0
-0.00021592840000000002,-0.029471800000000003,-0.0040809484,-0.009144866,-0.0017758496000000001,4.845,0,0
-0.0006579460000000001,-0.018015726000000003,-0.006806424,-0.006035380000000001,0.00025006439999999996,4.846,0,0
-0.0017861400000000003,-0.013573822800000001,-0.009953136000000001,-0.002643386,0.0026380404000000005,4.847,0,0
-0.0031651160000000004,-0.0100226028,-0.012181460000000002,0.0006157699999999995,0.0045612364,4.848,0,0
-0.003640308,-0.0031811947999999994,-0.012543322,0.004010705999999999,0.006231986000000001,4.849,0,0
-0.0034710822,0.003149445200000001,-0.009571449999999999,0.005433395999999999,0.007225528,4.85,0,0
-0.0023364482,0.005630921200000001,-0.002788709999999999,0.0043139966,0.007013874000000001,4.851,0,0
-0.0002979141999999999,0.0053937126,0.0054119500000000004,0.0027259332000000003,0.006312856,4.852,0,0
0.0011277478,0.0041631106000000005,0.011327870000000002,0.0021800472,0.0053069300000000005,4.853,0,0
0.0014691718,0.0006048026000000008,0.013970814000000002,0.0011161372000000002,0.0032486160000000006,4.854,0,0
0.0011156379999999997,-0.0046677374,0.014153904000000002,-0.0007401167999999999,0.0005499220000000002,4.855,0,0
-0.000421168,-0.0073284454,0.012329904,-0.0030668434000000002,-0.002257358,4.856,0,0
-0.002543744,-0.0063228040000000004,0.009665518,-0.0069439340000000006,-0.0054851380000000005,4.857,0,0
-0.003601764,-0.003393292000000001,0.008849718000000001,-0.011040384,-0.007974422,4.858,0,0
-0.0035683,0.0011375840000000003,0.010066734,-0.01375245,-0.00876907,4.859,0,0
-0.00278895,0.006317744,0.009521947999999999,-0.015203999999999999,-0.00888017,4.86,0,0
-0.001194982,0.011442721999999999,0.004696268,-0.014908040000000001,-0.00841179,4.861,0,0
0.0006399180000000001,0.016719766,-0.0007101260000000002,-0.011955092,-0.006837064,4.862,0,0
0.0023391840000000002,0.021729596,-0.00299413,-0.008417522200000001,-0.0053304979999999995,4.863,0,0
0.003844438,0.023898040000000002,-0.007616370000000001,-0.005820434400000001,-0.005034242,4.864,0,0
0.004473384,0.022856346,-0.014242564,-0.0022193584000000004,-0.004644692000000001,4.865,0,0
0.0038109645400000005,0.0186445892,-0.013998224,0.0020600416,-0.0034429564000000006,4.866,0,0
0.00275513654,0.006954709200000002,-0.01194539,0.0050052536000000005,-0.0024948624,4.867,0,0
0.00183996854,-0.012015990800000001,-0.013326086000000001,0.0070325598,-0.0013585944000000004,4.868,0,0
0.00026735454000000026,-0.030291570800000004,-0.010072998,0.009629592000000001,0.0010081336000000002,4.869,0,0
-0.00129105146,-0.0422771168,-0.003915780000000001,0.011123276,0.0033324616000000003,4.87,0,0
-0.001425963,-0.04659938000000001,-0.0021392480000000007,0.010071664,0.004084014,4.871,0,0
-0.0012011827400000002,-0.03967076600000001,-0.0013249840000000002,0.008829162000000002,0.004232584,4.872,0,0
-0.0013521959400000002,-0.021425946,0.0001811880000000001,0.007776708000000001,0.0042427260000000005,4.873,0,0
-0.00124613194,-0.0011916260000000003,-0.00040846400000000004,0.00597633,0.0035068080000000006,4.874,0,0
-0.00122469994,0.015653174000000002,-0.0015586726,0.005203598,0.0035518360000000005,4.875,0,0
-0.00164338294,0.029294734000000003,-0.0018258086,0.00635313,0.004973046,4.876,0,0
-0.0022780612,0.0342301,-0.0013033848000000002,0.007426864,0.005920224000000001,4.877,0,0
-0.0028319440000000003,0.029110242000000005,0.0009921792,0.007873498,0.006316078,4.878,0,0
-0.0029345700000000005,0.021509290000000004,0.0040320632,0.007920966,0.00677231,4.879,0,0
-0.0025502710000000002,0.013258750000000001,0.006992633800000001,0.0063096176,0.006095622,4.88,0,0
-0.002218615,0.002520858000000001,0.0106210978,0.0031232236000000007,0.004386312000000001,4.881,0,0
-0.0017515174000000003,-0.00490189,0.012867356,0.0001573255999999996,0.004153414,4.882,0,0
-0.0008206014,-0.0054485078,0.010489252000000001,-0.0017729764000000002,0.0045828760000000005,4.883,0,0
-8.757539999999992e-05,-0.0037017178000000005,0.0034333720000000005,-0.0037377544,0.0031142640000000003,4.884,0,0
0.00018292500000000007,-0.0025092558,-0.004479968,-0.0050216060000000005,0.00098795,4.885,0,0
0.000825089,-0.0015869858,-0.010180588,-0.004498458,-0.001013706,4.886,0,0
0.0016519514000000002,0.00013531620000000009,-0.01309302,-0.003945948,-0.004437436,4.887,0,0
0.0017834454,0.0032260120000000003,-0.0123465222,-0.004220332,-0.007910028,4.888,0,0
0.0021057814000000003,0.007654374,-0.0077978362,-0.003580568,-0.008523832,4.889,0,0
0.0029743140000000005,0.012888192,-0.0026589546000000005,-0.002156108,-0.007277064000000001,4.89,0,0
0.0035693920000000002,0.016738894,1.4150999999999899e-05,-0.0008871719999999999,-0.005200206,4.891,0,0
0.00394351,0.01823346,0.0016226550000000002,0.0016640900000000002,-0.0017033019999999999,4.892,0,0
0.004270110000000001,0.016012008,0.0030291052,0.004310296,0.001890114,4.893,0,0
0.0038318712,0.0112510408,0.0040369612,0.005586156,0.003845042,4.894,0,0
0.0023064132,0.0055442747999999995,0.0064620196000000005,0.005852748,0.004312618,4.895,0,0
0.0003414231999999996,-0.006699145199999999,0.010147714,0.004703278,0.003986650600000001,4.896,0,0
-0.0010308568000000002,-0.0229741052,0.012531082000000002,0.0017862860000000004,0.0022796846,4.897,0,0
-0.0018229926,-0.0318021932,0.012241314000000001,-0.001677468,-9.829540000000012e-05,4.898,0,0
-0.0023391058,-0.032790446,0.010968474000000002,-0.004182214,-0.0013702834,4.899,0,0
-0.0022341738,-0.0298736,0.010144682000000002,-0.006224525999999999,-0.0019973794000000002,4.9,0,0
-0.0022031118,-0.01747876,0.006853192000000001,-0.007092686,-0.0024184440000000005,4.901,0,0
-0.0027546818,0.0024038000000000006,0.0014799919999999999,-0.00660375,-0.0019986822000000004,4.902,0,0
-0.0031495700000000004,0.01812576,-0.00199334,-0.005919260000000001,-0.0013907402000000002,4.903,0,0
-0.0026891842,0.026948680000000003,-0.004911742,-0.00595823,-0.0016779582,4.904,0,0
-0.0016883302,0.030493080000000002,-0.00865187,-0.006020322000000001,-0.0021887962000000003,4.905,0,0
-2.2692200000000115e-05,0.026137266000000003,-0.01198424,-0.0049433806,-0.0022663862,4.906,0,0
0.0019089458,0.006644006000000001,-0.014872779999999999,-0.0039522966,-0.0028372000000000007,4.907,0,0
0.0029803598,-0.021421334000000007,-0.015576860000000001,-0.0031053766000000006,-0.003224806,4.908,0,0
0.0028875354000000002,-0.041907914000000004,-0.013813408000000001,-0.0014825966,-0.0024992418,4.909,0,0
0.0019805754,-0.053336294,-0.011221129999999998,0.00017282860000000005,-0.0018901278000000004,4.91,0,0
0.0013599712,-0.05570646,-0.006896083999999999,0.0003481314,-0.0020258918000000004,4.911,0,0
0.0012465192,-0.04307177400000001,-0.0031352420000000003,-0.00017745940000000004,-0.0015088892000000003,4.912,0,0
0.0014428172,-0.021689211999999996,-0.00038741639999999983,-0.00020583740000000003,-0.0005400592000000001,4.913,0,0
0.0018048778,-0.006126352000000002,0.0044587316,-0.0003506838,-0.0004203154000000001,4.914,0,0
0.0019024438000000002,0.006464147999999999,0.0066148536,3.105899999999995e-05,0.00037641059999999997,4.915,0,0
0.000843068,0.022185408,0.0040934656,0.0013992727999999999,0.0016713066,4.916,0,0
-0.0011886820000000001,0.034418342,0.004503727599999999,0.0025658495999999996,0.0018632961999999998,4.917,0,0
-0.0026282280000000002,0.040326520000000005,0.005750280000000001,0.0034122095999999996,0.0020833481999999997,4.918,0,0
-0.002747112,0.04198766,0.0024226720000000007,0.004359132,0.0030438122,4.919,0,0
-0.002092914,0.03705348000000001,0.0006367960000000003,0.0048408259999999995,0.0033321002,4.92,0,0
-0.0012011048000000002,0.024695558,0.0027914000000000003,0.004765832,0.0032444481999999997,4.921,0,0
-1.943620000000001e-05,0.0137962332,0.00449933,0.005417308,0.004320488000000001,4.922,0,0
0.00019916579999999996,0.007940903200000002,0.0037413340000000002,0.007205934000000001,0.00567023,4.923,0,0
-0.0005417002000000001,0.0045975532,0.002317346,0.008608558,0.006367738,4.924,0,0
-0.0009810894,0.0038346132000000002,0.002779936,0.008932906,0.006878868,4.925,0,0
-0.0016500326,0.0024242792,0.0031423400000000004,0.007600542,0.007087732000000001,4.926,0,0
-0.0028811032,-0.004118916,0.0009275840000000004,0.004364242,0.006129976600000001,4.927,0,0
-0.0038018592,-0.014195466,-0.0019061180000000005,0.00041161599999999963,0.0035155446,4.928,0,0
-0.0045148712,-0.020801076,-0.0028270680000000003,-0.0034705480000000004,0.00012013460000000046,4.929,0,0
-0.004739974,-0.021957032,-0.0034995860000000007,-0.007773094000000001,-0.0037427754,4.93,0,0
-0.00320515,-0.016087376,-0.004588303,-0.012412194000000001,-0.0085322494,4.931,0,0
-0.0003168499999999998,-0.0037580159999999977,-0.0034618830000000007,-0.015396230000000004,-0.012559132,4.932,0,0
0.0032332459999999995,0.0034362159999999997,0.0005744210000000001,-0.017377144000000004,-0.014650936000000002,4.933,0,0
0.006266684,0.005309275999999998,0.0058294670000000005,-0.018840460000000003,-0.015064904000000002,4.934,0,0
0.0074133079999999995,0.012132451999999998,0.009584751,-0.017478068,-0.013104190000000002,4.935,0,0
0.0064370925999999995,0.016879452,0.012093042000000002,-0.012957466600000002,-0.008801326000000002,4.936,0,0
0.0040940526,0.013350652,0.013649072000000002,-0.0075229026,-0.004402026000000002,4.937,0,0
0.0015448445999999998,0.01151156,0.012238933600000002,-0.0024929306,-0.0008738839999999999,4.938,0,0
-0.0006018114,0.0070110200000000015,0.007460463600000001,0.0033292894,0.002317772,4.939,0,0
-0.0012186274,-0.007462080000000002,0.0012264296000000004,0.0087660574,0.004479048,4.94,0,0
-0.00073152,-0.01899324,-0.007068370400000001,0.012745916000000001,0.005674719999999999,4.941,0,0
-0.001414764,-0.021071412000000005,-0.0163134584,0.016781532000000002,0.0069492980000000005,4.942,0,0
-0.0026131039999999998,-0.017229329400000003,-0.019484183999999998,0.02056968,0.008273736,4.943,0,0
-0.00284681,-0.008680401400000001,-0.017876114000000002,0.0224576,0.008824306,4.944,0,0
-0.003640396,-5.759400000000282e-06,-0.015408500000000004,0.02279398,0.009091962,4.945,0,0
-0.004325958,0.003953692599999999,-0.008526776,0.022489260000000004,0.009620166000000001,4.946,0,0
-0.0029614112,0.0040641626,0.0005480480000000004,0.019451378000000002,0.009515738,4.947,0,0
-0.0009462392,0.0023715259999999997,0.005162156000000001,0.014251105600000001,0.008649542,4.948,0,0
0.0010486928,0.00030464399999999953,0.006707676000000001,0.0094119956,0.008432956,4.949,0,0
0.0038562928,-0.0015111760000000004,0.007599874,0.0037265676000000003,0.00763467,4.95,0,0
0.006042072799999999,-0.0032337582000000007,0.006952414,-0.0035203524,0.004116938,4.951,0,0
0.006319089999999999,-0.003540080000000001,0.0052662,-0.0099892504,-0.00016973200000000056,4.952,0,0
0.0055193939999999995,-0.0027486300000000006,0.0025825959999999995,-0.014888438,-0.004046356000000001,4.953,0,0
0.0033426799999999993,-0.0025735920000000004,-0.0006807100000000004,-0.020645788,-0.008482412000000002,4.954,0,0
0.00014997799999999983,-0.002748452,-0.0026621660000000005,-0.025574540000000003,-0.011938772000000002,4.955,0,0
-0.0022740000000000004,-0.0015682698,-0.0025316220000000003,-0.02638986,-0.012569980000000001,4.956,0,0
-0.0030928240000000005,0.0004058940000000004,-0.0010071400000000006,-0.02512514,-0.011607506000000002,4.957,0,0
-0.0029975220000000007,0.0022551160000000006,0.0005221639999999999,-0.02257528,-0.009885178000000001,4.958,0,0
-0.0024097046000000006,0.003065536,0.0017017964000000001,-0.017164294,-0.00753068,4.959,0,0
-0.001387809,0.0015752540000000003,0.0023316943999999997,-0.010617113199999998,-0.005771954,4.96,0,0
-0.00028220900000000006,-0.0011948840000000002,0.0013034744,-0.005342775199999999,-0.0042847219999999995,4.961,0,0
0.0006352510000000001,-0.0027451180000000004,-0.0005593036,-0.00015847920000000028,-0.0025050043999999996,4.962,0,0
0.00011420700000000007,-0.0031787300000000003,-0.0019678576,0.0052473408,-0.0009964764,4.963,0,0
-0.0009117184000000002,-0.005740834,-0.002341758,0.0088621548,0.0004706516000000001,4.964,0,0
-0.0015060340000000003,-0.009150874,-0.0012217820000000002,0.012033874,0.0023492316000000004,4.965,0,0
-0.0023198620000000002,-0.012218748000000001,0.0005871240000000003,0.015295096000000001,0.0043625396000000006,4.966,0,0
-0.0027580449400000004,-0.014484692,0.0020119580000000003,0.016458640000000004,0.005711860000000001,4.967,0,0
-0.0021108145400000004,-0.011926818,0.0029711958000000005,0.0159425,0.0062737420000000006,4.968,0,0
-0.0011275745400000001,-0.0033282380000000016,0.0032228348400000005,0.015367380000000002,0.006548044000000001,4.969,0,0
-0.00076862814,0.007173302000000001,0.0014642288400000003,0.013712194000000002,0.00647924,4.97,0,0
-0.00035531894000000007,0.014788282,-0.0013859071600000003,0.009238832,0.005403398,4.971,0,0
0.0005336240000000001,0.018357378,-0.0027710771600000005,0.004040752000000001,0.003787702,4.972,0,0
0.0016290696000000001,0.019982017999999997,-0.00375806296,-0.0007873679999999997,0.0018882019999999998,4.973,0,0
0.0026851636,0.023583498,-0.0053142680000000005,-0.007077248,-0.0012854800000000003,4.974,0,0
0.0042285332000000005,0.029177757999999998,-0.005438234,-0.013987742000000001,-0.004774882,4.975,0,0
0.0057247800000000005,0.034061298000000004,-0.003758682,-0.01860834,-0.00743108,4.976,0,0
0.005746588,0.035872060000000004,-0.0007258600000000005,-0.020223740000000004,-0.009358936,4.977,0,0
0.0046368374000000006,0.029515004,0.0038908740000000008,-0.019802709999999998,-0.009863876,4.978,0,0
0.0032595894,0.015262904,0.009113334,-0.0160919402,-0.008348966,4.979,0,0
0.0017064231999999997,0.001262744,0.01374375,-0.0090059602,-0.00572751,4.98,0,0
-0.0003543168,-0.008176010000000001,0.01707562,-0.001216500200000001,-0.0028473020000000003,4.981,0,0
-0.0019537888,-0.012542636000000001,0.01735554,0.0054767198,0.0002535440000000001,4.982,0,0
-0.0023967302,-0.01602572,0.012007622,0.0107464098,0.0035228060000000003,4.983,0,0
-0.0028759442,-0.022631740000000004,0.0027700020000000006,0.015604380000000001,0.006563770000000001,4.984,0,0
-0.004140762000000001,-0.0286322,-0.005176498,0.01997652,0.009264174,4.985,0,0
-0.005399650000000001,-0.032700346000000005,-0.010147832,0.023707080000000002,0.011918266,4.986,0,0
-0.0060649,-0.03661598,-0.013541622,0.026983860000000002,0.014283080000000002,4.987,0,0
-0.006139774000000001,-0.03472428,-0.013431568,0.028478,0.01573832,4.988,0,0
-0.005709986000000001,-0.022794447,-0.008495250000000001,0.027472840000000002,0.01610058,4.989,0,0
-0.004483071400000001,-0.010485506999999998,-0.003938108000000001,0.02381244,0.01530842,4.99,0,0
-0.0024450054000000002,-0.001582506999999999,-0.001513114,0.0175425152,0.012725746,4.991,0,0
-0.0003364374000000001,0.0077100730000000004,0.0007334360000000001,0.0091066752,0.008712236,4.992,0,0
0.0017865626,0.016158213,0.001788498,-0.00043986480000000015,0.0035531500000000006,4.993,0,0
0.0039043366,0.02204068,-0.0008995200000000004,-0.0103887648,-0.0035230699999999997,4.994,0,0
0.005448954000000001,0.02559076,-0.006386242,-0.0203436648,-0.011366570000000001,4.995,0,0
0.005969220000000001,0.02813716,-0.009669842000000001,-0.02860654,-0.017696636,4.996,0,0
0.0053934588000000006,0.026010560000000002,-0.011282910000000002,-0.033473840000000005,-0.021975766,4.997,0,0
0.004076976,0.015341480000000001,-0.012667428000000001,-0.03342326,-0.023220240000000003,4.998,0,0
0.0026535075999999996,-0.00127268,-0.009139897999999999,-0.029022826000000005,-0.02001357,4.999,0,0
0.0010509356,-0.01762132,-0.0015117380000000008,-0.022658538000000002,-0.014299628799999999,5.0,0,0
-0.00020343840000000004,-0.03174126,0.003665442,-0.014855956000000002,-0.008540807599999999,5.001,0,0
-0.0007508152000000001,-0.041537580000000004,0.006044398,-0.006697058000000001,-0.0030696856,5.002,0,0
-0.0010805110000000001,-0.0414368,0.009225750000000001,-0.0009230919999999999,0.0014931504,5.003,0,0
-0.0008579866000000001,-0.033509220000000006,0.01150476,0.002150258,0.0042304704,5.004,0,0
-0.0001902206,-0.022187410000000005,0.01118284,0.00459273,0.0056100512000000005,5.005,0,0
0.0006247734,-0.00641865,0.0080394746,0.0063873,0.006809154000000001,5.006,0,0
0.0017213354000000002,0.01136791,0.0021517466,0.006605774,0.007725830000000001,5.007,0,0
0.0021116676000000004,0.02350885,-0.0016376054,0.0072360540000000004,0.007466330000000001,5.008,0,0
0.0005072476000000002,0.02825135,-0.003344023400000001,0.00864237,0.005992704000000001,5.009,0,0
-0.0012407404,0.027888566,-0.0049373634,0.009171368,0.0045087700000000005,5.01,0,0
-0.0017527214000000002,0.023196566000000002,-0.003815410000000001,0.008980766000000001,0.0035343880000000003,5.011,0,0
-0.0028722594000000004,0.017293186000000002,0.000683786,0.008289836,0.0020767586,5.012,0,0
-0.004322191,0.014873666,0.003505818,0.0065442764,0.00011160660000000008,5.013,0,0
-0.004509537,0.016009046000000002,0.0018969860000000002,0.0037840358,-0.0013363554,5.014,0,0
-0.004933403,0.01760832,-0.00032388999999999996,0.00193728068,-0.0022665714,5.015,0,0
-0.00691337,0.0167367,-0.0011240882000000002,0.00143199268,-0.0029474254,5.016,0,0
-0.008483468000000001,0.012846962,-0.0007600782,0.0012132746800000002,-0.00273101,5.017,0,0
-0.00812718,0.007163206000000001,-0.00047938219999999973,0.0011815058800000002,-0.0019451664000000003,5.018,0,0
-0.0058766320000000006,0.0004890460000000004,0.0014394138,0.00099039048,-0.0009848532,5.019,0,0
-0.0018145339999999996,-0.005588534000000001,0.0056536498000000004,-7.429240000000003e-05,-0.00016414640000000002,5.02,0,0
0.002610686,-0.010470934000000001,0.009134980000000001,-0.0026180444,-0.00045315240000000004,5.021,0,0
0.005916662,-0.013080138,0.012152234000000001,-0.0053087684,-0.0015006244,5.022,0,0
0.007785326,-0.014057662000000002,0.013841906000000001,-0.00737504,-0.002550324,5.023,0,0
0.008749296000000002,-0.015206182000000002,0.0128043398,-0.009465844000000001,-0.0035301992,5.024,0,0
0.009194396,-0.016993922,0.009406491800000001,-0.011170464000000001,-0.00387253,5.025,0,0
0.009828816,-0.019112822,0.0016797118000000007,-0.011739494000000001,-0.00359765,5.026,0,0
0.011629258000000002,-0.02189086,-0.0119132882,-0.011227688000000001,-0.0035377060000000003,5.027,0,0
0.012657868000000001,-0.02342102,-0.024808588200000002,-0.010633466000000001,-0.003062754,5.028,0,0
0.011140526,-0.02089686,-0.029292587999999998,-0.008795762,-0.00198425532,5.029,0,0
0.008109208,-0.017388840000000003,-0.027766316000000003,-0.005319673999999999,-0.00075259732,5.03,0,0
0.00466433,-0.012050071999999998,-0.022979678,-0.0016925040000000003,0.0007314906800000003,5.031,0,0
0.0002403119999999997,-0.0002731519999999996,-0.012732198,0.00258711,0.0027583666800000003,5.032,0,0
-0.0039057680000000004,0.016476108,-0.0006639979999999994,0.006603162000000001,0.00485717668,5.033,0,0
-0.005288866,0.033438408,0.005049332,0.008770178000000002,0.006285824000000001,5.034,0,0
-0.005232154,0.048786328000000004,0.005904776,0.009462202000000001,0.006517944000000001,5.035,0,0
-0.005851281999999999,0.055408580000000006,0.007530657999999999,0.009277846000000001,0.0056523960000000005,5.036,0,0
-0.005797204,0.043908920000000004,0.009710198,0.0074619740000000006,0.004540512,5.037,0,0
-0.004325322000000001,0.021174120000000008,0.011380118000000002,0.0048800244,0.0028093976000000006,5.038,0,0
-0.004122886,-0.00039601999999999866,0.012385948,0.0039842444,0.0012203948,5.039,0,0
-0.005189474,-0.0201765,0.011736528,0.0034586004,0.0002507751200000001,5.04,0,0
-0.005382724,-0.03642948,0.009378028,0.0019790244000000004,-0.00088680688,5.041,0,0
-0.004911028,-0.03987596,0.008039840000000001,0.0007117424000000002,-0.0019695228800000004,5.042,0,0
-0.0043732572,-0.033631600000000005,0.0080015,2.468800000000014e-05,-0.00242455448,5.043,0,0
-0.0034032214,-0.028464428000000007,0.007535204,-0.0007335766,-0.0026199296800000003,5.044,0,0
-0.0023607054,-0.023112724000000005,0.007709818000000001,-0.0003076846000000001,-0.0023720020000000002,5.045,0,0
-0.0023377394000000003,-0.01244535,0.007662838800000001,0.0028337974,-0.0004214660000000001,5.046,0,0
-0.0036089354,-0.0004152499999999998,0.0020723668000000002,0.0071610514,0.0021400860000000002,5.047,0,0
-0.0044156402,0.00867059,-0.0062889132,0.012074775400000001,0.00416601,5.048,0,0
-0.00361712,0.017203218,-0.010180737200000001,0.01739752,0.006292998,5.049,0,0
-0.0020913199999999994,0.024402014000000003,-0.010921913200000001,0.021157560000000002,0.008115944,5.05,0,0
4.90820000000001e-05,0.02524098,-0.009072722000000002,0.02239454,0.008734516000000001,5.051,0,0
0.0022925700000000003,0.019944664,-0.003092584,0.02221626,0.009325872,5.052,0,0
0.0031691502,0.011501223999999999,0.0029494980000000005,0.02089472,0.010536463999999999,5.053,0,0
0.0020582362000000002,0.0011900839999999992,0.004051998,0.017568175999999998,0.010348636000000001,5.054,0,0
0.0004498081999999998,-0.0058085079999999996,0.0015838280000000004,0.013362998000000001,0.008134495800000002,5.055,0,0
-0.0005472676,-0.0062990039999999995,-0.002160868,0.00910302,0.0053705278,5.056,0,0
-0.0007873356,-0.003908862,-0.005776426,0.0037315480000000008,0.0015637518000000004,5.057,0,0
-0.0004276938,-0.0017865819999999992,-0.004999284,-0.0030559519999999994,-0.0033887482000000005,5.058,0,0
0.0006247882,0.0004619860000000004,-0.0005210839999999998,-0.010340328,-0.0074300562,5.059,0,0
0.0024901822,0.0034981580000000003,0.00235496,-0.017758529999999998,-0.010593516,5.06,0,0
0.0037690780000000004,0.003845994,0.003672332,-0.024536931999999997,-0.013301216,5.061,0,0
0.003909626200000001,0.0022322,0.005684066,-0.029197419999999998,-0.01444826,5.062,0,0
0.0034261744000000003,0.0011823200000000002,0.005158737999999999,-0.031775779999999997,-0.014389240000000001,5.063,0,0
0.0026580464000000004,-0.0031981880000000007,0.0022651620000000003,-0.03282032,-0.01417758,5.064,0,0
0.0011333254200000004,-0.009286888,0.002174608,-0.03244492,-0.01287243,5.065,0,0
-2.0766780000000008e-05,-0.010079098,0.003610242,-0.03174438,-0.010662860000000001,5.066,0,0
0.0007686050200000001,-0.006007630000000001,0.00358262,-0.03030918,-0.008618718000000001,5.067,0,0
0.0022767328200000003,2.866999999999887e-05,0.001888042,-0.025456854,-0.006133532,5.068,0,0
0.0026767428200000004,0.00886291,-0.0034228220000000007,-0.017791898,-0.0031035899999999994,5.069,0,0
0.0021342218,0.01505569,-0.011032728000000002,-0.008999798,0.00011483200000000004,5.07,0,0
0.0013608000000000001,0.014204552000000002,-0.014988830000000002,0.0010576220000000002,0.0033582460000000005,5.071,0,0
-0.00016221399999999993,0.010384794376000001,-0.014812458,0.011570682,0.006093844000000001,5.072,0,0
-0.002532716,0.005802244376,-0.012258558,0.019752556,0.007946918,5.073,0,0
-0.004498212,0.0006442003760000002,-0.006816514000000001,0.02443754,0.009061828000000001,5.074,0,0
-0.004805932,-0.0036186636240000004,-0.0009354960000000001,0.027693600000000002,0.009610858000000002,5.075,0,0
-0.004622688,-0.005803391624000001,0.002075735,0.029313520000000003,0.009354432,5.076,0,0
-0.004913264,-0.007244706000000001,0.002083781,0.026969820000000005,0.007906706000000001,5.077,0,0
-0.004096834000000001,-0.00778,0.0013856750000000003,0.020766990000000003,0.005559171600000001,5.078,0,0
-0.0012743340000000002,-0.005689902,0.0015355810000000003,0.013345994,0.0028936635999999996,5.079,0,0
0.0017156200000000002,-0.0026118360000000006,0.002500499,0.004315274000000001,-0.00030667840000000047,5.08,0,0
0.0038265260000000002,-0.0004522880000000001,0.0031100320000000004,-0.006443226,-0.004415316400000001,5.081,0,0
0.0059857700000000005,0.0005803239999999999,0.0040258080000000005,-0.014732766000000001,-0.007715930400000001,5.082,0,0
0.0075952300000000006,-5.234000000000011e-06,0.00459707,-0.018666196,-0.008923132000000002,5.083,0,0
0.007466790000000001,-0.003498788,0.004443804000000001,-0.0197015,-0.008860924000000001,5.084,0,0
0.006142206,-0.009520190000000001,0.004357302200000001,-0.018336777999999998,-0.007582146000000001,5.085,0,0
0.004824564,-0.013506502,0.0019157422000000003,-0.013505153999999998,-0.004969158800000001,5.086,0,0
0.0034768066,-0.01368145,-0.0024831638,-0.008310418,-0.0025153008000000005,5.087,0,0
0.0018949606,-0.0124224296,-0.0052721938,-0.005548524,-0.0012896344000000001,5.088,0,0
0.00040565460000000007,-0.009080151,-0.0050289858,-0.0030848069999999997,-0.00012094040000000002,5.089,0,0
-0.0005929032000000002,-0.003056048999999999,-0.0033383419999999994,-0.0008916790000000001,0.0009051176,5.09,0,0
-0.0006807124,0.0018873650000000002,0.0006661140000000002,-0.00017056040000000002,0.0014405724000000001,5.091,0,0
-0.0004850334000000001,0.004706273,0.006109014000000001,0.0011434996,0.0027228664,5.092,0,0
-0.0004004122000000001,0.0080518746,0.008387850000000002,0.0044785856,0.004302844,5.093,0,0
-0.00022462880000000005,0.00977204,0.0066880080000000005,0.0072236686,0.00502236,5.094,0,0
-0.000737991,0.0087730546,0.003977191999999999,0.0094047186,0.00528228,5.095,0,0
-0.0018813958,0.0072771622,0.0006270860000000004,0.012191676000000002,0.006145312,5.096,0,0
-0.0029570414000000002,0.004337518200000001,-0.0035909080000000003,0.013280480000000002,0.006458734,5.097,0,0
-0.0038685346,0.00025101019999999993,-0.00571906,0.01291986,0.005365674,5.098,0,0
-0.00427345,-0.0017739462000000003,-0.005679354,0.01343358,0.00461186,5.099,0,0
-0.0034559700000000005,-0.0026171508000000002,-0.0048747584,0.01373696,0.004220618000000001,5.1,0,0
-0.0023536188000000007,-0.0047862524000000005,-0.0031414024000000003,0.011991406,0.00323873,5.101,0,0
-0.0023512948,-0.0063001484,-9.678840000000013e-05,0.010516194,0.0027811100000000003,5.102,0,0
-0.0026633808,-0.006388772400000001,0.0026398836,0.00957116,0.0038975200000000002,5.103,0,0
-0.0032107588000000005,-0.006463096000000001,0.004007983600000001,0.007411496000000001,0.00493557,5.104,0,0
-0.004203288800000001,-0.004800484000000001,0.0049025860000000004,0.006073156000000001,0.005628288,5.105,0,0
-0.005007974,-0.0013811700000000001,0.005826844,0.006582620000000001,0.00669827,5.106,0,0
-0.004818468,0.00225538,0.00533513,0.006382564000000001,0.006328632000000001,5.107,0,0
-0.0038060040000000004,0.006955192000000001,0.0033713820000000005,0.004834442,0.004494512,5.108,0,0
-0.002866462,0.011613367999999999,0.0025697660000000002,0.0033041820000000006,0.0023984160000000004,5.109,0,0
-0.0021391170000000003,0.016698044,0.0024518280000000005,0.00044220800000000036,-0.00036730599999999986,5.11,0,0
-0.0012397902000000002,0.02318129,0.0031116320000000005,-0.0037972020000000004,-0.0038596340000000002,5.111,0,0
-0.00010876419999999992,0.03032782,0.0057664660000000005,-0.007285514000000001,-0.006355554000000001,5.112,0,0
0.0007048638000000002,0.03716212,0.007448014000000001,-0.009700118,-0.007055246,5.113,0,0
0.0010731512000000001,0.04164946,0.004547954,-0.012880374,-0.007388562000000001,5.114,0,0
0.0006394862,0.03867196,0.0005751720000000001,-0.015593300000000001,-0.007762868,5.115,0,0
-2.2506599999999924e-05,0.018803820000000002,-0.001902842,-0.01579376,-0.007525884000000001,5.116,0,0
-0.0002441566,-0.015718600000000006,-0.007642422,-0.01532876,-0.0071323160000000005,5.117,0,0
0.0004312434,-0.052504920000000004,-0.013495922,-0.01517576,-0.007765488000000001,5.118,0,0
0.003072276,-0.08426046000000001,-0.013036842,-0.014376640000000001,-0.008863554000000001,5.119,0,0
0.006546050000000001,-0.10166036,-0.010953358,-0.01347064,-0.008972734000000001,5.12,0,0
0.008622678,-0.09154742000000002,-0.010846632,-0.01399566,-0.008828700000000002,5.121,0,0
0.009952554000000002,-0.05836680000000001,-0.0084255652,-0.013629614000000002,-0.00829999,5.122,0,0
0.010502505999999998,-0.017454280000000003,-0.0036978052000000003,-0.011415668,-0.006000402000000001,5.123,0,0
0.008453838,0.025465920000000003,0.0010719148,-0.008909097999999999,-0.0032540820000000006,5.124,0,0
0.0058891379999999995,0.05827158,0.0062506308,-0.005258572,-0.0006935859999999998,5.125,0,0
0.004885264,0.06950658000000001,0.0104925668,-0.0009287420000000004,0.00249466,5.126,0,0
0.003997158000000001,0.06391835800000001,0.0153439,0.0015993440000000002,0.004566908000000001,5.127,0,0
0.0031382600000000004,0.048694143999999995,0.019533900000000003,0.0033979020000000004,0.004879124,5.128,0,0
0.003310228,0.027606580000000002,0.017703806000000002,0.006531932000000001,0.005557992000000001,5.129,0,0
0.0031500791999999997,0.006787560000000002,0.009643686000000002,0.009232566000000001,0.006280582,5.13,0,0
0.0013813192000000003,-0.00584596,-0.002477273999999999,0.012033316,0.006247336,5.131,0,0
-0.0013050067999999999,-0.010237058,-0.012660734,0.016438884,0.007139906,5.132,0,0
-0.0043192028,-0.010953754000000001,-0.015952198,0.020306380000000002,0.008474028000000002,5.133,0,0
-0.0077893828,-0.0097732374,-0.015494640000000002,0.02286822,0.008700886,5.134,0,0
-0.010339594,-0.006593407400000001,-0.012781598000000002,0.02547572,0.008700144,5.135,0,0
-0.010786928000000001,-0.0019213674,-0.005924164000000001,0.027387480000000002,0.008729026,5.136,0,0
-0.010173933999999999,0.0017584166000000003,-0.0011195060000000001,0.027078320000000006,0.008092914,5.137,0,0
-0.009473112000000002,0.0036493646000000006,-0.0030907000000000005,0.02524592,0.007108268000000001,5.138,0,0
-0.008529642,0.004497156,-0.004059786200000001,0.02213576,0.006082870000000001,5.139,0,0
-0.0074371920000000005,0.0043005380000000005,-0.0005540881999999995,0.016679196,0.004869930000000001,5.14,0,0
-0.006637516000000001,0.0029475440000000003,0.0024176198000000005,0.010107932000000002,0.0035898428000000005,5.141,0,0
-0.00561794,0.0005168380000000001,0.0025846818000000004,0.0042268919999999995,0.0022462539599999998,5.142,0,0
-0.004282891800000001,-0.0030887600000000003,0.0021609258000000004,-0.00120402,0.0007359419600000002,5.143,0,0
-0.0025615806,-0.008178204000000001,0.0011157900000000004,-0.0072751,-0.00100101604,5.144,0,0
-0.001188878,-0.012538956,-0.001935346,-0.014028836,-0.00301572404,5.145,0,0
-0.00028430220000000007,-0.014322022000000002,-0.004210974,-0.020612052,-0.00500454084,5.146,0,0
0.0010441258000000002,-0.014397594000000003,-0.005311237999999999,-0.027518192,-0.007713112000000001,5.147,0,0
0.0020845996,-0.013678734000000001,-0.0066312839999999994,-0.033969860000000004,-0.011063714,5.148,0,0
0.0036402004000000003,-0.011694874000000001,-0.006432218,-0.037154160000000006,-0.013298044000000002,5.149,0,0
0.007458067800000001,-0.00764943,-0.003656274,-0.0371823,-0.015268944000000001,5.15,0,0
0.011863404000000001,-0.00296571,0.0012742320000000001,-0.035088900000000006,-0.017824640000000003,5.151,0,0
0.014200106,0.003415024000000001,0.009441156,-0.029378260000000003,-0.01828706,5.152,0,0
0.015789662,0.011925044,0.020447096,-0.020945727200000003,-0.015141228000000001,5.153,0,0
0.016623799999999998,0.020108864,0.030174868,-0.012857533200000002,-0.010958522000000002,5.154,0,0
0.014321022000000001,0.02677292,0.03468274,-0.0053243712000000006,-0.006678254,5.155,0,0
0.009818422,0.02998966,0.03130422,0.0012602148000000002,-0.0012791200000000001,5.156,0,0
0.005238232000000001,0.02674421,0.01819252,0.0047549768000000004,0.003077184,5.157,0,0
0.0008480459999999999,0.01648441,0.0014622399999999983,0.005561900000000001,0.004803064,5.158,0,0
-0.0038163340000000002,0.003603430000000001,-0.011821500000000002,0.006201564000000001,0.005768564,5.159,0,0
-0.007718296,-0.00913855,-0.02302802,0.007220262000000002,0.0070070160000000005,5.16,0,0
-0.009647008,-0.01908555,-0.0272689,0.0073199960000000005,0.007473674,5.161,0,0
-0.009992176,-0.0222596,-0.020349462000000002,0.006947302000000001,0.0070022059999999995,5.162,0,0
-0.00969584,-0.019326292000000002,-0.01138815,0.00650915,0.005879148399999999,5.163,0,0
-0.00892792,-0.015708172000000003,-0.00754762,0.004997308200000001,0.0039549723999999994,5.164,0,0
-0.008777780000000002,-0.016011652,-0.004818319999999999,0.0037729881999999998,0.0019051244000000001,5.165,0,0
-0.009261768,-0.017118152,-0.0021292259999999997,0.004344568199999999,0.0008335684000000002,5.166,0,0
-0.008248154,-0.015387142400000001,-0.002932586,0.0055444862000000004,0.0009211264,5.167,0,0
-0.006097598,-0.0116398104,-0.0032935779999999997,0.0069337882,0.001365332,5.168,0,0
-0.004193657999999999,-0.0056475304,-0.001458958,0.009399812,0.0022979439999999997,5.169,0,0
-0.001933568,0.003419329600000001,-7.700200000000017e-05,0.011474392000000002,0.0036780019999999997,5.17,0,0
0.0006601053999999999,0.0114717096,-0.0008108220000000002,0.011813492000000002,0.004324229999999999,5.171,0,0
0.0017610974000000002,0.0134876,-0.0016805040000000002,0.012158546000000001,0.0047331479999999995,5.172,0,0
0.0017262274,0.011032352,-0.00032659599999999974,0.01270164,0.005632594000000001,5.173,0,0
0.0017375914,0.005629952000000001,0.00044313000000000013,0.011303018000000001,0.006387358000000001,5.174,0,0
0.0021070513999999997,-0.001128928,-0.0007023939999999998,0.008902514,0.006532456000000001,5.175,0,0
0.003175148,-0.005251358,-0.00048371800000000017,0.007797788,0.00644052,5.176,0,0
0.0040553080000000005,-0.0075755862000000005,0.0021105319999999996,0.006184696,0.005945274,5.177,0,0
0.004114528,-0.010331278200000002,0.0013432319999999998,0.0038255686000000003,0.004842292,5.178,0,0
0.0037205894000000004,-0.010941198200000002,-0.0007452744000000002,0.002676255400000001,0.0036008500000000005,5.179,0,0
0.0028692214,-0.0082641662,0.0003491255999999999,0.0013020714000000003,0.0018611460000000002,5.18,0,0
0.0015661064,-0.006105696200000001,0.0010541315999999996,-0.0009229966000000001,-0.0001489439999999998,5.181,0,0
0.0013566044,-0.002997148000000001,0.0007924056,-0.0019787846,-0.001564512,5.182,0,0
0.0026167044,0.0039660319999999995,0.0006219936,-0.0022967092,-0.002600824,5.183,0,0
0.0036933290000000004,0.011391172,0.00013574400000000014,-0.00338333,-0.004058394,5.184,0,0
0.003426649,0.01725188,0.00033175000000000023,-0.004054462,-0.0051787940000000005,5.185,0,0
0.002346854,0.02198396,0.0009455176000000005,-0.004317934,-0.005356228,5.186,0,0
0.0009191779999999997,0.02421596,0.0006754916000000003,-0.005126446000000001,-0.005357216000000001,5.187,0,0
-0.001513376,0.02181046,0.0014198816000000002,-0.006127454000000001,-0.005206124,5.188,0,0
-0.0029716100000000004,0.016806874,0.0032055116000000005,-0.006206788000000001,-0.00400709762,5.189,0,0
-0.0018927040000000003,0.0120206286,0.0036623984,-0.005193576000000001,-0.0021089336199999996,5.19,0,0
-0.0009453162000000003,0.0072076826,0.0027490068000000003,-0.004401452,-0.00101469002,5.191,0,0
-0.0013550882000000002,0.0019707184,0.0017301768000000004,-0.0030402539999999996,5.529398000000008e-05,5.192,0,0
-0.0017507802,-0.0015465936,-0.0005236952000000001,-0.0002930280000000001,0.0013128839800000001,5.193,0,0
-0.0023996122000000003,-0.0016476735999999999,-0.0035514232,0.002478012,0.0014994650000000002,5.194,0,0
-0.0032598162000000005,-0.0013796941999999997,-0.0041107,0.0049472000000000006,0.001567751,5.195,0,0
-0.0030387141999999997,-0.0014900401999999998,-0.0031533668,0.007196538,0.0021975034,5.196,0,0
-0.0022637922,-0.00036870999999999974,-0.0028598528,0.007470208,0.0021408134000000002,5.197,0,0
-0.0015866982000000002,0.002608618,-0.0022241203999999997,0.005769338000000001,0.0016743454000000002,5.198,0,0
-0.0010093082,0.00536948,-2.9076400000000086e-05,0.0033790880000000006,0.0017015160000000001,5.199,0,0
-0.0007723254000000001,0.0041193720000000005,0.0017803476,-0.0004068440000000004,0.000902426,5.2,0,0
0.00012254279999999995,-0.0013036560000000003,0.0026818364,-0.004942520000000001,-0.001128226,5.201,0,0
0.0017682288,-0.009121082,0.0043039464,-0.008401596,-0.003078684,5.202,0,0
0.0034380608,-0.017944058000000002,0.006211703999999999,-0.010919552,-0.004598328,5.203,0,0
0.004926404800000001,-0.027874374,0.007340602,-0.012771632000000002,-0.00586422,5.204,0,0
0.005395614000000001,-0.0362234,0.008149736000000001,-0.012561376,-0.005916832,5.205,0,0
0.0044170168000000004,-0.03849992,0.008355444,-0.010011919400000001,-0.0042275096,5.206,0,0
0.0031023628000000007,-0.03448126,0.007476728000000001,-0.006418585400000001,-0.0021329256,5.207,0,0
0.0023476568000000003,-0.026586503999999997,0.005808859600000001,-0.0015819254000000002,4.5264400000000074e-05,5.208,0,0
0.0013676276000000002,-0.012625003999999997,0.0027986076,0.004785414600000001,0.0025526384000000004,5.209,0,0
0.0007175116000000001,0.005280416000000001,0.0004112436000000003,0.010507150600000001,0.0043656424000000004,5.21,0,0
0.0005085487999999999,0.016205036,-0.0006958748,0.014803554000000003,0.0053345860000000005,5.211,0,0
-0.00022372120000000014,0.019505994000000002,-0.0030570448000000004,0.01847122,0.006090364000000001,5.212,0,0
-0.0012697612,0.021189018,-0.005894440400000001,0.02015736,0.006216912000000001,5.213,0,0
-0.00232684,0.020035018,-0.0066905524,0.01937416,0.005487886000000001,5.214,0,0
-0.0030340140000000007,0.015835578,-0.006299644,0.01775692,0.005110924000000001,5.215,0,0
-0.00403474,0.013847358,-0.006063133599999999,0.015608536,0.005354050000000001,5.216,0,0
-0.005317850000000001,0.013582208000000002,-0.0060229236000000005,0.010738526,0.004244588600000001,5.217,0,0
-0.006182038000000001,0.011617624000000002,-0.006318523600000001,0.0030009859999999998,0.0011595486,5.218,0,0
-0.006466764,0.009324444000000001,-0.0058228416,-0.006172394000000001,-0.0026926994000000004,5.219,0,0
-0.005353682,0.008688544,-0.006197076000000001,-0.016485394,-0.0066291734000000005,5.22,0,0
-0.0033722400000000003,0.00865869,-0.007984350000000001,-0.026621330000000002,-0.010419333400000001,5.221,0,0
-0.0014912946000000002,0.011671802000000002,-0.00859101,-0.0331185,-0.012479656,5.222,0,0
0.0014043054000000004,0.019429306,-0.0072644960000000005,-0.03393106,-0.011506978000000001,5.223,0,0
0.005122601400000001,0.024324166,-0.005920174,-0.031037880000000004,-0.009654878,5.224,0,0
0.007397853400000001,0.025861986000000003,-0.0052892600000000005,-0.025137244000000003,-0.008074532,5.225,0,0
0.0080815234,0.025763434,-0.0023847060000000003,-0.017165242000000004,-0.006004246,5.226,0,0
0.008331328,0.019650494,0.0017131019999999996,-0.009650106000000002,-0.004118828400000001,5.227,0,0
0.007933187999999999,0.006791894,0.006139468,-0.0038015119999999995,-0.0029964522,5.228,0,0
0.00658275,-0.012437586,0.011800284000000001,0.0008787320000000001,-0.0013236262000000003,5.229,0,0
0.004402866,-0.032781266,0.016405194,0.004797296,0.0008202158000000001,5.23,0,0
0.002506852,-0.04343048000000001,0.017004420000000003,0.007344454,0.0018648998,5.231,0,0
0.0014119879999999999,-0.043522200000000004,0.014894192399999999,0.009562138000000001,0.0029250222000000003,5.232,0,0
-0.000473336,-0.038855561600000005,0.0109311864,0.011505324,0.004476964,5.233,0,0
-0.002722098,-0.027720503599999998,0.0047374424,0.01213026,0.005104794,5.234,0,0
-0.0038771580000000003,-0.0132757236,0.0017993424000000001,0.011748290000000002,0.005049414,5.235,0,0
-0.0044491339999999996,-0.0038054976,0.0017540824000000005,0.011088615999999999,0.005359454,5.236,0,0
-0.005113824,-0.0021217296000000004,0.00023624400000000025,0.009566614000000001,0.005144658,5.237,0,0
-0.0051918780000000005,-0.004506328,-0.00216141,0.007040436000000001,0.003568117,5.238,0,0
-0.0047402419999999995,-0.0042609760000000005,-0.005696066,0.0053913319999999995,0.0025643208000000004,5.239,0,0
-0.004318724,-0.003402314,-0.011996506,0.004150186,0.0023327048,5.24,0,0
-0.003036278,-0.0040157002000000015,-0.016668466,0.0024938250000000003,0.0014018584000000003,5.241,0,0
-0.0015234634000000002,-0.0023639142,-0.014714946000000001,0.0016192910000000001,0.0005395552,5.242,0,0
-0.0009175534000000001,0.0006835157999999999,-0.008253326000000002,0.0011401430000000001,0.000562338,5.243,0,0
-0.0004254878,0.0023077398,-0.0013917259999999994,0.000748315,0.0008445882,5.244,0,0
-1.996620000000002e-05,0.0045426978,0.0029105194000000004,0.0015891850000000003,0.0010403762,5.245,0,0
-0.0006455822000000001,0.008134498,0.0059915294,0.004161560000000001,0.0019893966000000003,5.246,0,0
-0.0013251688,0.011419243999999999,0.0072721774,0.0071463160000000015,0.0035262198000000004,5.247,0,0
-0.0015755268,0.014195814000000001,0.0042616496,0.010172062000000003,0.004567746,5.248,0,0
-0.0019118884,0.01640054,0.0010547276000000003,0.013639154000000002,0.005248148,5.249,0,0
-0.0019668100000000003,0.01718522,0.0007643281999999997,0.01582806,0.006185136,5.25,0,0
-0.0018820080000000001,0.01622792,0.00014329800000000012,0.01584978,0.006425878,5.251,0,0
-0.0016487099999999998,0.01463264,-0.0014580924,0.014669760000000002,0.005796588,5.252,0,0
-0.0013669134000000001,0.010359865999999999,-0.0011831272,0.012868424000000002,0.005646464,5.253,0,0
-0.0010231346000000002,0.0012105659999999997,-0.00013801999999999998,0.009470682199999999,0.005065274,5.254,0,0
-0.0003140406000000002,-0.010164094,0.00024269400000000006,0.004805470199999999,0.0027208920000000004,5.255,0,0
0.0006884453999999999,-0.021395454,0.0011319522000000002,7.511020000000026e-05,-7.900799999999999e-05,5.256,0,0
0.0015708254,-0.033752454,0.0024789766,-0.005900269799999999,-0.0028983819999999997,5.257,0,0
0.0026526828,-0.044073140000000004,0.0034245932,-0.012724333800000001,-0.006156742,5.258,0,0
0.004258602,-0.04749988000000001,0.0031876422,-0.019088072,-0.008868444,5.259,0,0
0.0056380760000000005,-0.044553720000000005,0.0022059202,-0.02563474,-0.011220049999999999,5.26,0,0
0.006932766,-0.036724064,0.0015420816,-0.03087214,-0.012880076,5.261,0,0
0.007576972,-0.021785964,4.8718680000000295e-05,-0.03217452,-0.01339848,5.262,0,0
0.0069079020000000005,0.0025498760000000013,-0.00288727132,-0.0297333,-0.012885564000000002,5.263,0,0
0.0053343142,0.027544716,-0.00595770552,-0.02432621,-0.011230318000000001,5.264,0,0
0.0027535062000000003,0.044888356,-0.00858260352,-0.015620416000000002,-0.007878596000000002,5.265,0,0
-0.0005790497999999999,0.05570298,-0.009954248920000002,-0.005371216000000002,-0.0029981760000000017,5.266,0,0
-0.0040975298,0.05799204000000001,-0.008155674000000002,0.0034406840000000003,0.0019472839999999999,5.267,0,0
-0.006199639800000001,0.04989794000000001,-0.003173098000000001,0.009787204,0.006342788,5.268,0,0
-0.0059187960000000005,0.0388887,0.004219301999999999,0.014346154,0.009339982,5.269,0,0
-0.004551662000000001,0.030240780000000002,0.013441922000000002,0.01751882,0.010919474000000002,5.27,0,0
-0.0030889004000000005,0.022085498,0.021068968,0.01821298,0.010978030000000001,5.271,0,0
-0.0012607104000000003,0.01634106,0.019952982,0.01792354,0.009932800000000002,5.272,0,0
-0.00017615039999999984,0.013578340000000001,0.008175162000000003,0.0178293,0.008576796000000001,5.273,0,0
-0.0014177124000000001,0.010803434,-0.0038649979999999997,0.01612972,0.006930778,5.274,0,0
-0.0030495784,0.007439144600000001,-0.0092698546,0.013035324000000001,0.0050723598,5.275,0,0
-0.0033315802000000003,0.0037154246000000004,-0.0121892346,0.009440458,0.0032694482000000004,5.276,0,0
-0.0026609742,-0.0015485974000000007,-0.0121038426,0.004603674,0.0016313142000000005,5.277,0,0
-0.0011510821999999997,-0.0114011774,-0.0039405666000000015,-0.0018041860000000004,-0.0011198098,5.278,0,0
0.0011322938,-0.024786511400000003,0.005781897400000001,-0.007571606000000001,-0.0042858518000000005,5.279,0,0
0.0030405758,-0.037315362000000005,0.0057485454,-0.011273610000000002,-0.0064067876,5.28,0,0
0.0035007460000000003,-0.0467882,-0.0014306746,-0.013483644000000001,-0.007834276000000001,5.281,0,0
0.0029481839999999995,-0.05154454,-0.0051631286000000005,-0.013504794,-0.008510544,5.282,0,0
0.0018489860000000002,-0.04975188,-0.0052829106,-0.010668460000000001,-0.007531032000000001,5.283,0,0
0.0008020759999999999,-0.04115544,-0.007581432600000001,-0.0074136420000000015,-0.005369888000000001,5.284,0,0
0.000476726,-0.027720196,-0.008262118,-0.005444886000000001,-0.0034859900000000004,5.285,0,0
0.0009740360000000002,-0.011800356000000005,-0.0058032940000000005,-0.0035015120000000005,-0.0023668060000000004,5.286,0,0
0.001962716,0.006056584000000001,-0.004325626000000001,-0.0023939820000000002,-0.0019312960000000003,5.287,0,0
0.0024007482000000004,0.023680904000000003,-0.00097364,-0.0027160440000000004,-0.0015374708,5.288,0,0
0.0019143782,0.036305164,0.004864358,-0.0022324258000000004,-0.0010314687999999999,5.289,0,0
0.0010092042,0.0415237,0.010023472,-0.0009131978000000001,-0.0005688720000000001,5.29,0,0
0.0001295666,0.04030798,0.015162008000000001,-0.0003142678000000001,-0.00010577720000000006,5.291,0,0
-1.926540000000011e-05,0.03504839999999999,0.019115479999999997,0.0005784922,0.0006888208,5.292,0,0
0.0005258323999999999,0.027955219999999996,0.015745523999999997,0.0019965322,0.0016284596,5.293,0,0
0.0010858884,0.0208765,0.0070963039999999995,0.0020988459999999997,0.0019844196000000005,5.294,0,0
0.0013029094,0.01612294,0.0009543599999999998,0.0015468274,0.0025845168000000005,5.295,0,0
0.0012480764,0.014941699999999999,-0.0036418499999999994,0.0022695674000000002,0.0036242640000000003,5.296,0,0
0.0008168178000000001,0.012212075999999999,-0.00852913,0.0031018434,0.00365509,5.297,0,0
0.00019919900000000006,0.004157496000000001,-0.011858534,0.0034748854000000006,0.0027489234,5.298,0,0
-5.561019999999995e-05,-0.006558664000000001,-0.012223333999999999,0.004690013400000001,0.0024453014,5.299,0,0
0.00014069740000000004,-0.017956764,-0.011606592,0.005350498,0.0020043254,5.3,0,0
4.927999999999996e-05,-0.028523924,-0.010838422000000002,0.004519404,0.0007845350000000002,5.301,0,0
-0.0010651334000000001,-0.036203980000000004,-0.0074573680000000015,0.0031305098000000003,0.0005905174000000002,5.302,0,0
-0.0021785046,-0.03872662,-0.001562898,0.0013170278,0.0009720560000000002,5.303,0,0
-0.0028292814000000005,-0.03456266,0.00267279,-0.0010025822000000002,0.0004797400000000001,5.304,0,0
-0.003238626,-0.026159924,0.0026310300000000003,-0.0027705282000000005,-0.000145756,5.305,0,0
-0.0031193266,-0.018613224,0.0014926220000000003,-0.0030081182000000002,-0.00010642760000000003,5.306,0,0
-0.0022679084,-0.012400504,-0.0004232999999999998,-0.0023284580000000003,-0.0004144814,5.307,0,0
-0.0012090924,-0.0068540300000000005,-0.0035357879999999998,-0.001235156,-0.0010053714,5.308,0,0
-0.0004742400000000001,-0.0031699646,-0.005076642,0.00058753,-0.0007605898400000001,5.309,0,0
-0.0005267560000000001,-0.0022032746000000005,-0.0043365842,0.002170898,-0.0007099998400000001,5.31,0,0
-0.0014159794,-0.0024957906000000005,-0.0030949108,0.0018554820000000003,-0.0013803278399999999,5.311,0,0
-0.0018623216,-0.0007789266000000005,-0.0006333487999999996,0.001044238,-0.00199411244,5.312,0,0
-0.0019529574,0.0019325194,0.0030784092,0.0008966116,-0.00218482644,5.313,0,0
-0.0019945462000000003,0.0031978220000000003,0.0055903051999999995,-0.00016986039999999998,-0.002497252,5.314,0,0
-0.0011508522,0.005095428000000001,0.0075628374,-0.0011551084,-0.002400171,5.315,0,0
0.0006266158000000001,0.008853924000000003,0.008676714,-0.00041098840000000007,-0.0010318810000000001,5.316,0,0
0.0021340138000000004,0.009152668000000001,0.007932143999999999,0.0002926076,0.0005020089999999999,5.317,0,0
0.0029157756,0.006046864000000002,0.006243065999999999,0.000802978,0.001719633,5.318,0,0
0.002460748,0.003319994000000001,0.005326578,0.002756326,0.0029092429999999997,5.319,0,0
0.0010956599999999998,0.0005862920000000006,0.004316688000000001,0.005243282,0.003716948,5.32,0,0
4.789399999999993e-05,-0.0017697680000000001,0.0028899840000000004,0.007054698,0.003533254,5.321,0,0
-0.0010379532000000002,-0.0029174580000000004,0.0018896140000000002,0.008947928,0.00353753,5.322,0,0
-0.0022304892000000005,-0.0022145500000000005,0.0010281522,0.010958530000000001,0.004090816000000001,5.323,0,0
-0.0028620432000000004,0.00014141199999999983,0.00043518119999999994,0.011679720000000001,0.004062276,5.324,0,0
-0.0033909092,0.005604801999999999,-0.00011632880000000007,0.011459340000000002,0.0038039180000000003,5.325,0,0
-0.004897985200000001,0.016207202,0.00011435840000000002,0.010690448000000002,0.0034676376,5.326,0,0
-0.00612067,0.028319444000000003,0.0002885912,0.008772566,0.002774667,5.327,0,0
-0.005555049,0.03661098,-3.662499999999998e-05,0.005705972,0.0017895110000000001,5.328,0,0
-0.0027145029999999996,0.03739183000000001,0.00015694199999999998,0.0021334020000000004,0.0010051698,5.329,0,0
0.0014715890000000001,0.022820210000000004,0.0011323820000000001,-0.0022913580000000003,0.0002476778,5.33,0,0
0.005386629,-0.004209729999999998,0.0023627668,-0.007906066,-0.0009719038000000001,5.331,0,0
0.008139521,-0.025471490000000006,0.0026656,-0.012712004,-0.0024611572000000003,5.332,0,0
0.009145198,-0.034039992000000005,0.001075514,-0.015554430000000001,-0.0035307752,5.333,0,0
0.008033763999999999,-0.033228101999999995,-0.001983524,-0.016795780000000003,-0.00418865,5.334,0,0
0.005997044,-0.019941122000000002,-0.0053174120000000005,-0.01671922,-0.005114706,5.335,0,0
0.004952032,0.0018179579999999989,-0.006545026320000001,-0.014083224000000002,-0.005584474000000001,5.336,0,0
0.004190372,0.014799438000000002,-0.00483178232,-0.010346760000000002,-0.005488146,5.337,0,0
0.0029982528,0.0150960652,-0.0022541743200000003,-0.008190658,-0.005872734,5.338,0,0
0.0012261428,0.0129648792,-0.00098564432,-0.005262518000000002,-0.0056081180000000005,5.339,0,0
-0.00040823520000000013,0.011946775199999999,-0.0022915643200000003,-0.0007217580000000007,-0.0036074699999999998,5.34,0,0
-0.001471513,0.0082390992,-0.0058844,0.00271448,-0.001278966,5.341,0,0
-0.0019235894,0.0037890464000000005,-0.011134484000000002,0.004736242,0.0005102800000000001,5.342,0,0
-0.0011607122,0.0021482412,-0.011362706,0.006669924000000001,0.002250972,5.343,0,0
0.0008763818,0.0004884891999999998,-0.0047965559999999996,0.0074623120000000005,0.00355237,5.344,0,0
0.0025752238000000005,-0.0014234324000000004,0.0007293439999999998,0.006797392000000001,0.0036041920000000004,5.345,0,0
0.0021953636000000003,-0.0029821324000000003,0.004667808,0.005525262000000001,0.0034349420000000003,5.346,0,0
0.0009407620000000002,-0.003476577600000001,0.008501210000000002,0.003605642000000001,0.0032832480000000003,5.347,0,0
-0.0005767959999999999,-0.0019893456,0.006899184000000001,0.0018090300000000005,0.002468032,5.348,0,0
-0.002291412,0.00023116239999999995,0.0012256219999999996,0.0003323734000000003,0.0016350646000000003,5.349,0,0
-0.0035623340000000003,0.001434982,-0.0007746702000000002,-0.0016601466,0.0006739612000000001,5.35,0,0
-0.003852456,0.0015198619999999999,-0.0012497124000000002,-0.0036228906000000003,-0.0007467187999999999,5.351,0,0
-0.003778112,0.001570476,-0.0019541274000000005,-0.0038391466000000005,-0.0012528408,5.352,0,0
-0.004257892,0.00020689799999999963,-6.354739999999998e-05,-0.0030456266000000007,-0.0007106567999999999,5.353,0,0
-0.004900804,-0.0031843520000000005,0.0023368006,-0.002843718400000001,-0.0008261573999999999,5.354,0,0
-0.005449856,-0.006733886000000001,0.0031163087999999998,-0.0018962884000000005,-0.0007927939999999999,5.355,0,0
-0.005409358,-0.008631748,0.003581701,0.0005428696000000001,0.000253408,5.356,0,0
-0.0046741940000000004,-0.009309194,0.005232344,0.0029757836000000003,0.0013820899999999999,5.357,0,0
-0.0033334844000000004,-0.009430834,0.005946998,0.0048481036000000005,0.0027434520000000004,5.358,0,0
-0.0018724864000000002,-0.008348742000000001,0.003705888,0.006437524,0.005230948,5.359,0,0
-0.0007972678000000001,-0.007070212000000001,0.0008235920000000002,0.007021904,0.007736268000000001,5.36,0,0
-0.00012048180000000003,-0.006995238000000001,-0.001500968,0.0057929128,0.00802803,5.361,0,0
0.0003419676,-0.006484294000000001,-0.004091046000000001,0.0034479588000000004,0.006721368000000001,5.362,0,0
0.001037478,-0.0040504320000000005,-0.0053900288,0.0008632507999999995,0.004731118,5.363,0,0
0.0021579000000000004,-0.0009659500000000001,-0.0047176448,-0.0027591212000000007,0.000543684,5.364,0,0
0.004011995400000001,0.0021068199999999997,-0.004071678800000001,-0.0074286712000000005,-0.004831976,5.365,0,0
0.006042303400000001,0.005521824,-0.0032198508,-0.011020438,-0.008382232,5.366,0,0
0.0079345,0.007974212,-0.0012250147999999998,-0.014146468000000002,-0.011389258000000003,5.367,0,0
0.008918782,0.008669018,0.0011020160000000004,-0.018109512,-0.014746154000000001,5.368,0,0
0.008268373999999998,0.008631754,0.0028124880000000006,-0.02040996,-0.015682300000000003,5.369,0,0
0.006524777,0.00711774,0.002620588000000001,-0.01960796,-0.013890762000000001,5.37,0,0
0.0044811348,0.003621118,0.0013763260000000006,-0.017833418,-0.011597996000000001,5.371,0,0
0.0030338327999999996,-0.00021974400000000002,-0.0001938059999999995,-0.014802496000000002,-0.008469668,5.372,0,0
0.0018490508,-0.004512566,-0.002342594,-0.009470796000000002,-0.0043720040000000005,5.373,0,0
0.0007797268000000001,-0.009889476000000001,-0.0024010800000000003,-0.004374282,-0.0011195099999999998,5.374,0,0
-0.00011022020000000013,-0.014149462,0.001331554,-3.7637999999999994e-05,0.0013928000000000002,5.375,0,0
-0.00107677,-0.0162052,0.005079294000000001,0.0038057940000000004,0.003314128,5.376,0,0
-0.002599054,-0.015846943999999998,0.005938828200000001,0.00647217,0.0045647660000000005,5.377,0,0
-0.003929046,-0.012089896,0.004733350200000002,0.00866359,0.005519154,5.378,0,0
-0.004578560000000001,-0.006688908,0.0017448302000000002,0.011424436000000001,0.0061263080000000004,5.379,0,0
-0.005738372,-0.00041458800000000046,-0.00031974360000000003,0.014533132,0.00616274,5.38,0,0
-0.00709534,0.007781412,-0.0009062656,0.017168358,0.0063488600000000004,5.381,0,0
-0.008037498,0.014869996,-0.0002882217999999999,0.01974146,0.006759988000000001,5.382,0,0
-0.008610317999999999,0.018142808,0.0020776282000000003,0.021890160000000002,0.006586754,5.383,0,0
-0.008930164,0.020455300000000003,0.0018951342000000002,0.022307300000000002,0.006545772000000001,5.384,0,0
-0.008037032000000001,0.02183264,-0.0016429119999999998,0.020731,0.006665580000000001,5.385,0,0
-0.005329132000000001,0.02005364,-0.004129466,0.01866108,0.007096338000000001,5.386,0,0
-0.0019316880000000002,0.0168366,-0.005701016000000001,0.016292300000000003,0.007768224000000001,5.387,0,0
0.0013347020000000003,0.013666856,-0.007836212,0.013021766,0.007918340000000001,5.388,0,0
0.004061622000000001,0.009722790999999998,-0.0060733700000000015,0.009974176000000001,0.007465676000000001,5.389,0,0
0.0054816380000000005,0.003818971,-0.00287316,0.006454658,0.005781842000000001,5.39,0,0
0.005256340000000001,-0.0032891689999999998,-0.002506386,0.0018680180000000004,0.0023627320000000006,5.391,0,0
0.004298464,-0.009939869,-0.0009213000000000003,-0.002481522,-0.0015957279999999998,5.392,0,0
0.0034710220000000007,-0.014408605,0.0027767919999999997,-0.006123848000000001,-0.0048245860000000005,5.393,0,0
0.0032686220000000005,-0.01698328,0.0076212979999999994,-0.008761580000000001,-0.007152984000000001,5.394,0,0
0.0038485340000000007,-0.017661700000000002,0.014633848,-0.009003348000000001,-0.007889976000000002,5.395,0,0
0.004726132000000001,-0.015118078000000002,0.02137979,-0.006690378,-0.006656386,5.396,0,0
0.005107854,-0.011641031999999999,0.02318278,-0.004350186000000001,-0.004243780000000001,5.397,0,0
0.004651852,-0.009103714,0.016991839999999998,-0.003083892,-0.0021569680000000004,5.398,0,0
0.0035766160000000003,-0.007675095999999999,0.0018080599999999985,-0.002493012,-0.00084646,5.399,0,0
0.002153886,-0.006659644,-0.014107340000000003,-0.0037773860000000006,-0.00021611,5.4,0,0
0.00063462,-0.002965026,-0.023257480000000004,-0.007435916000000001,-0.000663968,5.401,0,0
-0.001271582,0.002894028,-0.028021300000000006,-0.010997508000000001,-0.001717288,5.402,0,0
-0.003155018,0.006749990000000001,-0.025347816000000006,-0.013307082000000001,-0.0020169516,5.403,0,0
-0.0038057,0.009570558,-0.013908460000000004,-0.015278280000000002,-0.0021003816000000003,5.404,0,0
-0.003797484,0.012178508000000001,-0.004062631999999999,-0.015724820000000004,-0.0026910356,5.405,0,0
-0.003816938,0.011464162000000002,-0.0004739686000000001,-0.013970682000000002,-0.0025599816,5.406,0,0
-0.0033978180000000004,0.008429790000000001,0.0003135334000000003,-0.011426148,-0.0021596968000000003,5.407,0,0
-0.0026036,0.005839228000000001,-0.0006873725999999999,-0.008389354600000001,-0.0019935018,5.408,0,0
-0.002174978,0.0038241160000000007,-0.0023986864,-0.0044603586,-0.0016571000800000002,5.409,0,0
-0.002343716,0.002080132,-0.0024102464,-0.0008897606000000001,-0.0007781502800000003,5.41,0,0
-0.0026478380000000004,-4.2723999999999844e-05,-0.0015276118000000004,0.0015374933999999997,-0.00016174088,5.411,0,0
-0.0025502759999999998,-0.002053132,0.0004609042,0.0033041514,-0.00018882788000000003,5.412,0,0
-0.001740886,-0.002627792,0.0038949682000000005,0.0038751540000000004,0.00019422271999999997,5.413,0,0
-0.0016110288,-0.004872266,0.006472506,0.002689988,0.000448827,5.414,0,0
-0.0017675768000000001,-0.0075909440000000005,0.007416304,0.0016768998000000004,0.0005080687,5.415,0,0
-0.0005113848000000002,-0.00824636,0.008127952,0.0019666018000000004,0.0014660813,5.416,0,0
0.0012630372,-0.00977328,0.010171554000000001,0.0022165018000000003,0.0026896135,5.417,0,0
0.0025164512,-0.011372116000000002,0.010863592,0.0032129898,0.0032204755,5.418,0,0
0.0037685340000000005,-0.009226475999999999,0.009466296,0.0058299998,0.0040855255,5.419,0,0
0.005243686000000001,-0.0018228160000000005,0.007763428200000001,0.008453470000000001,0.004996948,5.42,0,0
0.005791458000000001,0.0071294819999999995,0.005948668200000001,0.009310756,0.004445352,5.421,0,0
0.0050534260000000015,0.017016181999999998,0.00328130474,0.00925276,0.0035045844000000004,5.422,0,0
0.003198182,0.0227041,0.0005663913400000001,0.009017384,0.0029738044,5.423,0,0
0.001474782,0.01609124,-0.0005911482599999999,0.007656649999999999,0.0016386324,5.424,0,0
0.00032211400000000024,0.004001399999999999,-3.693245999999994e-05,0.005978443999999999,0.0001674784,5.425,0,0
-0.00145971,-0.004964942000000002,0.00054583554,0.005091546000000001,-0.0003523452,5.426,0,0
-0.00288845,-0.014014664000000001,-0.001063693,0.00403969,-0.0006932836,5.427,0,0
-0.003225252,-0.023638224,-0.0018666536,0.002070106,-0.0013956456,5.428,0,0
-0.003137528,-0.024253584,-0.001530116,0.00032462599999999995,-0.0015635056,5.429,0,0
-0.002234374,-0.020454183999999997,-0.003165396,-0.001772574,-0.0013622336,5.43,0,0
-0.00039729399999999986,-0.020850042,-0.0056321900000000005,-0.00433755,-0.0019324400000000001,5.431,0,0
0.00099557,-0.018134698,-0.0056336960000000005,-0.005960158,-0.002668986,5.432,0,0
0.0020868500000000003,-0.007136597999999999,-0.0059026140000000005,-0.006791472,-0.002880596,5.433,0,0
0.0032052200000000004,0.005502262000000001,-0.007844428,-0.007397852,-0.002989604,5.434,0,0
0.0029700240000000004,0.013585342,-0.007457146,-0.007815708000000001,-0.003195596,5.435,0,0
0.0022860880000000004,0.018564502,-0.005005078,-0.007546952000000001,-0.0025960958,5.436,0,0
0.0018613936000000002,0.019413680000000003,-0.0016559099999999996,-0.007164836,-0.0018378372000000002,5.437,0,0
0.0011232276,0.01620262,0.0037008020000000004,-0.0076153060000000005,-0.0024037751999999996,5.438,0,0
0.0012344396000000001,0.015364720000000002,0.009650454,-0.007749486000000001,-0.0031638192,5.439,0,0
0.0021325656,0.018337620000000002,0.013141278,-0.007395604000000001,-0.0033229912,5.44,0,0
0.0022656696,0.021533820000000002,0.015572550000000001,-0.008093666000000001,-0.0038494234000000004,5.441,0,0
0.0021570408,0.02449526,0.0160105,-0.008117526,-0.004066846000000001,5.442,0,0
0.0020817288000000004,0.0273503,0.011262866000000002,-0.006155388600000001,-0.003033468,5.443,0,0
0.0005541288000000003,0.02768214,0.0026406860000000006,-0.0040333826000000005,-0.001575742,5.444,0,0
-0.0016085352,0.024052780000000003,-0.005305634000000001,-0.0010566806000000002,-0.00015410999999999995,5.445,0,0
-0.0035522892,0.016996192,-0.012711394,0.004630579399999999,0.001955624,5.446,0,0
-0.005363964000000001,0.003890351999999998,-0.020113274,0.0115360314,0.004953344,5.447,0,0
-0.006189134000000001,-0.014260468000000002,-0.020874651999999997,0.018703614,0.008474824,5.448,0,0
-0.006413090000000001,-0.028958028000000004,-0.013546971999999997,0.026534862,0.012619683999999999,5.449,0,0
-0.006829914000000001,-0.03743690800000001,-0.006275071999999998,0.0328463,0.016299366000000003,5.45,0,0
-0.006696570000000001,-0.040927780000000004,0.00025624600000000034,0.03577736,0.01808602,5.451,0,0
-0.005848832,-0.035574900000000007,0.010562166000000001,0.035889519999999994,0.017967900000000002,5.452,0,0
-0.005145588000000001,-0.022929502,0.015865638,0.03356004,0.016140864,5.453,0,0
-0.0040659344,-0.014133630000000001,0.013145768,0.02781938,0.012417238,5.454,0,0
-0.0026398328800000003,-0.011521590000000002,0.008946028,0.019745142599999998,0.0078790392,5.455,0,0
-0.00144307508,-0.00946143,0.0027828900000000023,0.0117454406,0.004200039200000001,5.456,0,0
-0.00037388168,-0.005985,-0.005257989999999999,0.0024384406000000003,0.0003349052,5.457,0,0
0.00042122632000000004,-0.0014436780000000003,-0.010303148,-0.0095184194,-0.004591878800000001,5.458,0,0
0.00090546872,0.00348871,-0.011932172,-0.0225535994,-0.0101178728,5.459,0,0
0.0020328472,0.008181526000000001,-0.011970912,-0.036253142,-0.017217994,5.46,0,0
0.0046238334,0.011160016000000002,-0.010219792,-0.049956780000000006,-0.024909834,5.461,0,0
0.007922479999999999,0.012936666000000001,-0.008730164,-0.059677560000000004,-0.02975038,5.462,0,0
0.010796914,0.015802646,-0.007245528,-0.06214266,-0.03013304,5.463,0,0
0.012313428000000001,0.019366026,-0.005239400000000001,-0.05812664,-0.027292739999999996,5.464,0,0
0.011881699999999999,0.02304549,-0.00216842,-0.0479353,-0.021379674,5.465,0,0
0.009297535800000001,0.021965557999999996,0.0019470860000000002,-0.03317068,-0.013056695200000001,5.466,0,0
0.0053841638,0.010152597999999997,0.004392328000000001,-0.019018626000000004,-0.005966265200000001,5.467,0,0
0.0014779037999999999,-0.004625462000000002,0.005272978,-0.007580422000000001,-0.0010604531999999995,5.468,0,0
-0.0011789882,-0.014218382000000002,0.006133456000000001,0.002319318,0.0028571008000000003,5.469,0,0
-0.0016780822,-0.019846904000000002,0.0059794159999999996,0.010792218000000001,0.0058451328,5.47,0,0
-0.001373554,-0.019386284000000004,0.00522785,0.016799478000000003,0.007688794,5.471,0,0
-0.001652906,-0.012153054000000002,0.0051068120000000005,0.022513964000000004,0.009378864,5.472,0,0
-0.0018997699999999998,-0.007921934,0.00469515,0.0289211,0.011254592,5.473,0,0
-0.00249923,-0.010756454000000002,0.004973938,0.033169040000000004,0.012316838,5.474,0,0
-0.0041336720000000006,-0.014724792,0.006048372000000001,0.03586148,0.01327034,5.475,0,0
-0.005548726000000001,-0.016930658,0.006077904,0.03808508,0.0142564,5.476,0,0
-0.006031324000000001,-0.016231284000000002,0.0053811208,0.0382796,0.01440084,5.477,0,0
-0.006220616,-0.013014210000000002,0.0046178434,0.035755880000000004,0.013578760000000002,5.478,0,0
-0.006192648,-0.01087143,0.0031264094000000003,0.03212458,0.012413434000000001,5.479,0,0
-0.005570964,-0.00905701,0.0014298118,0.026481280000000003,0.011112219999999999,5.48,0,0
-0.004711702,-0.000320281999999999,-0.0017283402000000002,0.016897446000000003,0.008484182,5.481,0,0
-0.0036485044,0.013680854000000003,-0.006172749,0.006239306000000001,0.005038540000000001,5.482,0,0
-0.0019698964,0.026109140000000003,-0.0087966576,-0.0042845739999999985,0.0012341000000000006,5.483,0,0
0.00011085560000000008,0.03898246,-0.011010845600000001,-0.015459954000000001,-0.0030724140000000003,5.484,0,0
0.0022644236,0.04949404,-0.013090812,-0.024938854,-0.007247060000000001,5.485,0,0
0.004668911600000001,0.049283520000000004,-0.0108606756,-0.03008872,-0.010331742,5.486,0,0
0.007096416,0.03999838,-0.0048010936,-0.03230906,-0.01184604,5.487,0,0
0.008326878000000001,0.0299672,0.0007152464000000002,-0.03298192,-0.012378612,5.488,0,0
0.008240398,0.022167194,0.0047174684,-0.03049626,-0.011670470000000002,5.489,0,0
0.0070865042,0.01270849,0.0064374524,-0.0259525,-0.010333072000000002,5.49,0,0
0.0049520362,-0.0011158300000000008,0.0053125379999999995,-0.02116682,-0.008903246,5.491,0,0
0.0025976000000000003,-0.015392870000000001,0.0028857079999999994,-0.015937142,-0.0073526220000000005,5.492,0,0
0.0004752059999999999,-0.02548479,0.0008033099999999995,-0.009597982000000001,-0.0054858624,5.493,0,0
-0.001248076,-0.032852784,0.0005507959999999997,-0.003223324,-0.0032326144,5.494,0,0
-0.0027872302,-0.03653294000000001,0.001830696,0.0018687160000000003,-0.0010557044000000003,5.495,0,0
-0.0040871402000000005,-0.03263108,0.003710746,0.006812556,0.0015875756000000001,5.496,0,0
-0.004802888000000001,-0.025593340000000003,0.005827316000000001,0.010991338,0.0042795656,5.497,0,0
-0.005062022,-0.02303358,0.006382018000000001,0.013342498000000001,0.006316384,5.498,0,0
-0.0048542640000000005,-0.024198900000000002,0.00583054,0.014753320000000002,0.007906874000000001,5.499,0,0
-0.003481504,-0.02427464,0.0063790900000000005,0.015461820000000001,0.008643978,5.5,0,0
-0.001457158,-0.022984680000000004,0.0062610420000000005,0.014591920000000001,0.00786681,5.501,0,0
-7.004000000000016e-06,-0.019475489800000002,0.005185416,0.012600652,0.006502866,5.502,0,0
0.0013214540000000001,-0.0111707698,0.00515667,0.011161812,0.005178908,5.503,0,0
0.0021866618,-0.0018661497999999995,0.005009852,0.009913000000000002,0.003583792,5.504,0,0
0.0018575058,0.0032969394000000006,0.00446283,0.008312748,0.0023408396,5.505,0,0
0.001127387,0.0060758954000000006,0.007285466,0.007280336000000001,0.0015155516,5.506,0,0
0.0003490498,0.009599345200000001,0.010658150000000002,0.006438878000000001,0.0006602715999999999,5.507,0,0
-0.0003523956,0.014934485200000002,0.009585262,0.00520081,-0.0002518643999999999,5.508,0,0
-0.00023147140000000005,0.0218102852,0.005206052000000001,0.004552804000000001,-0.00064635228,5.509,0,0
0.00012146599999999995,0.027052256000000004,-0.00517357,0.004744992,-0.0005544518800000001,5.51,0,0
-0.00046740120000000006,0.028537720000000003,-0.018734189999999998,0.0051137660000000005,-0.00043524168000000005,5.511,0,0
-0.0016226399999999998,0.027369720000000004,-0.024043002,0.00628388,2.016232000000005e-05,5.512,0,0
-0.0031085046,0.024738640000000006,-0.021539712000000003,0.007771758,0.0010093703200000001,5.513,0,0
-0.0044696246,0.022939460000000002,-0.017209696,0.007778446000000001,0.0017595162,5.514,0,0
-0.004861528,0.0249016,-0.008011097000000002,0.006573838,0.0022553882,5.515,0,0
-0.004210238680000001,0.027802440000000005,0.0011180930000000001,0.004849426,0.0035006520000000004,5.516,0,0
-0.0019425506800000007,0.022349420000000002,0.001072875,0.002027805999999999,0.0041469060000000006,5.517,0,0
0.0016484953200000003,0.006648800000000003,-0.004938965,-0.0021340639999999998,0.0033785496,5.518,0,0
0.00437530332,-0.00988062,-0.011194521000000002,-0.005849074,0.0025619104,5.519,0,0
0.00498067932,-0.024240120000000004,-0.013585800000000002,-0.008082842,0.0015658124,5.52,0,0
0.004328215999999999,-0.03645442,-0.011113204000000002,-0.010335412,-0.0011267156,5.521,0,0
0.002701198,-0.038296500000000004,-0.008118096,-0.012584040000000001,-0.0042634835999999995,5.522,0,0
-0.0002699760000000001,-0.0308304,-0.005247913000000001,-0.01343954,-0.0061674872,5.523,0,0
-0.00235671,-0.022521832000000002,0.0012651890000000001,-0.01394506,-0.00819583,5.524,0,0
-0.0017882799999999997,-0.013078312000000002,0.006874369,-0.01467306,-0.010120763999999999,5.525,0,0
-9.117599999999989e-05,-0.002505872000000002,0.009525243000000001,-0.014247659999999999,-0.010200029999999999,5.526,0,0
0.001073546,0.005477208,0.014571225,-0.01290124,-0.009049648,5.527,0,0
0.0018262214,0.011904188000000001,0.020065282,-0.011442414000000001,-0.007871608,5.528,0,0
0.0029087934,0.02005714,0.02151724,-0.009515130000000002,-0.006095214000000001,5.529,0,0
0.0036425413999999997,0.026415140000000004,0.019066346,-0.007417742000000001,-0.0038382390000000002,5.53,0,0
0.0039487094,0.026252700000000004,0.014105172,-0.005678014,-0.0020409314,5.531,0,0
0.0043168554,0.01863918,0.0061336379999999985,-0.0031278160000000003,-0.0002911594000000003,5.532,0,0
0.004054998,0.003237819999999999,-0.0005840240000000003,0.00022201999999999986,0.0019328866000000002,5.533,0,0
0.002414576,-0.016752080000000003,-0.003306624,0.003229436,0.0036302366000000004,5.534,0,0
-0.0002599360000000001,-0.03390692,-0.005222756,0.006363588,0.0046732676,5.535,0,0
-0.002393572,-0.04235432,-0.006904922000000001,0.010474919999999999,0.005776226000000001,5.536,0,0
-0.003536608,-0.039555238000000006,-0.008559008,0.014027102000000001,0.006597962000000001,5.537,0,0
-0.003806258,-0.026462516000000002,-0.009725926,0.01601428,0.0071531500000000005,5.538,0,0
-0.003520182,-0.009829256000000001,-0.009288952000000001,0.0183594,0.008373886,5.539,0,0
-0.003709266,0.004147924,-0.0078660564,0.02073194,0.009902520000000001,5.54,0,0
-0.004677306,0.013138704000000001,-0.0072003764,0.021179220000000002,0.010869764,5.541,0,0
-0.006030266,0.018080402,-0.0049346384,0.02063238,0.011556454,5.542,0,0
-0.0071683300000000005,0.020981339999999998,-0.0014340823999999999,0.019649080000000003,0.011008852000000001,5.543,0,0
-0.007192770000000001,0.02082254,0.00012140559999999998,0.016162062,0.009161962000000001,5.544,0,0
-0.004755108000000001,0.018666580000000002,0.003494176,0.010618062000000001,0.0064606264,5.545,0,0
-0.0008939120000000006,0.015997296,0.008008556,0.005429626,0.0032530024000000006,5.546,0,0
0.0032392519999999998,0.010581176000000001,0.010132390000000002,0.0009603340000000004,0.0005308924000000005,5.547,0,0
0.007652862,0.0005871360000000011,0.010268901999999998,-0.0038084020000000002,-0.0021512256000000003,5.548,0,0
0.009248860000000001,-0.013128384000000002,0.008661486,-0.008494604000000001,-0.0049361956,5.549,0,0
0.007563804000000001,-0.026640604000000002,0.0051145152,-0.012728724000000002,-0.0071757,5.55,0,0
0.0052919224,-0.036764740000000004,0.0008019372000000002,-0.017528928,-0.009462316,5.551,0,0
0.0021219743999999997,-0.038367000000000005,-0.0032973348,-0.022405556,-0.012767666,5.552,0,0
-0.0013560896,-0.028853760000000003,-0.007037542800000001,-0.02534784,-0.014870340000000001,5.553,0,0
-0.0016485196,-0.01180668,-0.008856834800000001,-0.025926320000000003,-0.01533778,5.554,0,0
-4.16275999999998e-05,0.011795020000000002,-0.008445770000000002,-0.024836160000000003,-0.015496140000000002,5.555,0,0
3.884600000000251e-06,0.03529354,-0.0060507020000000016,-0.02144074,-0.013834734000000001,5.556,0,0
-0.00030044739999999994,0.04582744,-0.003815484000000001,-0.017231358000000002,-0.011111152000000001,5.557,0,0
-0.00045217339999999986,0.042951444,-0.002671758,-0.014013764000000001,-0.009071432,5.558,0,0
-0.0012356102,0.032918724,-0.001551972,-0.010584409999999999,-0.007233214,5.559,0,0
-0.0017557142000000003,0.014826523999999997,-0.00295836,-0.006194318000000001,-0.004820476600000001,5.56,0,0
-0.0009655588,-0.0039776559999999996,-0.006536210000000001,-0.00222716,-0.0025629146,5.561,0,0
0.0003348172000000001,-0.013472496,-0.010080928000000001,0.0016241979999999999,-6.28165999999996e-05,5.562,0,0
0.0009999432000000002,-0.014621906,-0.009682352,0.006786624000000001,0.0037563634,5.563,0,0
0.0007881760000000001,-0.009861066,-0.002169772000000002,0.010804610000000001,0.0068352654,5.564,0,0
-0.00021391400000000016,-0.0020085460000000012,0.007338582,0.012545118000000001,0.00842029,5.565,0,0
-0.0013826600000000002,0.006100194,0.012280276,0.013630900000000001,0.010112202,5.566,0,0
-0.0019483120000000002,0.013141234000000002,0.013533996000000001,0.013544480000000001,0.011405601999999999,5.567,0,0
-0.0016092480000000002,0.018338780000000002,0.015303272,0.011955170000000001,0.011135862000000002,5.568,0,0
-0.0009976100000000003,0.02050284,0.013231811999999999,0.010574136,0.011114182000000002,5.569,0,0
-0.00017323400000000003,0.01979682,0.007626072000000001,0.008879698,0.01173412,5.57,0,0
0.000850342,0.016977786,0.004537004,0.005426392,0.010340914000000001,5.571,0,0
0.002015182,0.0127221734,0.0036161639999999994,0.0018063619999999997,0.007502274000000001,5.572,0,0
0.0031126699999999997,0.005144273399999999,0.0012175119999999992,-0.0021506480000000007,0.0039051400000000005,5.573,0,0
0.003674458,-0.008596426600000002,-0.003531546000000001,-0.007488114000000001,-0.00126074,5.574,0,0
0.003764452,-0.0232945866,-0.006154542000000001,-0.011709496000000002,-0.00642176,5.575,0,0
0.0032456104,-0.0328077326,-0.005749898000000001,-0.013002570000000001,-0.009962274,5.576,0,0
0.0021850717999999996,-0.036959360000000004,-0.0037163540000000003,-0.012960018,-0.011540114000000002,5.577,0,0
0.0008162898000000002,-0.03483441,-0.002882898,-0.011965986000000001,-0.011209004000000003,5.578,0,0
-0.0007265442000000002,-0.024156386000000002,-0.00447031,-0.00810072,-0.008874852,5.579,0,0
-0.0020370202,-0.010669082000000002,-0.006296696,-0.0031503700000000004,-0.005195038000000001,5.58,0,0
-0.0027776806,-0.0028667960000000013,-0.0059483339999999996,0.0008688299999999997,-0.0014644519999999998,5.581,0,0
-0.0032932820000000002,-0.0007770959999999999,-0.002348742,0.006263708,0.0017521120000000001,5.582,0,0
-0.003583268,-0.0010980340000000003,0.0015706560000000001,0.012952376000000002,0.004761846,5.583,0,0
-0.0032589159999999997,-0.0030001560000000004,0.004860946,0.01821995,0.007153400000000001,5.584,0,0
-0.00272567,-0.006668500000000001,0.0077289360000000005,0.02205888,0.008310080000000001,5.585,0,0
-0.002468084,-0.009553286000000001,0.007827542000000002,0.025766619999999997,0.009078604,5.586,0,0
-0.0017171678000000002,-0.012416006,0.005528198,0.027400980000000002,0.009251118000000001,5.587,0,0
-5.603980000000019e-05,-0.017148918000000003,0.0013750860000000002,0.025749400000000002,0.00841407,5.588,0,0
0.0017453121999999998,-0.01859774,-0.0037682740000000003,0.022770620000000002,0.007096258000000001,5.589,0,0
0.0035821182,-0.013473899999999997,-0.005884296000000001,0.018262826000000003,0.0051654610000000005,5.59,0,0
0.005422980199999999,-0.0033447799999999995,-0.004641024000000001,0.011207618,0.0023134289999999997,5.591,0,0
0.007023034,0.011997400000000002,-0.0025893460000000006,0.0028788980000000013,-0.0003172610000000001,5.592,0,0
0.0075398,0.03237648,0.0013704660000000003,-0.0048456820000000005,-0.001805325,5.593,0,0
0.0061171284000000005,0.05131032,0.007891686,-0.011421802,-0.0023851692,5.594,0,0
0.0031814944,0.06298594,0.011281840000000001,-0.015561788,-0.0020458302000000003,5.595,0,0
-0.00033134760000000005,0.06180236,0.010110596000000001,-0.01742662,-0.0015023242,5.596,0,0
-0.0039075316,0.04416244,0.005415306,-0.018445200000000002,-0.0012825602000000001,5.597,0,0
-0.0070119556,0.016537079999999996,-0.0025673940000000006,-0.01870916,-0.0020101282,5.598,0,0
-0.008300684000000001,-0.011470860000000003,-0.010196494,-0.01844142,-0.00386392,5.599,0,0
-0.007805666000000001,-0.033640220000000005,-0.013682754000000002,-0.01855326,-0.006324276,5.6,0,0
-0.006704014,-0.04429512000000001,-0.01145724,-0.01983716,-0.00869726,5.601,0,0
-0.0057668979999999995,-0.038495954000000006,-0.0069390480000000015,-0.02012384,-0.009830430000000001,5.602,0,0
-0.0044336539999999995,-0.022608674,-0.0032426820000000006,-0.017795002,-0.009309426,5.603,0,0
-0.002445728,-0.0065347539999999985,-0.0011756820000000004,-0.014498632000000001,-0.007836568,5.604,0,0
-0.00022795200000000002,0.006834426,-0.0010512220000000005,-0.011348974000000001,-0.006235706000000001,5.605,0,0
0.0026279380000000002,0.016599486,-0.0028542260000000005,-0.0064856539999999996,-0.003504660600000001,5.606,0,0
0.004761990000000001,0.018562472000000003,-0.005281214000000001,-0.0014981220000000006,-0.0008608406000000003,5.607,0,0
0.005704906000000001,0.008570992,-0.00664814,0.000562802,-2.7492600000000097e-05,5.608,0,0
0.005359258,-0.009413628,-0.00654898,0.0011294956,0.0005074894,5.609,0,0
0.002725498,-0.025565408,-0.00484482,0.0019493336000000001,0.0013812574,5.61,0,0
0.00022608000000000003,-0.032404408,-0.0036742380000000002,0.0028689856000000003,0.0014886858,5.611,0,0
-0.00010810599999999985,-0.028492020000000003,-0.003415714,0.0036813415999999996,0.00036357980000000005,5.612,0,0
-0.0005262440000000001,-0.013962820000000003,-0.00205431,0.005841419600000001,-0.00036234020000000007,5.613,0,0
-0.0011047319999999998,0.006383019999999998,-0.0015285320000000002,0.007840996,-0.0007301178000000001,5.614,0,0
0.0002474295800000001,0.023052160000000002,-0.0033304140000000003,0.00864838,-0.0013978458,5.615,0,0
0.00116504758,0.031018680000000003,-0.004021402,0.009714268000000002,-0.0012369196000000002,5.616,0,0
0.0006187495800000001,0.03139276,-0.0006821299999999995,0.010257100000000002,-0.00013523560000000003,5.617,0,0
0.00055423558,0.02795804,0.005489885999999999,0.009736322000000002,0.0011677884,5.618,0,0
0.0009409113800000001,0.0236931,0.012688428000000002,0.010277942,0.0027586200000000003,5.619,0,0
0.0010782372,0.017140851999999998,0.018805170000000003,0.012072762,0.005256298,5.62,0,0
-0.00012823879999999998,0.004742651999999999,0.02129772,0.012535562,0.007779358,5.621,0,0
-0.0019014188,-0.007761668000000001,0.019278612,0.012855962,0.009747418,5.622,0,0
-0.002299119,-0.014355928,0.013063236000000002,0.0134052,0.010837412000000001,5.623,0,0
-0.0024269116,-0.019880928000000003,0.004438816,0.012308518000000001,0.010570480000000002,5.624,0,0
-0.002815053,-0.023517380000000004,-0.0018573600000000004,0.010850748,0.00961483,5.625,0,0
-0.0016559644,-0.021795420000000003,-0.0024803799999999995,0.010457048,0.008480002,5.626,0,0
0.00041252960000000006,-0.02232326,0.001412988,0.009937648,0.007484974,5.627,0,0
0.0016552458000000001,-0.027122560000000004,0.009322404000000001,0.008736078,0.006633972,5.628,0,0
0.0025996466000000004,-0.02899132,0.018572844,0.008028526,0.006474386,5.629,0,0
0.0035251946000000004,-0.02759978,0.02245056,0.007341396,0.006372704000000001,5.63,0,0
0.0035037448000000003,-0.024424314000000003,0.016788360000000002,0.005684024,0.00434523,5.631,0,0
0.0025822128000000002,-0.018619214000000002,0.00424362,0.0030298880000000005,0.0005601980000000005,5.632,0,0
0.0017208568000000003,-0.009685632,-0.007305520000000001,-0.001201482,-0.0040855200000000005,5.633,0,0
0.0013626848000000001,0.002768248000000001,-0.014910778000000001,-0.007652608000000001,-0.009240714,5.634,0,0
0.0005862638000000001,0.018660908,-0.022443498000000003,-0.014991948000000001,-0.013981142000000002,5.635,0,0
-0.0011336389999999999,0.039257702000000005,-0.023320358,-0.021112216000000003,-0.01691564,5.636,0,0
-0.002660315,0.058710922000000006,-0.014076028,-0.024905380000000005,-0.01724366,5.637,0,0
-0.004055431,0.06376972,-0.009315506,-0.025691160000000005,-0.015111764,5.638,0,0
-0.0056515210000000005,0.0506619,-0.010206647999999999,-0.02237038,-0.011587914000000001,5.639,0,0
