bandpass 1,bandpass 2,bandpass 3,bandpass 4,bandpass 5,time,onset,mark
-0.0003578542,0.002830942,-0.001161476,0.000598091,0.0001465452,7.205,0,0
-0.0002639432,0.004427452,-0.0013026548000000002,0.0010463410000000001,0.0002061934,7.206,0,0
-0.0005251712,0.005580738,-0.0009631368000000001,0.0013629710000000001,0.0004501434,7.207,0,0
-0.0005026010000000001,0.005395144,0.00017228920000000023,0.0007610906000000002,0.0003852662,7.208,0,0
-0.0003065054,0.00435021322,0.0016540252,0.0003276406000000001,-0.00015198420000000004,7.209,1,1
0.00015230100000000003,0.0029809594199999997,0.0032938472,2.5065600000000074e-05,-0.0005714746,7.21,0,0
0.000699816,4.0049420000000174e-05,0.004059206,-0.0009473844,-0.0008681248000000001,7.211,0,0
0.0009423240000000001,-0.00274919258,0.0036385814000000007,-0.0015822564000000001,-0.0011307348,7.212,0,0
-3.0028400000000005e-05,-0.0051257025800000005,0.0024115194,-0.0014661854,-0.0010008336,7.213,0,0
-0.00111589,-0.0069149758,0.0010480626,-0.0010830893999999999,-0.0006756560000000001,7.214,0,0
-0.000940318,-0.005128522000000001,0.0002710185999999999,-0.0007546035999999999,-0.00039009820000000003,7.215,0,0
-0.0006301779999999999,-0.0014462820000000006,-0.00020732280000000002,-2.374559999999997e-05,-0.0005783062000000001,7.216,0,0
-0.0003374639999999996,0.001385908,6.5051999999999255e-06,0.0006337044,-0.0008040682000000001,7.217,0,0
0.0007453266000000001,0.0038520860000000002,0.0009969692000000002,0.0008571878,-0.0008440766000000001,7.218,0,0
0.0016831286000000003,0.0057089398,0.0017015980000000001,0.0013841418000000002,-0.0009856362,7.219,0,0
0.0005225826000000002,0.0042234,0.0015717842000000002,0.0015883720000000002,-0.0011054006,7.22,0,0
-0.0011392014,0.0014000780000000001,0.0012684588000000004,0.0012908842000000002,-0.0007692664,7.221,0,0
-0.0012171116,5.0441999999999935e-05,0.0009992518,0.0006868882000000002,-0.0003891488,7.222,0,0
-0.0008651702,-0.000571447,0.0004359352,0.00015807820000000015,-1.0022800000000049e-05,7.223,0,0
-0.0008893781999999998,-0.0011014468000000001,-0.00023260860000000005,-0.00034612559999999996,0.0010595672,7.224,0,0
-0.0007606102,-0.0016244190000000002,-0.0006592328,-0.0008399804000000001,0.0019363378,7.225,0,0
-0.0002081586,-0.00113257708,-0.0006723947999999999,-0.0007669506000000001,0.0023928736,7.226,0,0
-0.000435373,-0.00048924508,-0.0012811492,-0.0004045332,0.0027285020000000003,7.227,0,0
-0.0005763979999999999,0.00033839791999999984,-0.0028352945999999997,-0.00031268580000000005,0.0023056746,7.228,0,0
-0.00014854779999999996,0.0004288879199999998,-0.005054476800000001,-0.00036011480000000003,0.0011340246,7.229,0,0
-0.00040754979999999994,-0.0011920320800000003,-0.0076698508,-0.000338905,0.0003401285999999999,7.23,0,0
1.8498600000000026e-05,-0.0012242810000000005,-0.009597802,-0.0010065529999999999,5.209099999999992e-05,7.231,0,0
0.0013049612000000002,0.0004183689999999996,-0.010268236000000002,-0.0014407623999999999,-8.488099999999998e-05,7.232,0,0
0.0018157622,0.0014909829999999998,-0.010040882000000001,-0.0010275538,0.0005500104,7.233,0,0
0.002040824,0.002956253,-0.008715042000000001,-0.0008767795999999999,0.0011261204000000001,7.234,0,0
0.002983938,0.005396797,-0.005351260000000001,-0.0007449783999999999,0.0009835124,7.235,0,0
0.0029292040000000004,0.005561365,-0.0003187400000000001,0.0001615676,0.0008764154000000002,7.236,0,0
0.00146658,0.002647565,0.0056270140000000005,0.0007932636,0.0007736934000000002,7.237,0,0
0.0003453980000000002,-0.00013447700000000003,0.011546142,0.0003764924,0.0002676318,7.238,0,0
-0.0004427239999999999,-0.0021454390000000003,0.015440242000000002,0.0004008392,-0.0001799462,7.239,0,0
-0.0011966420000000001,-0.003404235,0.016140754,0.000805935,0.00010046419999999998,7.24,0,0
-0.00141863,-0.0032938159999999998,0.014024006,0.0006472474,0.00022579839999999996,7.241,0,0
-0.0011294172,-0.0018934179999999996,0.010333631999999999,0.00038635260000000006,-7.016340000000003e-05,7.242,0,0
-0.0008243193999999999,-4.63779999999997e-05,0.006247244,0.0007761038,-1.066440000000002e-05,7.243,0,0
-0.0005330208,0.0016963260000000002,0.0034892282,0.0010407236000000001,0.00014586899999999997,7.244,0,0
0.00012066719999999999,0.00379496,0.0028763842,0.0006359598,-0.00011414140000000003,7.245,0,0
0.0002777246,0.004168698,0.0020283992,0.0007321662,-0.000436629,7.246,0,0
-0.0009114042,0.0013988,-0.0007926488,0.001292123,-0.0005065520000000001,7.247,0,0
-0.0015944520000000001,-0.002782084,-0.004151220800000001,0.0011833932,-0.0006203780000000001,7.248,0,0
-0.0017148266000000002,-0.0065595819999999996,-0.006674745000000001,0.000686481,-0.0004616968000000001,7.249,0,0
-0.0022394866,-0.008349818,-0.008476817000000001,0.0009422328000000002,-0.00019283720000000008,7.25,0,0
-0.0012514980000000002,-0.00714967,-0.008879236000000002,0.0007181646,-4.7982200000000016e-05,7.251,0,0
0.001287336,-0.0037216419999999985,-0.006128566000000002,-0.0002612594,4.362560000000002e-05,7.252,0,0
0.0024460840000000003,-7.053999999999611e-06,-0.0008354860000000003,-0.0004078366,5.90634e-05,7.253,0,0
0.002190232,0.0025923600000000006,0.003828094,-0.0004323422,-6.380000000000003e-06,7.254,0,0
0.0018057999999999998,0.0025108440000000004,0.00583755,-0.0010706802000000001,-9.10636e-05,7.255,0,0
1.342799999999979e-05,0.000397722,0.005463968,-0.0010921844,-2.2610600000000003e-05,7.256,0,0
-0.0019555300000000005,-0.0009253252,0.0031510099999999992,-0.0004868524000000001,5.0080199999999995e-05,7.257,0,0
-0.0024211944000000003,-0.0011657614,-0.0006874039999999997,-0.00040779840000000004,0.0001640016,7.258,0,0
-0.0018933802000000001,-0.00044909539999999997,-0.004185682,0.0001042893999999999,6.152060000000001e-05,7.259,0,0
-0.0005444101999999999,0.0012115666,-0.005946092,0.0008517074000000001,-8.042260000000001e-05,7.26,0,0
0.0009012917999999999,0.0027878706000000002,-0.0052957818,0.00043293299999999993,-0.00010097240000000001,7.261,0,0
0.0016809758000000002,0.0028842956,-0.0029418698,-0.00039993700000000006,-0.0005220302000000001,7.262,0,0
0.0013356982000000002,0.0009969477999999998,-0.0003554437999999996,-0.000667726,-0.0013225288000000002,7.263,0,0
0.000678718,-0.00018421820000000017,0.0022204002,-0.0010595708,-0.0016480730000000001,7.264,0,0
0.00018152,-8.139020000000005e-05,0.0040675942,-0.0012590502,-0.0017355578000000003,7.265,0,0
-0.00046335780000000007,-0.0005041862000000001,0.0041534978,-0.00010293020000000006,-0.002135788,7.266,0,0
-0.0007833403999999999,3.03959999999997e-05,0.0027642777999999997,0.0012278978000000002,-0.0020492220000000003,7.267,0,0
-0.00045903860000000014,0.0023774300000000003,0.0009057597999999996,0.0018871518,-0.001571385,7.268,0,0
0.0001682342,0.0033622618,-0.0015917342,0.002067561,-0.0010956704,7.269,0,0
0.00021634820000000004,0.0022863776,-0.0038615102000000004,0.0018663738,-0.0006393276000000001,7.27,0,0
0.00020538480000000003,0.0018303876,-0.0046490820000000006,0.0010319002000000002,-9.888840000000005e-05,7.271,0,0
0.00014613060000000003,0.0015197576,-0.00454414,-6.0963800000000035e-05,0.0003876394,7.272,0,0
-0.00034802520000000003,0.0008281268,-0.003982694,-0.0005100378000000001,0.0006357320000000001,7.273,0,0
-0.00024405019999999998,0.000698172,-0.0024394879999999996,-0.0007562458000000002,0.000718805,7.274,0,0
0.0004275498,0.0005845014,-0.00019654799999999984,-0.0010470532000000001,0.0005721818,7.275,0,0
0.000974923,0.0005395074,0.0014622420000000003,-0.0007253922000000001,0.0005507962,7.276,0,0
0.0013938018000000001,0.00040210340000000004,0.0023810800000000003,-0.0003861304,0.0005674092,7.277,0,0
0.0021119164,-0.0006682658,0.0026247544,-0.0010726884000000002,0.0005727254,7.278,0,0
0.0021421892,-0.0022597008,0.0022756164,-0.0014346248,0.0007446918000000001,7.279,0,0
0.0006849191999999999,-0.004325906,0.0012286904,-0.0013081568,0.0009027601999999999,7.28,0,0
-0.0005026448000000001,-0.006188458,-1.3603599999999986e-05,-0.0018318682000000002,0.0009068168,7.281,0,0
-0.00024367880000000016,-0.005828652,-0.0007305496,-0.0020827660000000002,0.0007602916000000001,7.282,0,0
-3.694740000000009e-05,-0.0038464980000000003,-0.001734672,-0.0015367224,0.0005274238,7.283,0,0
-0.0002987450000000001,-0.0020451040000000003,-0.002943174,-0.0009646794,7.021999999999541e-07,7.284,0,0
0.0003927587999999999,-6.0439999999999645e-06,-0.003514848,-0.0006215029999999999,-0.0004662318,7.285,0,0
0.0007934004,0.0013189756,-0.003518988,-0.00013504299999999997,-0.0004623196,7.286,0,0
-0.0002977876000000001,0.0006697296000000002,-0.0035571179999999997,0.000194691,-0.00031285320000000005,7.287,0,0
-0.0013184296,-0.00035961040000000004,-0.003265594,0.00033992540000000006,8.629680000000003e-05,7.288,0,0
-0.0017959426000000002,-0.0010585964000000001,-0.0020633848,0.00047134240000000006,0.0009649984000000001,7.289,0,0
-0.0023771424,-0.0013271764,1.6143200000000215e-05,0.000497038,0.0018116844000000002,7.29,0,0
-0.0023895916,-0.000722766,0.0022618132,0.0005241348,0.00199333,7.291,0,0
-0.0018663424000000001,0.0007912619999999999,0.0036648752000000002,0.0003358638,0.0019427262000000002,7.292,0,0
-0.0014476664000000001,0.0029544000000000003,0.0046134632,0.00012094179999999998,0.0018702968,7.293,0,0
-0.001023384,0.005469196000000001,0.00495226,-6.875740000000001e-05,0.0014111988000000003,7.294,0,0
-0.000481027,0.007686812000000001,0.0038801952000000004,-0.0003599714000000001,0.0005908208000000001,7.295,0,0
0.00018006460000000006,0.009032074000000001,0.0022733776000000002,-0.0005753754000000001,-0.00022557719999999999,7.296,0,0
0.0002175068,0.008571812000000002,0.0014209376000000004,-0.00032685540000000006,-0.0009276474,7.297,0,0
1.0810799999999934e-05,0.004671062,0.0012255556000000001,-0.00014205560000000002,-0.0016373660000000001,7.298,0,0
2.1457799999999956e-05,-0.0003616580000000004,0.0011702776000000002,-0.0002717064,-0.0019820128000000003,7.299,0,0
2.2742999999999928e-05,-0.003160276,0.0015337964000000002,0.0002473156,-0.0018108086000000001,7.3,0,0
-9.911700000000002e-05,-0.004600604,0.002135744,0.0005819108,-0.0013150790000000002,7.301,0,0
-0.000257974,-0.004860564000000001,0.002255816,0.0005811564,-0.0009005922,7.302,0,0
1.4907999999999973e-05,-0.0025681340000000006,0.0015764520000000003,0.0013342026,-0.0005846922,7.303,0,0
-0.00038415340000000006,-0.0009897280000000003,0.00031541999999999996,0.0018501366,-0.0005703974000000001,7.304,0,0
-0.0007582996,-0.001838912,-0.001245796,0.0016334232,-0.0005283554,7.305,0,0
4.2430399999999905e-05,-0.002629612,-0.0028930199999999996,0.0019205692,-0.00040052619999999997,7.306,0,0
0.000819232,-0.003888426,-0.0036199179999999997,0.0021613766,-9.587980000000002e-05,7.307,0,0
0.0011895788,-0.005253108,-0.003976032,0.0013536924,0.0004874762,7.308,0,0
0.0019815028,-0.0039706088,-0.0041747699999999995,0.0008698102000000001,0.00032550220000000004,7.309,0,0
0.0023157,-0.0010481607999999999,-0.003456272,0.0009483036,-0.00017875599999999997,7.31,0,0
0.0012931262000000002,0.0005645872000000001,-0.002784806,0.0003381352,-0.0005285067999999999,7.311,0,0
0.0008436544000000001,0.0019575512,-0.0025130288000000003,-0.0001598168,-0.000696906,7.312,0,0
0.0008878358000000001,0.0038928732,-0.0015949158000000002,7.0632000000000106e-06,-0.0007663759999999998,7.313,0,0
0.0006805994000000001,0.0040959227999999995,-2.733800000000099e-06,-0.0002060266,-0.00047931999999999993,7.314,0,0
0.00042949700000000004,0.0022466448,0.0012927442,-0.0007544286,0.00011438460000000008,7.315,0,0
-0.00010252119999999999,0.0002927167999999998,0.0030891642,-0.0008008698000000001,0.0007009306000000001,7.316,0,0
-0.0003548864,-0.0008091292000000002,0.004648879000000001,-0.0007106786000000001,0.0010345546,7.317,0,0
-0.00024093460000000004,-0.0012750372000000004,0.0049463020000000005,-0.0008365318000000001,0.0010322066000000001,7.318,0,0
-0.0004720484,-0.000607558,0.0045515584,-0.0006140406,0.0013206406,7.319,0,0
-0.0009771132,0.0007439559999999998,0.0028921724000000003,-0.00048113759999999996,0.0013388814,7.32,0,0
-0.0010222492,0.002079112,8.387440000000041e-05,-0.0008016780000000001,0.0008194941999999999,7.321,0,0
-0.0003920102,0.0035560699999999997,-0.0027838936,-0.0010538652,0.00023962019999999992,7.322,0,0
0.00026897780000000005,0.0035463020000000003,-0.0045907516,-0.0008285614,-0.0002907338,7.323,0,0
0.0003539378,0.0012283560000000001,-0.005505742,-0.0005937418000000001,-0.0005187346,7.324,0,0
0.0009638986000000001,-0.001108102,-0.00588581,-0.0006012768000000003,-0.000372024,7.325,0,0
0.0018164026000000002,-0.0024824499999999998,-0.0047612412,4.84259999999998e-06,-4.17999999999995e-07,7.326,0,0
0.0014380346000000001,-0.003879146,-0.0020431372,0.00048019660000000005,0.00018865120000000003,7.327,0,0
0.0007693266000000001,-0.004153540000000001,0.00026750479999999974,3.362220000000004e-05,3.2659200000000055e-05,7.328,0,0
0.0010616176000000001,-0.0021545799999999997,0.0016466588,-0.00027510359999999995,-0.000285062,7.329,0,0
0.001247491,0.00037740600000000016,0.0032220188000000004,-0.00015646059999999996,-0.0006276456,7.33,0,0
0.0008427523999999999,0.002244812,0.0036372260000000003,-0.0004010766,-0.0009329488,7.331,0,0
0.0002424444,0.002749852,0.0026816319999999998,-0.0006223032,-0.0007506866,7.332,0,0
-0.0010139355999999999,0.002090284,0.002455262,-0.00034245956,0.0001736094,7.333,0,0
-0.0019311624,0.0010037360000000003,0.002676344,-0.00037391256000000005,0.0007962574,7.334,0,0
-0.0021134826,-0.0003023759999999998,0.0025764200000000003,-0.00038992996,0.0009451988000000001,7.335,0,0
-0.00195521,-0.0008483899999999999,0.0024617280000000003,-1.9429359999999978e-05,0.0009689966,7.336,0,0
-0.00128973,-0.0005127799999999999,0.0025082220000000005,1.1707239999999984e-05,0.0007638016,7.337,0,0
-0.0005428380000000001,-0.0004128739999999998,0.0020833400000000004,-0.00014845239999999998,0.00026930559999999994,7.338,0,0
-0.0002924000000000001,-0.0013114759999999998,0.0009005939999999999,0.0001531268,-0.0001229824,7.339,0,0
-0.0008082640000000002,-0.002108416,5.586800000000004e-05,0.00037243560000000005,0.0001274758,7.34,0,0
-0.0013562980000000001,-0.0027574528,-0.000680054,-1.9077999999999955e-06,0.0005650964,7.341,0,0
-0.0016902832000000002,-0.0033045049999999997,-0.002025832,0.00011679740000000001,0.0007085780000000001,7.342,0,0
-0.0017249832000000003,-0.002474721,-0.0026284320000000004,0.0004817574,0.0006736895399999999,7.343,0,0
-0.0012258550400000001,-0.00044516300000000005,-0.0017130180000000002,0.0002814428,0.00057823514,7.344,0,0
-0.00056986564,0.001181233,-0.0005674460000000003,0.00028088120000000004,6.521314000000001e-05,7.345,0,0
3.956435999999999e-05,0.0020406798,0.0013439559999999999,0.0006184626,-0.00026439886000000003,7.346,0,0
0.00033481156,0.002554962,0.004107052,0.0008650974,-0.00027812066000000005,7.347,0,0
0.0008835775600000001,0.002154024,0.005189002000000001,0.0007862784,-0.0005689782000000001,7.348,0,0
0.0007108484000000001,-0.00010631000000000008,0.0046387040000000004,0.0005589858,-0.0005666016,7.349,0,0
-0.00044916299999999993,-0.00409144,0.003757583,0.00042292299999999996,-0.000376409,7.35,0,0
-0.0001027109999999999,-0.005294416,0.002004323,2.9523799999999943e-05,-0.0006945310000000001,7.351,0,0
0.0010050410000000004,-0.0041955939999999995,-0.0006368669999999999,-0.0006216722,-0.0011603912,7.352,0,0
0.0010131670000000001,-0.0044046219999999995,-0.002840573,-0.00042352520000000013,-0.001034503,7.353,0,0
0.0015947080000000002,-0.0021944699999999996,-0.004472819,0.0001792268,-0.0006449912000000001,7.354,0,0
0.0031682280000000004,0.0028925960000000003,-0.005779922000000001,6.944040000000001e-05,-0.0004979104,7.355,0,0
0.00288929,0.004766542,-0.006454352,0.0004312736,-0.00020128120000000008,7.356,0,0
0.001760081,0.00417584,-0.0066960480000000005,0.0008935032000000001,0.0004786148,7.357,0,0
0.001383854,0.005337466000000001,-0.005503066,0.00010273520000000008,0.0010469986000000001,7.358,0,0
0.00046313599999999995,0.005705156,-0.002803628,-0.0005103208,0.0010406106,7.359,0,0
-0.000596708,0.004983384,-0.000533208,-0.00022521460000000004,0.0008290664,7.36,0,0
-0.001189676,0.0047132400000000005,0.0005026731799999999,-0.0005389788000000001,0.0006120532,7.361,0,0
-0.0014399188,0.004221216,0.0015583911799999998,-0.0007236300000000001,0.0002578877999999999,7.362,0,0
-0.0015706157999999999,0.0029567660000000004,0.00281008518,-0.000235715,-0.00010302360000000003,7.363,0,0
-0.0010078782,0.002039822,0.00276827718,-0.000373429,-0.00045669380000000004,7.364,0,0
0.0003839598000000002,0.003865808,0.0019754315800000004,-0.0009889788,-0.000748873,7.365,0,0
0.0014131658000000004,0.005319354,0.0014288084000000003,-0.0013893186,-0.001047713,7.366,0,0
0.0008159756000000002,0.003383982,0.0003580783999999999,-0.001481768,-0.0011266294,7.367,0,0
-0.0004340444000000001,0.00072309,-0.0021997736,-0.0013373999999999999,-0.0011531651800000002,7.368,0,0
-0.000509634,-0.00210731,-0.004504349600000001,-0.000668746,-0.00121720978,7.369,0,0
-0.00042213000000000016,-0.00669279,-0.004828538,0.000281214,-0.00108957778,7.37,0,0
-0.0009375700000000005,-0.010998104000000002,-0.0038826680000000006,0.0008865672000000001,-0.00104750178,7.371,0,0
-0.001673576,-0.013420134,-0.0015364340000000002,0.0011437704,-0.00106706338,7.372,0,0
-0.0014033600000000002,-0.012354404000000001,0.002553566,0.0016145894000000002,-0.0010492478,7.373,0,0
-0.000415386,-0.007301124000000001,0.006476048,0.0017472574000000002,-0.0007592318,7.374,0,0
-0.00029879400000000023,-0.0033612839999999995,0.007859465999999999,0.0010800642,-0.0003819572,7.375,0,0
-0.00044964540000000017,-0.0009181999999999997,0.006794988,0.0009711124600000002,0.00011504133,7.376,0,0
0.0007167905999999999,0.002947455400000001,0.004173425999999999,0.00107436226,0.00078779673,7.377,0,0
0.0021228446000000002,0.004316107400000001,0.0005473299999999997,0.00026606525999999994,0.00114155833,7.378,0,0
0.0014197366,0.0015959954000000008,-0.0028076540000000006,-0.00022286754000000003,0.00117700133,7.379,0,0
0.0004898492,-0.0010461086,-0.004706954,-8.031274000000002e-05,0.0012594513300000002,7.38,0,0
0.0005455076,-0.0026556426,-0.0048121480000000005,-0.0003065562,0.0016055408000000002,7.381,0,0
0.0006704542,-0.0027250629400000005,-0.0036583404,-0.000662281,0.0016272128000000001,7.382,0,0
0.0003558992,-0.00015503894000000028,-0.0017364624,-0.00034904299999999994,0.0012442979000000002,7.383,0,0
-8.7917e-05,0.0039049730600000006,0.0008758016000000005,-0.00011590379999999998,0.0011086435000000003,7.384,0,0
-0.0004566996,0.009363217060000002,0.0032518876000000004,-0.0005105854000000001,0.0010661343000000002,7.385,0,0
-0.0012045646000000002,0.014863041060000002,0.0046886476,-0.0001975942,0.0007065103,7.386,0,0
-0.0014478032000000002,0.017162106000000003,0.005277536000000001,0.0003082346,0.00046936229999999996,7.387,0,0
-0.0016095182000000002,0.015383124000000001,0.004355220200000001,0.0001421516,0.0006728471999999999,7.388,0,0
-0.00190236,0.008932023999999998,0.0020353602,0.0002347912,0.0006956229999999999,7.389,0,0
-0.0018061702,-0.0015385160000000002,-8.724579999999985e-05,0.0005181908,0.0005907776,7.39,0,0
-0.0014999402,-0.011002456,-0.0015562178,-0.0003415003999999999,0.0006600161999999999,7.391,0,0
-0.0014375262,-0.016001256000000002,-0.0026269338,-0.0013247564,0.00023941259999999995,7.392,0,0
-0.0012235392000000001,-0.016761252,-0.002977234,-0.001168417,-1.7723399999999987e-05,7.393,0,0
-0.0006748364,-0.013336046,-0.0026870020000000004,-0.0013370014,-5.574300000000001e-05,7.394,0,0
-0.00014575819999999997,-0.007076586,-0.0017709079999999999,-0.0013589258,-0.000523273,7.395,0,0
0.0008733458,-0.001093892,-0.0006713180000000001,-0.0004985650000000001,-0.0005632022600000001,7.396,0,0
0.0015671578000000003,0.002800014,-0.00018265719999999993,6.978680000000001e-05,-0.00038807886,7.397,0,0
0.0019894428,0.004139411999999999,0.00036145500000000006,-4.8552999999999994e-05,-0.00056374686,7.398,0,0
0.0024166120000000003,0.004278612,0.0008671350000000002,-9.065259999999999e-05,-0.0008311388600000001,7.399,0,0
0.00241115,0.004459008,0.0005758380000000001,0.0003490282,-0.0007301148600000001,7.4,0,0
0.002082432,0.00336497406,0.0003431686,0.0005972194,-0.0009823182,7.401,0,0
0.0015531288,0.0006236000600000002,0.0007085258,0.0008513736,-0.001415704,7.402,0,0
0.0011175872,-0.00214272394,0.0005288132,0.00138576,-0.0011922139200000001,7.403,0,0
0.0007291822,-0.0038839159400000005,-0.00024872480000000003,0.0015627182,-0.00085799012,7.404,0,0
0.0005961002000000001,-0.00431214194,-0.0005344638,0.0010593042000000001,-0.00068620392,7.405,0,0
0.0007623742000000001,-0.0025616660000000006,-0.0007149334000000001,0.0008268716,-0.00063141952,7.406,0,0
0.0008283026,0.0007649759999999995,-0.0009879168,0.0009233116,-0.00037542491999999997,7.407,0,0
0.0005125942,0.0036819039999999997,-0.0014219644,0.00048011460000000006,-0.0004410354,7.408,0,0
0.0003154266,0.0047663184,-0.0020624384,0.00023108760000000003,-0.0005864015999999999,7.409,0,0
-0.00011840339999999999,0.0033404584000000003,-0.0030047764,0.00028629,-0.0001825498,7.41,0,0
-0.0011484894,0.0010621963999999998,-0.0041351814,5.561600000000025e-06,0.0003005018,7.411,0,0
-0.0011977958,-0.0003267676000000001,-0.0043279880000000005,-0.00041800340000000004,0.0005581504,7.412,0,0
-0.0006685088,-0.0011909886000000002,-0.0027363680000000003,-0.0004148726,0.0006445962000000001,7.413,0,0
-0.0006387192000000001,-0.0015552850000000002,0.0002326679999999999,-1.902579999999999e-05,0.0007749384000000001,7.414,0,0
-0.00047542480000000006,-0.0012129710000000002,0.003395976,0.00021790140000000008,0.00052248623,7.415,0,0
-7.002279999999999e-05,-0.0011253550000000002,0.0054654560000000005,0.00036388480000000003,0.00021570423,7.416,0,0
-0.00016631160000000003,-0.0014614352,0.005306110000000001,0.0004889263600000001,0.00023444963,7.417,0,0
-0.0005846426,-0.0013638758000000001,0.0041453076,0.00011694656000000003,0.00011244943,7.418,0,0
-0.0005268466,-0.0008183683999999999,0.0021203364,-9.155603999999996e-05,-8.539177e-05,7.419,0,0
-0.00039328560000000004,-3.7640000000000134e-06,-0.0016793556000000002,0.00040725436000000004,-0.0001545426,7.42,0,0
-0.00036479348,0.0005849466,-0.005488507600000001,0.00070296996,-6.291060000000001e-05,7.421,0,0
-0.00020985087999999996,0.0004665178,-0.0086055916,0.0005941616,6.2654000000000095e-06,7.422,0,0
-0.00013405707999999999,0.0008436814,-0.011128947200000001,0.0005831916,0.0003632382,7.423,0,0
-0.00041354608,0.0021373019999999998,-0.010561136000000002,0.00036431599999999995,0.0011083496,7.424,0,0
-0.00100092748,0.0026445636,-0.005847884000000001,-0.0004105840000000001,0.0014357766000000001,7.425,0,0
-0.0016683476,0.0025042288400000004,-3.556400000000095e-05,-0.0008312824000000001,0.0014381856,7.426,0,0
-0.0020152962000000003,0.0029686118400000005,0.005507218,-0.0007179954000000001,0.001450775,7.427,0,0
-0.0019124706,0.0026263258400000006,0.009690372000000001,-0.0006848554,0.0010670198,7.428,0,0
-0.0010514606,0.00140306944,0.01004332,-0.0005871352,0.000309742,7.429,0,0
0.0006759634000000003,0.0008235459,0.007905178,-0.00023131099999999997,-3.646259999999999e-05,7.43,0,0
0.0019643114000000004,7.996806000000001e-05,0.0059412580000000005,-7.294055999999997e-05,-5.63738e-05,7.431,0,0
0.0021751196000000003,-0.00120391794,0.0049411640000000005,-0.0003482437599999999,-0.0007107078,7.432,0,0
0.0021411104000000005,-0.00196361994,0.004935282,-0.0005276397599999999,-0.0015246006000000003,7.433,0,0
0.0016168012000000002,-0.00243849354,0.005361504,-0.0008566357599999999,-0.0017085008,7.434,0,0
0.00022943139999999997,-0.0027147359999999997,0.005320544,-0.00143971596,-0.0018301302000000002,7.435,0,0
-0.0004659554,-0.0015666240000000002,0.005152049999999999,-0.001670336,-0.001954834,7.436,0,0
-0.0004608464,5.525399999999981e-05,0.004414316000000001,-0.001766078,-0.0013505526000000003,7.437,0,0
-0.0004260666,0.00086531,0.002864484,-0.0020604860000000003,-0.0005765083999999999,7.438,0,0
-0.0006362238,0.0013419408,0.0018411796000000003,-0.002217658,-0.0004494026,7.439,0,0
-0.000769684,0.0019541128,0.00039208159999999995,-0.0016168262000000003,-0.0002947528,7.44,0,0
-0.0006301000000000001,0.0010313768,-0.0016690144,-0.0008148422,-0.0002538388,7.441,0,0
-0.0012132052,-0.0015975451999999998,-0.0034353924000000004,-0.0004918492,-0.0006535402,7.442,0,0
-0.0017058052,-0.0021933732,-0.0052457444,0.00015678800000000004,-0.0005357211999999999,7.443,0,0
-0.0013364808,-0.0009762560000000002,-0.006470336,0.0010196720000000001,-0.000322473,7.444,0,0
-0.0006291027999999999,-1.0582000000000083e-05,-0.006258308,0.0009286870000000001,-0.00045079939999999997,7.445,0,0
7.313600000000012e-05,0.001844712,-0.0054864760000000005,0.00029106800000000007,-0.00043132272,7.446,0,0
0.0011861120000000002,0.004650004,-0.004178752,0.00011197900000000006,-0.00020665732,7.447,0,0
0.0020912440000000003,0.0050583704,-0.0017289019999999998,-8.757019999999994e-05,-7.143551999999999e-05,7.448,0,0
0.0023047260000000004,0.0024861603999999995,0.00018439400000000005,-0.0003350158,9.219048000000003e-05,7.449,0,0
0.0019219038000000003,-0.00010075960000000038,0.0003692580000000001,-0.00034811499999999997,0.00077874308,7.45,0,0
0.0010059626000000002,-0.0015459194000000001,-0.00045791799999999987,-0.00039946100000000004,0.0013796504000000002,7.451,0,0
-1.6823400000000148e-05,-0.0026640096000000004,-0.001727372,-6.53866e-05,0.001666657,7.452,0,0
-0.0014755114,-0.003510916,-0.0036317240000000002,0.0004580874,0.0018506680000000002,7.453,0,0
-0.0021415474,-0.002869272,-0.005098972000000001,0.000617741,0.0018222682000000002,7.454,0,0
-0.0013889352,-0.002192452,-0.004597954000000001,0.0009900314,0.0014932594000000002,7.455,0,0
-0.0007025940000000001,-0.0024064921999999997,-0.0025580720000000006,0.0014712584000000002,0.0009629958000000001,7.456,0,0
-3.1709999999999905e-05,-0.002237128,-0.00023935600000000025,0.0015140036,0.0005650038000000001,7.457,0,0
0.0011946816000000002,-0.0013279166000000002,0.00194631,0.0014894216,0.00012633559999999995,7.458,0,0
0.0016703516000000002,-5.2160599999999976e-05,0.003000946,0.0013278162000000002,-0.00021858960000000006,7.459,0,0
0.0010265248,0.0014616974,0.0025151,0.0009289594000000002,-0.00047438900000000003,7.46,0,0
0.0005638886,0.0022448134,0.0018096478,0.0005064358000000001,-0.0005909175999999999,7.461,0,0
0.0005141810000000001,0.0022594934,0.0009936936600000003,0.00020595280000000005,-0.00014687960000000003,7.462,0,0
4.44814e-05,0.0011993860000000002,-8.283934000000002e-05,-7.740559999999998e-05,0.0002788966,7.463,0,0
-0.0009566386,-0.003065702000000001,-0.00066270174,-0.00041029220000000005,0.000266291,7.464,0,0
-0.0014565598000000001,-0.00667681,-0.00036465484800000004,-0.0006574394,6.312520000000004e-05,7.465,0,0
-0.0011639316000000002,-0.006570162000000001,-0.00024107564800000003,-0.0004993804,-5.757080000000001e-05,7.466,0,0
-0.001321582,-0.006805436000000001,-0.000329462308,3.500899999999996e-05,-0.0002005676,7.467,0,0
-0.0013138420000000002,-0.00542717,0.000436040692,3.127379999999996e-05,-0.0006202500000000001,7.468,0,0
0.00041870199999999985,0.0014423700000000001,0.001703979092,0.0001950034,-0.0006694954,7.469,0,0
0.0014592899999999998,0.00705999,0.0028076222,0.0011457434000000002,-0.00019799500000000002,7.47,0,0
0.0011008493599999997,0.00833648,0.0035817252000000005,0.0014145800000000001,5.3992599999999995e-05,7.471,0,0
0.00169658936,0.010203180000000001,0.00387519,0.0010160797200000002,0.00010958740000000001,7.472,0,0
0.0022622627599999997,0.012095278000000001,0.0032436134000000004,0.0012600257200000003,0.0005893838,7.473,0,0
0.0014415567600000003,0.010460012000000001,0.0020098298,0.0011348467200000003,0.000695845,7.474,0,0
0.0007975275600000001,0.0063884039999999994,0.0008040407999999998,-3.645527999999998e-05,0.00020250459999999993,7.475,0,0
0.0006978490000000001,0.0027668239999999998,-0.000136768,-0.00035620228000000004,9.552120000000005e-05,7.476,0,0
0.000273043,0.0001720939999999996,-0.00041892080000000004,-0.00017402679999999998,1.3020199999999994e-05,7.477,0,0
-2.886720000000002e-05,-0.003189654,4.4979999999996984e-07,-0.0006615332,-0.00012497560000000003,7.478,0,0
-0.0004565452,-0.007065907999999999,0.0002608532,-0.0006749542,-0.00015146160000000002,7.479,0,0
-0.0008776620000000001,-0.00870666,5.278020000000001e-05,-0.00031906260000000004,-0.0003888296000000001,7.48,0,0
-0.0006245770000000001,-0.00823919,-0.00015214500000000001,-0.0005486242,-0.0008523096000000001,7.481,0,0
0.00029094699999999995,-0.007070148000000001,-0.0006619642000000002,-0.000816939,-0.0013365406,7.482,0,0
0.00043797820000000007,-0.006945066,-0.0020919862000000006,-0.0005076944000000001,-0.0015003382600000004,7.483,0,0
-3.4805800000000005e-05,-0.005622814,-0.0034312160000000004,-0.00040121960000000006,-0.0008274194600000002,7.484,0,0
-2.5977799999999892e-05,-0.0029463092000000003,-0.00427926,-0.0008213532000000001,-3.1823460000000056e-05,7.485,0,0
-0.0016101516,-0.0033292392000000004,-0.005232282000000001,-0.0007611114000000001,0.00032729794,7.486,0,0
-0.0033624976,-0.0036616286000000003,-0.005433444,-0.0005370030000000001,0.00078314034,7.487,0,0
-0.002306886,-0.0010572506000000005,-0.004844354,-0.0007145224000000001,0.0008836423999999999,7.488,0,0
-0.0006059519999999999,0.0005209534000000001,-0.0035953738000000005,-0.0005149190000000001,0.0005308696,7.489,0,0
0.00011648200000000005,0.0012591026000000002,-0.0016615418000000004,0.000564419,0.0006388076,7.49,0,0
0.0014534086,0.0031937486000000004,5.5888200000000045e-05,0.0013669098000000002,0.0010586022000000001,7.491,0,0
0.0018726906000000004,0.0025698500000000003,0.0010179466000000002,0.0014530390000000002,0.0008523296000000001,7.492,0,0
0.00042240859999999997,0.00151883,0.0021396926,0.0020613038000000003,0.0006892864,7.493,0,0
-0.0003601512,0.00263085,0.0031405444000000005,0.002341198,0.0006088806,7.494,0,0
-0.00019836119999999994,0.0026561,0.0031416904,0.0015076740000000003,0.00011549339999999999,7.495,0,0
0.0002061762000000001,0.0029498280000000003,0.0030009264000000003,0.0007266476000000001,-0.00012155299999999999,7.496,0,0
0.0007787786000000001,0.004637474000000001,0.0025151059999999996,0.00014902960000000016,-2.2112379999999987e-05,7.497,0,0
0.0013147932000000001,0.004467688,0.0014781899999999999,-0.0010706184,0.00010823122000000002,7.498,0,0
0.001452411,0.002603568,0.0008568780000000002,-0.0020894924000000002,-7.264438e-05,7.499,0,0
0.0011635710000000002,0.0021494920000000002,0.0016273700000000002,-0.0018901318,-0.00024555318,7.5,0,0
0.0009977878,0.0017821520000000002,0.0026466580000000005,-0.0017437079999999998,-0.00017367658,7.501,0,0
0.0011281614,0.000639272,0.0028542116000000004,-0.001455528,-0.00018979700000000004,7.502,0,0
0.0005569508000000001,9.756319999999999e-05,0.0026194216000000005,-0.0003809739999999999,-0.00022707760000000002,7.503,0,0
-0.00032534919999999996,-0.00023600680000000006,0.0011042796000000003,5.670999999999999e-05,-0.0002417052,7.504,0,0
-0.0010763292,-0.0014382768,-0.00043342041999999996,-0.00024223659999999996,-0.0004952272000000001,7.505,0,0
-0.0017580760000000003,-0.0025459208000000004,-0.00024391442000000008,-0.000168454,-0.0010158014000000001,7.506,0,0
-0.0021501936000000005,-0.0025151816000000002,0.00047863197999999986,-0.00020757299999999999,-0.0013513914,7.507,0,0
-0.0019925216000000003,-0.0020862008000000006,0.00124290898,-0.0008992410000000001,-0.0015009782,7.508,0,0
-0.0013312611999999999,-0.0010039968000000003,0.0027134529800000003,-0.001026131,-0.0012992301999999998,7.509,0,0
-0.0010361711999999999,0.0007344712000000001,0.0029413930000000005,-0.0005587538,-0.0007247669,7.51,0,0
-0.0007153871999999999,0.0027637452000000002,0.0009203589999999999,-0.00043023580000000006,-0.0004494261,7.511,0,0
-0.0006116338,0.004294386,-9.532899999999995e-05,0.00012112919999999989,-0.0001263333,7.512,0,0
-0.0005305288,0.004860042,0.0005469560000000001,0.0012317192000000001,0.0003004191,7.513,0,0
-0.00044438780000000003,0.004656176000000001,0.0003917040000000002,0.0017180146000000001,0.0004146629,7.514,0,0
-0.000233795,0.0031298800000000007,-0.0006303039999999999,0.0013710474000000002,0.0004683606,7.515,0,0
-2.4512139999999984e-05,0.0002916279999999995,-0.001171054,0.0010352114000000002,0.0005473552,7.516,0,0
-0.00016584474,-0.0026943040000000007,-0.002216862,0.0008742054,0.00040361939999999995,7.517,0,0
0.0003842702600000001,-0.004864506,-0.0042240179999999995,0.00014531540000000003,-8.561339999999998e-05,7.518,0,0
0.0011732048600000002,-0.006796012,-0.005421896000000001,-0.000399594,-0.0005064514,7.519,0,0
0.0017556020600000002,-0.009021802,-0.0056146500000000005,3.586260000000002e-05,-0.0005187286000000001,7.52,0,0
0.0017400372000000003,-0.009777346000000001,-0.005195326,7.69918e-05,-0.00035606360000000004,7.521,0,0
0.0017489374000000005,-0.006729794,-0.004363116,-0.0005779542,-0.0002659838,7.522,0,0
0.0017585754000000004,-0.002434405999999999,-0.00346669,-0.0003743421999999999,-0.0001581984,7.523,0,0
0.0011048114000000002,0.0006602380000000001,-0.002340996,0.00029526380000000004,-0.0002740364,7.524,0,0
0.0005655036600000002,0.0046589940000000005,-0.001017522,0.0002933572,-0.00031718754,7.525,0,0
0.00051530086,0.008309518,4.594799999999992e-05,0.0008572920000000002,0.00017598206000000007,7.526,0,0
0.0006293214600000002,0.008681902,0.00171141,0.0018657980000000001,0.0007115852600000001,7.527,0,0
7.151605999999999e-05,0.007930162000000001,0.0040731940000000005,0.0019431880000000002,0.00086128446,7.528,0,0
-0.0008918679400000001,0.00835176,0.005435162,0.0018634980000000003,0.0010590570600000002,7.529,0,0
-0.0019097162000000002,0.008049178,0.00563677,0.0016109538,0.0012833404000000001,7.53,0,0
-0.0020560694000000003,0.00619992,0.005650128,0.00038097780000000006,0.0009160164000000001,7.531,0,0
-0.0012814154000000003,0.003163888,0.005108758000000001,-0.0008318062000000001,0.0005116052000000001,7.532,0,0
-0.0008158660000000002,-0.0006690579999999999,0.003307134,-0.0012629754,0.0005965004,7.533,0,0
-0.00021679179999999993,-0.0041579320000000005,0.0015250780000000002,-0.0015518594,0.0009042404000000001,7.534,0,0
0.0007831936040000001,-0.006662306000000001,0.000559356,-0.0015692052,0.0008227518000000001,7.535,0,0
0.000981869604,-0.007412524,-0.000295134,-0.0006922003999999999,0.0005829223600000001,7.536,0,0
0.000109714004,-0.007182434,-0.001055504,-3.3415999999999952e-06,0.0007652135600000001,7.537,0,0
-0.00043693399600000006,-0.007303224,-0.001011428,-0.00035016839999999996,0.0008369705600000002,7.538,0,0
-0.0006365461960000001,-0.007116989999999999,-0.0005751200000000001,-0.0008266943999999999,0.00024006796000000007,7.539,0,0
-0.0011197816,-0.005754846,-0.000406414,-0.0011105344,-1.115163999999987e-05,7.54,0,0
-0.0013184036,-0.004333493,-2.1106400000000022e-05,-0.0018016132000000002,0.0002047318000000001,7.541,0,0
-0.0008993639999999999,-0.0031060669999999997,0.0003612118,-0.002686028,-0.00033086819999999996,7.542,0,0
-0.000776753,-0.001152727,4.91798e-05,-0.002677542,-0.0008836082,7.543,0,0
-0.000859563,-6.057199999999996e-05,-0.00025705720000000006,-0.002144788,-0.0009215722,7.544,0,0
-0.00027324040000000003,-0.000192526,-1.733919999999998e-05,-0.00213536,-0.001332312,7.545,0,0
-0.00013949880000000005,-0.0002107956,2.381566e-05,-0.0017822588,-0.0019463980000000002,7.546,0,0
-0.0010513848,-0.0004586262000000001,-0.00022409734000000003,-0.0007703648,-0.0017281006000000002,7.547,0,0
-0.0011820458000000001,-0.0005226182000000002,-0.00027265074,-0.00020220320000000004,-0.0015506224000000001,7.548,0,0
-8.316979999999996e-05,0.0005526807999999999,-0.0005950317400000001,0.00021834079999999997,-0.0015199784,7.549,0,0
0.0007326956000000002,0.0017274707999999999,-0.00163963974,0.0013201588,-0.0006596664000000001,7.55,0,0
0.001416436,0.0018627452000000001,-0.0030569922,0.0019601136,8.374360000000004e-05,7.551,0,0
0.0023713100000000006,0.0024048778,-0.004551413400000001,0.0020086356,0.0003269166,7.552,0,0
0.0027757694,0.0037520877999999997,-0.005458652000000001,0.0026628380000000003,0.0008477384000000001,7.553,0,0
0.0021060386000000004,0.0043352218000000005,-0.005622544000000001,0.0028357880000000005,0.0014885564,7.554,0,0
0.0012162804,0.004636443800000001,-0.005429989999999999,0.002290462,0.0012812282000000002,7.555,0,0
0.0010542444,0.0056365420000000005,-0.004585098000000001,0.0020575480000000006,0.0008999522,7.556,0,0
0.0014295224,0.006994628,-0.0032534980000000005,0.0018694378,0.0009345902000000001,7.557,0,0
0.0015182390000000002,0.007696966000000001,-0.0023042660000000006,0.0013396698,0.0008521142,7.558,0,0
0.0007238618,0.007617696,-0.001919094,0.0009220690000000001,0.0007373326,7.559,0,0
-8.524599999999998e-05,0.007490048,-0.002026666,0.0008885496000000001,0.0007641306,7.56,0,0
-0.001485138,0.005099164000000001,-0.0021827039999999997,0.0006076082,0.0009763292,7.561,0,0
-0.0035300220000000007,-1.2467999999999854e-05,-0.00089247,0.0003742942,0.0008395574,7.562,0,0
-0.004106712000000001,-0.002943864,0.0012753900000000002,0.0002404342,0.00032828079999999997,7.563,0,0
-0.00250356,-0.003260906,0.0033324720000000004,-0.000294693,-0.0002351476,7.564,0,0
-0.000673802,-0.005299738,0.005924072000000001,-0.0010408716,-0.0006127534000000001,7.565,0,0
0.00017230199999999977,-0.007219618,0.007936312000000001,-0.0015167342000000001,-0.000818432,7.566,0,0
0.00108019,-0.006408238,0.007577032000000001,-0.0017674160000000002,-0.0012684006,7.567,0,0
0.0011782820000000001,-0.006983808,0.005928320000000001,-0.002256318,-0.0014453080000000002,7.568,0,0
0.0001576167999999999,-0.008613543999999999,0.006108570000000001,-0.0020241152,-0.0012589740000000002,7.569,0,0
-0.0007246674000000002,-0.00676861,0.007587316,-0.0013504132,-0.0012243472000000003,7.57,0,0
-0.0006226834000000001,-0.002583516,0.008207720000000002,-0.0009373567999999999,-0.0011731346000000001,7.571,0,0
-0.0009316214,-0.0008682780000000002,0.008397754,-0.00041982540000000005,-0.0008500006,7.572,0,0
-0.0011641773999999999,-0.0012109660000000002,0.008264428,-0.00010055980000000001,-0.000433049,7.573,0,0
0.00042350980000000014,-0.000278412,0.0060033460000000005,-4.88158e-05,0.00013313700000000002,7.574,0,0
0.0016399720000000002,-8.795999999999934e-06,0.0013279960000000001,-0.00016760380000000003,0.00040117180000000003,7.575,0,0
0.00231932,-0.0006872460000000003,-0.003345072,-0.0002606146,0.0003433792,7.576,0,0
0.0039669760000000005,0.000505316,-0.007278130000000001,-0.0004343118,0.0006404132,7.577,0,0
0.005046104000000001,0.0025386000000000002,-0.010342232,-0.0005720114,0.0008158256,7.578,0,0
0.0035818750200000003,0.0025667759999999998,-0.011560023999999999,-0.0006711697999999999,0.0005009438000000001,7.579,0,0
0.0016469490200000003,0.0016662942,-0.009446554,-0.0007032022000000001,0.00028519579999999997,7.58,0,0
0.00042530702,0.0013176484,-0.005410428,-0.0007831998,0.00042661939999999996,7.581,0,0
-0.00109530498,0.0010724524,-0.0020672019999999998,-0.0007683199999999999,0.000371219,7.582,0,0
-0.0022000589800000004,0.0010842064,0.001168392,-0.0003874283999999999,6.228820000000001e-05,7.583,0,0
-0.0023771614000000006,0.0012782464,0.0035425180000000006,-0.0004234948,-6.922440000000003e-05,7.584,0,0
-0.0020435174,0.0015441964,0.0036719160000000003,-0.0004610186,1.756319999999997e-05,7.585,0,0
-0.0018668474000000002,0.0009001441999999999,0.0026792020000000003,-3.366440000000001e-05,-2.759400000000006e-06,7.586,0,0
-0.0018906294000000001,-0.0004525358000000003,0.0021828800000000003,0.0003747056,-7.671799999999949e-06,7.587,0,0
-0.0019570494,-0.0010091212,0.0015881570000000002,0.00038839939999999997,0.00035784299999999994,7.588,0,0
-0.0016377966,-0.0006521292000000003,0.0006671650000000002,0.0006789962,0.0007586514,7.589,0,0
-0.0009777786,-0.00015891340000000014,-0.00023949699999999995,0.0013501764000000002,0.0008640034,7.59,0,0
-0.00045656500000000014,0.00043419879999999984,-0.001231733,0.0013904054,0.0006670988,7.591,0,0
0.00013021680000000003,0.0013817432,-0.001538723,0.0009400902000000002,0.0002470755999999999,7.592,0,0
0.0002736388,0.0014574156,-0.001490734,0.0006606870000000002,-0.00017755000000000003,7.593,0,0
-0.00034331060000000003,0.0004782556,-0.0016476628,0.00030226420000000013,-0.00041820420400000003,7.594,0,0
-0.0008881736000000001,-0.00043518440000000005,-0.0016552168000000002,-0.0003676868,-0.0006272506040000001,7.595,0,0
-0.0006924172000000001,-0.0003558026,-0.0012609408000000002,-0.00026282199999999996,-0.0006741194039999999,7.596,0,0
-0.00014989099999999992,0.00032091500000000007,-0.0008934148,0.00030464120000000004,-0.000340531604,7.597,0,0
0.000623031,0.0008667720000000001,-0.0011136108000000002,0.000540828,-0.000282961204,7.598,0,0
0.0012316768000000002,0.001047682,-0.0017548340000000003,0.0009984914000000001,-0.0003489884,7.599,0,0
0.0004966798,0.00038420800000000014,-0.00230164,0.0014546044,-8.559760000000004e-05,7.6,0,0
-0.00012473619999999998,0.0003818302000000001,-0.002992898,0.0011261966,-0.00013518900000000002,7.601,0,0
0.0004068498,0.0017166342000000002,-0.0038018540000000003,0.0005691958,-0.0005973988,7.602,0,0
0.0005979257999999999,0.0024070842000000004,-0.0035560640000000003,0.0006943608,-0.0006979288000000001,7.603,0,0
0.0003619552,0.0023807962,-0.001734304,0.0005545984,-0.00045499859999999996,7.604,0,0
0.0006488352,0.0026060302,0.0008795240000000005,0.0003069344,-0.0004875832,7.605,0,0
0.0006143372,0.0004651280000000004,0.0030452240000000005,0.0008071482,-0.0002489368,7.606,0,0
2.2533199999999996e-05,-0.0027171879999999997,0.004457082,0.0007618508,0.00025394780000000003,7.607,0,0
-6.348280000000001e-05,-0.003085536,0.0050601740000000015,2.5922799999999893e-05,0.0002663596,7.608,0,0
0.0005627619999999999,-0.0023054219999999997,0.004533588,-0.00023250620000000015,-8.806999999999999e-06,7.609,0,0
0.00150766,-0.001436236,0.00271134,-0.0003047052000000001,3.0282600000000034e-05,7.61,0,0
0.001569614,-0.0002485060000000001,0.0006661040000000002,-0.0010323372,0.00023131200000000004,7.611,0,0
0.0008707319999999999,8.080999999999995e-05,-0.0009490319999999999,-0.001199353,0.00032150540000000006,7.612,0,0
0.0001347899999999998,-0.0006853002000000001,-0.0027372180000000005,-0.0005778138,0.0008423288000000001,7.613,0,0
-0.0007705260000000001,-0.0006003582000000001,-0.003926138000000001,-0.0005055314,0.0012965686,7.614,0,0
-0.0012008698,0.0009805657999999997,-0.0040834138,-0.0007797804000000001,0.0011077448000000002,7.615,0,0
-0.0006079518,0.004232595800000001,-0.0030514711999999997,-0.0009061904,0.0010469532,7.616,0,0
-3.0309800000000013e-05,0.0076304658,-0.0013734371999999996,-0.0005994388,0.0012591172000000002,7.617,0,0
-0.0004644778,0.00814686,-0.00010177559999999995,-0.00043175200000000014,0.0010577396,7.618,0,0
-0.0008627278,0.0059674,0.00015828440000000005,-6.21744000000001e-05,0.0008078064,7.619,0,0
-0.00038964600000000006,0.0016091539999999998,-0.00011813179999999989,0.0006290756,0.0007853934000000001,7.62,0,0
-0.00015338800000000007,-0.003684446,3.865599999999965e-06,0.0011513614,0.00035493100000000006,7.621,0,0
-0.0003746664,-0.007764694000000001,-1.587439999999995e-05,0.0013646118,7.688940000000002e-05,7.622,0,0
0.0002726219999999999,-0.009061270000000001,0.00038827199999999994,0.0012928238,1.1005200000000021e-05,7.623,0,0
0.0011149188,-0.007721908,0.001566538,0.0014612538,-0.0004372556,7.624,0,0
0.0007319387999999999,-0.005133907000000001,0.002720832,0.0012050458000000001,-0.0006046113999999999,7.625,0,0
0.0002587058,-0.0023991729999999997,0.00293449,0.0010100215999999998,-0.0005433066,7.626,0,0
0.0001359848,-0.0007202484000000001,0.002742958,0.0009718436,-0.0008760774000000001,7.627,0,0
-0.0002693016,-0.0009602464000000001,0.0026176660000000003,0.00034326360000000005,-0.0010961648,7.628,0,0
-0.0007203204,-0.0024002884,0.002196018,-0.0003983104000000001,-0.0007080248000000001,7.629,0,0
-0.0009040879999999999,-0.0017833694,0.0025934440000000003,-0.0009071364000000001,-0.0003671718,7.63,0,0
-0.00048270500000000005,0.0005837566000000001,0.0031917360000000006,-0.0013497320000000002,-0.0006665106,7.631,0,0
5.966640000000002e-05,0.002336512,0.002847627,-0.0017105071999999999,-0.0012854802000000002,7.632,0,0
0.0003847026,0.003747166,0.002054561,-0.001463108,-0.0017285770000000002,7.633,0,0
0.000714546,0.00409378,0.000671229,-0.0012309266,-0.0021013150000000003,7.634,0,0
0.0008727672000000001,0.002297628,-0.001822003,-0.001056036,-0.0022861424000000003,7.635,0,0
0.0002842216,-0.000605114,-0.0033016050000000004,-0.0007264052,-0.0015843084000000001,7.636,0,0
-0.0005049424,-0.002643434,-0.0028839580000000003,-0.000859142,-0.000592682,7.637,0,0
-0.0005358938,-0.0032793362,-0.0025242434,-0.0006006668,-0.00017679120000000008,7.638,0,0
-0.0005414668,-0.0024229902000000004,-0.0018192414000000002,8.492580000000002e-05,2.1682599999999934e-05,7.639,0,0
-0.0008963064000000001,-0.0008494882000000001,-0.0005843822000000001,0.0004553512,0.00013555699999999996,7.64,0,0
-0.0011445668000000001,0.00043445980000000005,-0.00023584500000000004,0.0006791806,-0.00017105000000000004,7.641,0,0
-0.0016590668000000001,0.0004781938000000001,-0.00036300700000000004,0.0009785064000000002,-0.0004321454,7.642,0,0
-0.0021968856,-0.000570816,0.0006331904,0.0009642646,4.9297800000000014e-05,7.643,0,0
-0.001492522,-0.0006491432000000001,0.0021787724,0.0004564776,0.000540834,7.644,0,0
-0.0004267679999999999,6.637679999999999e-05,0.0033444972,0.0002379492,0.000793758,7.645,0,0
0.00018006399999999996,0.0008093747999999999,0.004276442,0.00046021500000000004,0.001253563,7.646,0,0
0.00122002,0.0023929008,0.00429107,0.0008064292000000001,0.0015428980000000002,7.647,0,0
0.0019027760000000003,0.004546336800000001,0.002992518,0.0007085006,0.0014788940000000001,7.648,0,0
0.0013780842,0.005796654,0.0013249060000000003,0.00029385760000000006,0.0012412786,7.649,0,0
0.0008494662,0.006015218,-0.00038426599999999997,9.298500000000002e-05,0.0008908268,7.65,0,0
0.0005805798000000001,0.004376112000000001,-0.0022563440000000004,-0.000640805,0.00046097300000000005,7.651,0,0
0.00021489640000000004,0.0016271540000000002,-0.003696314000000001,-0.001518897,0.0004019736000000001,7.652,0,0
0.00034285420000000004,0.000389994,-0.004861512,-0.0012732050000000001,0.00029827120000000003,7.653,0,0
0.0003332294,-0.00056842,-0.005092888000000001,-0.0008848466000000001,0.00021747980000000002,7.654,0,0
0.00028056580000000004,-0.0016518600000000002,-0.003969950000000001,-0.0011986416,0.0006738276000000001,7.655,0,0
0.0009119802000000001,-0.0011158408,-0.0026383459999999997,-0.0009576656000000002,0.000831738,7.656,0,0
0.0014255176000000003,-0.0008383227999999999,-0.0013241624000000002,-0.00037325220000000015,0.0003879174,7.657,0,0
0.0013752318,-0.0027409808,0.00045066560000000004,-0.0007213110000000001,-2.080200000000021e-06,7.658,0,0
0.0010609846,-0.0048387028000000006,0.0017351736000000002,-0.0008201504000000001,-0.0003114354,7.659,0,0
0.00024153819999999998,-0.0060871308,0.0019827036,8.751559999999997e-05,-0.0007642212,7.66,0,0
-0.0007475438000000001,-0.006442570000000001,0.0015764178000000002,0.0005093896,-0.0009047311999999999,7.661,0,0
-0.0011035408600000001,-0.005156214,0.0005739542000000001,0.00032601600000000004,-0.0007667370000000001,7.662,0,0
-0.0014502888600000001,-0.002619638,-0.0009459838000000001,0.00042379240000000007,-0.000248075,7.663,0,0
-0.0014502076600000002,-0.00025848799999999997,-0.0025813278,0.00044304819999999994,0.000344505,7.664,0,0
-0.0007788272999999999,0.0008129894000000001,-0.0033975080000000005,0.00018101500000000003,0.0007527808,7.665,0,0
-0.0005031441,0.0011890434,-0.0039937722,0.000570049,0.0010137482,7.666,0,0
-0.0004601930400000001,0.0016252174000000001,-0.0051269742,0.0014978132,0.0011615496799999999,7.667,0,0
1.3460160000000008e-05,0.0017484454000000003,-0.0065709562,0.0018515196,0.00122814768,7.668,0,0
0.00059488676,0.0016471714000000001,-0.007895084200000001,0.0017997316,0.0008639484800000002,7.669,0,0
0.0008785284,0.0021519660000000004,-0.008634742,0.0018094194,0.0006335262800000001,7.67,0,0
0.0010644996,0.002407048,-0.006769816000000001,0.001401828,0.00058480588,7.671,0,0
0.0012624656000000001,0.0019615968,-0.0026514160000000006,0.00029147,0.0005333012000000001,7.672,0,0
0.00102414,0.0018099668000000001,0.001865834,-0.000369106,0.00032949160000000005,7.673,0,0
0.0004450394000000001,0.0014368168,0.006948514000000001,-0.0004387866,0.00023102300000000004,7.674,0,0
-0.00010882860000000009,-0.0001263652000000001,0.01054532,-0.0012380072,0.00012433488,7.675,0,0
-0.0011365330000000001,-0.0030420592000000002,0.011502870000000002,-0.0017505378000000002,-0.00027233671999999997,7.676,0,0
-0.001994395,-0.004210678000000001,0.011257064,-0.0012885906,-0.0006243337200000001,7.677,0,0
-0.001833,-0.002195692,0.010474116000000002,-0.0012340406000000003,-0.0010726041200000002,7.678,0,0
-0.0016577393999999998,-0.0002916219999999994,0.008368168000000002,-0.0011978314,-0.0012363303200000001,7.679,0,0
-0.0014213973999999997,0.0018525260000000002,0.006355762000000001,-0.0004901339999999999,-0.0011655866000000001,7.68,0,0
-0.0001067294000000001,0.005504314000000001,0.005130024,-0.000432552,-0.0008839682000000001,7.681,0,0
0.0010565366,0.007137768000000001,0.003946884,-0.0008590312,-0.0008325162,7.682,0,0
0.0008406316,0.005150596,0.003210038,-0.0006496646,-0.0008335002,7.683,0,0
0.00041111960000000003,0.0022041720000000003,0.002409254,-0.000687563,-0.0005179366000000001,7.684,0,0
0.0010433836,0.00013743199999999994,0.0014065179999999998,-0.0011068624,-0.0008118140000000001,7.685,0,0
0.0014800096000000002,-0.0005423660000000001,-0.00016005400000000013,-0.0010534684,-0.0009439378,7.686,0,0
0.001032862,-0.0013306900000000003,-0.002139884,-0.000760881,-0.00031942380000000005,7.687,0,0
0.0012896438,-0.0024725100000000007,-0.0036039180000000002,-0.000845614,0.00018783340000000002,7.688,0,0
0.0016390678000000002,-0.0020656180000000004,-0.004130998,-0.0010654150000000001,-1.0508000000000002e-05,7.689,0,0
0.0009294412000000001,-0.001644384,-0.00453987,-0.0007487392,-0.00022428199999999996,7.69,0,0
-0.0001484328,-0.002301488,-0.004862526,-0.00017330919999999987,-1.0411999999999981e-05,7.691,0,0
-0.0010786992,-0.002745532,-0.004503644,0.00010333340000000002,8.485600000000002e-05,7.692,0,0
-0.0021927926,-0.003233286,-0.004667162000000001,0.0006500698000000001,0.00020193080000000012,7.693,0,0
-0.0029696446,-0.003301338,-0.005296372000000001,0.0015647818000000002,0.00047277720000000003,7.694,0,0
-0.00262293,-0.001427452,-0.005079848,0.0018165920000000001,0.0006322212000000002,7.695,0,0
-0.0020040920000000003,0.0009400019999999997,-0.004290705200000001,0.001692974,0.0003451694,7.696,0,0
-0.0013085231999999999,0.002173802,-0.0035026190000000002,0.0017617800000000001,-4.933799999999994e-05,7.697,0,0
0.0006525888000000002,0.003022906,-0.0019479850000000004,0.0015606416000000002,-0.0004088792,7.698,0,0
0.0026330268000000004,0.002824352,9.023899999999999e-05,0.001047458612,-0.00033393420000000005,7.699,0,0
0.0024767318,0.000773326,0.001416961,0.0008012846120000001,0.00015486979999999997,7.7,0,0
0.00209423448,-0.001006012,0.0019859422,0.00047777901200000007,-0.00021230100000000008,7.701,0,0
0.0025785196800000004,-0.000320552,0.00213533,1.2467212000000021e-05,-0.0007968996,7.702,0,0
0.00201945768,0.00222229,0.0020771606000000004,0.00030117561200000004,-0.0008646538000000001,7.703,0,0
0.00037034167999999983,0.004179612,0.0014554181999999998,0.00046275320000000006,-0.0008692780000000001,7.704,0,0
-0.0007350793200000002,0.0046794314,0.0007998124000000001,4.190720000000006e-05,-0.0008539100000000003,7.705,0,0
-0.0007660740000000002,0.0041351482,0.0007318664,-8.410919999999995e-05,-0.00021175499999999994,7.706,0,0
-0.0007377540000000002,0.0022387202,0.00013729239999999993,7.497620000000106e-06,0.0005689792,7.707,0,0
-0.0010385494,-0.00015456580000000006,-0.0011320382000000002,-0.0005952081799999999,0.0006037004,7.708,0,0
-0.00036342839999999987,-0.0010684212,-0.0023368678,-0.00097961878,0.00036842720000000007,7.709,0,0
0.0008243586,-0.0010428222,-0.003770046,-0.00031610077999999996,0.0002123914,7.71,0,0
0.0009248338000000001,-0.001632887,-0.0037488720000000003,-5.277897999999997e-05,0.00013645380000000003,7.711,0,0
0.0007223738,-0.0020560810000000004,-0.0008455979999999999,0.00011710020000000001,7.309100000000001e-05,7.712,0,0
0.000466286,-0.0022671730000000004,0.0019087360000000007,0.0005511600000000001,0.00023737000000000004,7.713,0,0
-0.00011221500000000004,-0.0032148176000000002,0.0029074872000000008,0.0005544240000000001,0.0002923538,7.714,0,0
-0.0005089340000000001,-0.004748032,0.002839137200000001,0.00012125200000000008,0.00025533180000000003,7.715,0,0
-0.0006084692,-0.005043108000000001,0.0010455932000000003,-0.00016203579999999996,0.0004707884,7.716,0,0
-0.000823475,-0.003935547199999999,-0.0022712168,-0.00043841419999999994,0.0004608226,7.717,0,0
-0.0011264698,-0.0037500111999999998,-0.0043800228,-0.0009583241999999999,9.554379999999996e-05,7.718,0,0
-0.0012975618,-0.0033569992,-0.003626764,-0.0008539003999999999,-0.00015280420000000005,7.719,0,0
-0.0013051158000000002,-0.0016067108000000002,-0.0010224860000000004,-0.0002489243999999999,5.423159999999995e-05,7.72,0,0
-0.001131934,-0.0002446648,0.001916638,0.00011372200000000005,0.00022771960000000002,7.721,0,0
-0.0011167882,0.00022626240000000005,0.004206302,0.00013057260000000004,0.00040408600000000006,7.722,0,0
-0.0012636062,0.0010468244000000002,0.005694664,0.0006412046,0.0007914662,7.723,0,0
-0.0011885002,0.0020369364,0.005804222,0.0015544348000000002,0.0009548416,7.724,0,0
-0.0007607575999999999,0.0019860804,0.004570143600000001,0.0015097268000000001,0.0006366344,7.725,0,0
-0.0007818240000000001,0.0012392564000000001,0.0028705652000000003,0.0013140762000000002,0.00015282279999999997,7.726,0,0
-0.0006051626000000001,0.000817728,0.0014551628000000004,0.0016313218000000003,-0.0001340252,7.727,0,0
0.00044147340000000003,0.0009789500000000001,0.00027932740000000014,0.0010782938000000002,-0.0002907842,7.728,0,0
0.0012500454000000001,0.001070564,-0.0007999566,6.041799999999872e-06,3.3864400000000014e-05,7.729,0,0
0.0013544348000000001,0.0015876716,-0.0013427442,-0.0006219422000000001,0.00020407120000000002,7.73,0,0
0.0013127262000000002,0.00204752516,-0.0013837318000000003,-0.0010412300000000002,-8.64312e-05,7.731,0,0
0.0011810284000000003,0.00153047956,-0.0012990824,-0.0016163020000000002,-0.000192923,7.732,0,0
0.0005959313999999999,0.00075053836,-0.0014003510000000002,-0.0016359340000000001,-0.0003449142,7.733,0,0
5.383940000000005e-05,-0.0002886976400000001,-0.000749979,-0.0012284798000000003,-0.0004787916,7.734,0,0
-0.00023655963999999997,-0.0014705136400000002,0.00045001300000000003,-0.0009556998,-0.00025164919999999996,7.735,0,0
-0.00018699603999999999,-0.0014977432,0.0009342230000000001,-0.00022203980000000016,0.00021626360000000005,7.736,0,0
-0.00025008583999999994,-0.0004348811999999999,0.00099164357,0.0004978162,0.0005671174,7.737,0,0
-0.00015904883999999996,0.000613988,0.00105027617,0.0008891598000000001,0.0009875454000000002,7.738,0,0
0.00032534316000000003,0.00218013,0.00046596817000000017,0.0009253174000000001,0.0008825068000000001,7.739,0,0
8.326420000000006e-05,0.004022436,-0.00078112783,0.0008981740000000001,0.00042107819999999993,7.74,0,0
-0.0003697902,0.005454996,-0.00147568183,0.00042187400000000003,0.0004993333999999999,7.741,0,0
-0.00022998940000000002,0.0058896800000000004,-0.0017381514000000002,-0.00027143999999999996,0.00023057259999999998,7.742,0,0
4.955660000000007e-05,0.005834202,-0.002073602,-0.00018443760000000004,-0.00011490060000000002,7.743,0,0
0.00024052060000000008,0.005264272,-0.0025965520000000002,-0.00036936140000000004,-6.26252e-05,7.744,0,0
0.0009649206,0.0027709579999999996,-0.0031826800000000002,-0.0009254900000000002,-0.0002788106,7.745,0,0
0.0014149058,-0.0004170500000000002,-0.0038716600000000003,-0.0008466738000000001,-0.0005921962,7.746,0,0
0.0013919590000000003,-0.002245604,-0.004370174,-0.0007152970000000002,-0.00034527539999999995,7.747,0,0
0.001125955,-0.0047936160000000005,-0.003936031800000001,-0.0016026670000000003,-1.1059399999999977e-05,7.748,0,0
-0.0007110150000000001,-0.009404884000000002,-0.0025999578000000002,-0.0020821270000000005,4.300360000000005e-05,7.749,0,0
-0.001852753,-0.009462508,-0.00016769780000000013,-0.0016160234000000002,0.000395968686,7.75,0,0
-0.0006564181999999998,-0.005834310000000001,0.0026332902,-0.0014893476000000002,0.000421069886,7.751,0,0
0.00014439400000000005,-0.005356988000000001,0.0047715962,-0.0013265404,-2.650211400000003e-05,7.752,0,0
0.00023742660000000015,-0.0045051660000000006,0.005770868,-0.000564021,-0.00033140251400000007,7.753,0,0
0.0016383424,-0.00051305838,0.005515316,1.3658200000000025e-05,-0.000412220894,7.754,0,0
0.0023658890000000004,0.0011947976199999997,0.0042771718,-1.6484799999999988e-05,-0.00043059998,7.755,0,0
0.0011980764000000003,-0.00012626637999999988,0.0023503978,0.0004579852,-0.00027053378,7.756,0,0
0.00021154159999999997,-2.9681779999999962e-05,0.00033484379999999987,0.0010434292,4.1925620000000005e-05,7.757,0,0
-0.00026445900000000004,0.0005251382200000001,-0.0012565942,0.0011090370000000002,0.00026539702000000004,7.758,0,0
-0.0003802248,0.0007815366000000001,-0.0022452962,0.0015004918000000001,0.00043938919999999995,7.759,0,0
-0.0004369142,0.0015841706,-0.0025053303999999998,0.0022982972,0.00042614719999999994,7.76,0,0
-0.00047413079999999996,0.0022002026,-0.0019769044,0.0021365972,0.00032288939999999995,7.761,0,0
-0.00014689199999999992,0.0030630819999999995,-0.0008445044000000001,0.0014525626,0.00025402586,7.762,0,0
0.00019875420000000006,0.004422512,0.0007753936,0.0014493706,0.00032415046000000005,7.763,0,0
-0.00020097379999999996,0.005130766,0.0023556975999999997,0.0010748514,-4.748593999999998e-05,7.764,0,0
-0.000822241,0.0040022018,0.002908878,0.0002101254,-0.0006095719400000001,7.765,0,0
-0.0015935378000000002,0.0016932338,0.0025404552000000006,-0.0003872866,-0.0009923919400000002,7.766,0,0
-0.0026364718,-0.0007475522000000004,0.0021088638,-0.00025869738000000006,-0.0014675098,7.767,0,0
-0.002315416,-0.0025102462,0.0014766698,-0.00043651478000000007,-0.0020238382,7.768,0,0
-0.0005609360000000002,-0.0035683072000000002,0.0007549206000000001,-0.00087825358,-0.002041728,7.769,0,0
0.0008714020000000001,-0.003731765,0.0003655606,-0.00069145098,-0.0013401732,7.77,0,0
0.0015182155800000001,-0.001985185,0.00041717459999999996,-0.0006599949800000001,-0.0010384869999999998,7.771,0,0
0.00227039538,0.000489849,0.00045664960000000004,-0.0009358976,-0.0007586469999999999,7.772,0,0
0.0020228095800000003,0.002375331,3.575880000000001e-05,-0.0011115934000000003,-0.00029854459999999997,7.773,0,0
0.00042068158,0.0033577679999999997,-0.00053952,-0.0010652374,-0.00021322119999999997,7.774,0,0
-0.0008275804200000001,0.0033106502,-0.001119074,-0.0013431720000000001,-0.0004893446,7.775,0,0
-0.0009339754000000001,0.0032624342,-0.0014048352000000002,-0.001289452,-0.00042812040000000007,7.776,0,0
-0.0006834608000000002,0.0039213002,-0.0018597648000000001,-0.0009740808000000002,-0.0001996102,7.777,0,0
-0.0011735110000000001,0.0032251522000000003,-0.002182934,-0.0010241688,-0.0003410606,7.778,0,0
-0.0017692010000000002,0.0010094942000000004,-0.0015522574,-0.0006566762,-0.00017475720000000004,7.779,0,0
-0.0012920458000000002,-0.0005778839999999999,-0.0009902438,-1.607420000000005e-05,-7.59368e-05,7.78,0,0
-0.0005477244,-0.0021197679999999997,-0.0011520558000000002,0.0005446698,-0.0004201152,7.781,0,0
-0.0006458702000000003,-0.004219386,-0.0014035158,0.0010121146,-0.0005862616,7.782,0,0
-0.00023163200000000012,-0.00577443,-0.0022049918,0.0018382166000000004,-0.0002564596,7.783,0,0
0.0007078694000000001,-0.005083588,-0.0040476604,0.0021808920000000002,0.00018973159999999994,7.784,0,0
0.0003567122,-0.0037782500000000004,-0.004679708,0.0016057100000000002,0.0005180458,7.785,0,0
-0.0006430298000000001,-0.0031788140000000003,-0.0035577600000000005,0.0014570726,0.0012427578,7.786,0,0
-0.0006654060000000001,-0.0010867879999999998,-0.0025543799999999998,0.0016180506,0.0019612780000000003,7.787,0,0
-5.3370200000000026e-05,0.001978224,-0.0015414479999999995,0.0016980606,0.002147066,7.788,0,0
0.0006127584000000001,0.003547186,4.708560000000011e-05,0.0015527746,0.002052562,7.789,0,0
0.0014340004,0.0037977126,0.0009639516,0.0016038296,0.001908814,7.79,0,0
0.0017413926,0.0029456166,0.0008713356000000001,0.0012790855999999999,0.0016439026000000002,7.791,0,0
0.0010940021999999998,-0.0014073334000000003,0.0012429796000000002,-0.0002051424000000001,0.0009216738,7.792,0,0
0.00033971619999999996,-0.0059064134,0.0024689456000000004,-0.0015636864,0.00022025179999999998,7.793,0,0
0.00024892419999999994,-0.0063700474,0.0041068960000000005,-0.0018729686,-0.00039423020000000004,7.794,0,0
0.0006156021999999999,-0.005100868000000001,0.005408846,-0.001764262,-0.0009278402,7.795,0,0
0.001026726,-0.0028993080000000006,0.005437098,-0.0017222373999999999,-0.0012355148,7.796,0,0
0.0015452506,0.0008181319999999996,0.004805054,-0.0010917186,-0.0012640594000000002,7.797,0,0
0.0019805666,0.0034606259999999996,0.004152655999999999,-0.0008787345999999999,-0.0011129474000000001,7.798,0,0
0.0017133766000000002,0.003357536,0.002817786,-0.0011352044,-0.0010245432,7.799,0,0
0.0009428742000000001,0.003180558,0.0014596732000000002,-0.0007027679999999999,-0.0008202812000000001,7.8,0,0
0.00045054700000000004,0.002923406,0.0008032422000000001,-0.00043210039999999996,-0.0005524154000000001,7.801,0,0
3.308040000000003e-05,0.00195596,0.0001333342,-0.000187192,-0.00015939199999999998,7.802,0,0
-0.0008948636000000001,0.0017742002,-0.0006673058,0.000857174,-6.200864e-05,7.803,0,0
-0.0015804655999999999,0.0015871528,-0.0015896458,0.001470262,0.00012655856000000004,7.804,0,0
-0.0016247987999999998,0.0006179436,-0.0026700790000000005,0.00083183,0.00063896056,7.805,0,0
-0.0014460098000000001,-0.0003892664,-0.002938418000000001,0.0005573752000000001,0.00116381476,7.806,0,0
-0.0011843298,-0.0008514983999999999,-0.0029479880000000003,0.0006376064000000001,0.00152623076,7.807,0,0
-0.0007473137999999999,-0.0014319266,-0.0027608580000000006,0.00014535660000000004,0.0017603914000000002,7.808,0,0
-0.00017084499999999998,-0.0017501850000000002,-0.0014039360000000002,-0.0001797534,0.002286952,7.809,0,0
-5.179540000000004e-05,-0.0012743478000000002,-0.001084096,-3.0846599999999983e-05,0.002563116,7.81,0,0
8.215400000000003e-06,-0.0005648198000000001,-0.0026729080000000003,2.204900000000002e-05,0.002293292,7.811,0,0
0.0007821774,0.0002874994,-0.004276254,-0.0004784634,0.0016591079999999999,7.812,0,0
0.0012396734,0.0012911174000000002,-0.006653954,-0.0009673356,0.0010795279999999997,7.813,0,0
0.000995632,0.0021689852,-0.010303762000000001,-0.0012987256,0.0001706520000000001,7.814,0,0
0.001148494,0.0021289552,-0.010822878,-0.0014944984,-0.0009373539999999999,7.815,0,0
0.0011208288,0.0013665512,-0.006828634,-0.0012353519999999999,-0.0015998120000000002,7.816,0,0
0.0005134998,0.000884332,-0.0017545939999999995,-0.00051394,-0.0017376946000000001,7.817,0,0
0.00037113939999999996,0.00037186199999999993,0.0026548120000000003,8.864740000000008e-05,-0.0015206256,7.818,0,0
0.00041031499999999996,0.00036776200000000005,0.0068709420000000005,0.00043306052000000007,-0.0013538136000000001,7.819,0,0
-0.000512881,0.0007596140000000001,0.010206296,0.00099217252,-0.0007932124000000001,7.82,0,0
-0.0015147404,0.0010324826000000001,0.010177036000000002,0.0009149587200000001,-7.499240000000004e-05,7.821,0,0
-0.0015519873999999998,0.0027864186,0.008325264,0.00011580472,0.000301243,7.822,0,0
-0.0015277518000000002,0.0052036246,0.008166214000000001,-0.0003194606800000001,0.0005455244,7.823,0,0
-0.0016675670000000002,0.006058370600000001,0.00871672,-4.401980000000007e-05,0.000728157,7.824,0,0
-0.001935025,0.0041175106,0.007289752000000001,-0.0004995158000000001,0.00043703780000000004,7.825,0,0
-0.002206401,0.0002047059999999998,0.0054204824,-0.0008918120000000002,8.614179999999999e-05,7.826,0,0
-0.002123017,-0.002578374,0.0046525044,-0.00032955000000000007,1.553580000000002e-05,7.827,0,0
-0.0019090462000000002,-0.004566147999999999,0.0031256132000000002,0.00022418199999999993,-9.906794e-05,7.828,0,0
-0.0017316060000000003,-0.0067905,0.0010372132,0.0017496,0.00026613346,7.829,0,0
-0.0010593924,-0.006330214000000001,-0.00024164280000000003,0.003781324,0.00105507946,7.83,0,0
0.0008137756000000001,-0.0035670020000000005,-0.0012758852,0.00519582,0.00161366946,7.831,0,0
0.0019933476,-0.002477108,-0.0025039992000000003,0.006192192000000001,0.00234333866,7.832,0,0
0.0013232716,-0.0024629740000000006,-0.003439384,0.006305334000000001,0.003145408,7.833,0,0
0.0009081295999999999,-0.00213158,-0.003927942,0.00404859,0.0030175920000000004,7.834,0,0
0.0013311100000000001,-0.00189447,-0.004123588,0.0011390600000000003,0.0024887019999999998,7.835,0,0
0.0007629922000000002,-0.000907564,-0.004046364,-0.0014191440000000002,0.001625956,7.836,0,0
-0.00022364679999999987,-0.0008303296000000001,-0.0036126380000000005,-0.004368708000000001,-0.0002632079999999999,7.837,0,0
0.0004916812000000002,-0.0021823856000000004,-0.0028274038000000003,-0.006394750000000001,-0.0025619,7.838,0,0
0.0012802012000000002,-0.0031359996,-0.0018650874000000002,-0.007465762000000001,-0.004226016000000001,7.839,0,0
0.0012994732,-0.0033213815999999998,-0.0010395666000000002,-0.00770816,-0.00556474,7.84,0,0
0.001543637,-0.0023493095999999997,-0.00042728220000000003,-0.007255000000000001,-0.006804896000000001,7.841,0,0
0.0017879100000000002,-0.00018425800000000008,-0.0005050562000000001,-0.005685014,-0.0065975140000000005,7.842,0,0
0.0018192540000000002,0.002094728,-0.0009740244000000001,-0.003598404,-0.0052384934000000005,7.843,0,0
0.0008750280000000001,0.00272786,-0.0008532648000000002,-0.001553914,-0.0041222094,7.844,0,0
-0.00036812599999999987,0.0028639959999999997,-0.0005757536,0.0009610919999999998,-0.002706463,7.845,0,0
-0.0005436301999999999,0.0032639139999999997,-0.0003878300000000001,0.0032665660000000003,-0.00035166099999999997,7.846,0,0
-0.00035107019999999994,0.003103972,-2.1624199999999995e-05,0.00481126,0.0016942450000000003,7.847,0,0
-0.0007148096,0.003951202,0.00011816780000000008,0.005551358000000001,0.0029470364000000002,7.848,0,0
-0.0004901416,0.007258836,-0.0007208802,0.005766220000000001,0.0039085844,7.849,0,0
0.00015489439999999996,0.010509364,-0.0022451942,0.004698136,0.004243822,7.85,0,0
-0.0006479574000000001,0.00981778,-0.0037157982000000003,0.0028082380000000007,0.003547231800000001,7.851,0,0
-0.0018005514000000002,0.006470304,-0.005395894,0.0009733000000000002,0.0021369232000000003,7.852,0,0
-0.0019378808000000002,0.002615864,-0.006902834,-0.001187124,0.0008138702000000001,7.853,0,0
-0.00146803,-0.0016414240000000003,-0.007195418000000001,-0.0034407580000000004,-0.0002244598,7.854,0,0
-0.0009973982,-0.005999326000000001,-0.0065712240000000005,-0.004908544,-0.0013617258,7.855,0,0
-0.00038527220000000005,-0.00897349,-0.005152584200000001,-0.005367176,-0.0024489836000000003,7.856,0,0
0.00046917780000000004,-0.00978727,-0.0026793502000000005,-0.005382396,-0.003059819,7.857,0,0
0.0008737386,-0.009613400000000001,0.0001977798000000001,-0.0042940814,-0.0034097380000000003,7.858,0,0
0.0006792198000000001,-0.008629456,0.0034074978000000005,-0.0020125174000000003,-0.003321234,7.859,0,0
0.00048150199999999997,-0.006654957999999999,0.007118755800000001,0.00026059059999999977,-0.0024938153999999996,7.86,0,0
0.0008766840000000001,-0.0033662780000000003,0.010038080000000001,0.0021570046,-0.0009603313999999998,7.861,0,0
0.0009436960000000002,9.086399999999975e-05,0.011269820000000002,0.0039856986,0.0007503766000000001,7.862,0,0
0.0006038852,0.002429848,0.010970534000000002,0.00512514,0.0022009466,7.863,0,0
0.0004311672,0.0035149919999999998,0.008760088800000001,0.005555924,0.0033887546,7.864,0,0
0.00029947899999999996,0.0038987180000000007,0.005226742800000001,0.006104262000000001,0.003650892,7.865,0,0
-0.00046764500000000004,0.0030811196,0.0017803028000000004,0.00617705,0.0033965600000000003,7.866,0,0
-0.002165685,0.0004071456,-0.00037634920000000007,0.004935255,0.0031971540000000002,7.867,0,0
-0.0023857402,-0.00023390180000000004,-0.0012522992000000002,0.0029655930000000003,0.0026449700000000004,7.868,0,0
-0.0012834422000000002,0.0011957102,-0.00193582,0.0009516050000000003,0.0018585404000000002,7.869,0,0
-0.0011567912,0.0009883322,-0.0022615400000000003,-0.0015860409999999998,0.0012427044000000004,7.87,0,0
-0.0011815272,0.0005649426,-0.002191462,-0.003960333,0.00024897039999999997,7.871,0,0
0.00017100179999999984,0.0013424406,-0.002557216,-0.005018862000000001,-0.0012445956,7.872,0,0
0.0009314497999999998,0.0004970500000000002,-0.0021539006,-0.005209256000000001,-0.0023065396,7.873,0,0
0.0005398237999999999,-0.00217362,5.112740000000034e-05,-0.005230220000000001,-0.002935158,7.874,0,0
0.0013939310000000002,-0.003088772,0.0019951874,-0.0042599581999999995,-0.0030522740000000002,7.875,0,0
0.0028059730000000002,-0.0019684119999999997,0.0025639882,-0.0021700842000000006,-0.0025128840000000004,7.876,0,0
0.0035639219999999997,-0.0006453499999999999,0.0027775282,-0.0005867741999999997,-0.0017056436,7.877,0,0
0.003640476,0.00046091999999999986,0.0019647548000000003,0.0011167498,-0.0006564156,7.878,0,0
0.0031291774,0.0017592340000000001,-0.0007053052,0.0032543438,0.0006042124000000002,7.879,0,0
0.0019482774000000003,0.002939688,-0.0028993292,0.0039978900000000005,0.0017580284000000002,7.88,0,0
0.0004972934000000001,0.00352698,-0.0033515719999999997,0.0034641155999999996,0.0024416284,7.881,0,0
-0.0008106565999999999,0.004208028000000001,-0.0030916860000000006,0.0031375136,0.0027633460000000003,7.882,0,0
-0.0020599186,0.004389608,-0.0024938,0.0027149276,0.0028372880000000003,7.883,0,0
-0.0028212759999999997,0.0035262880000000007,-0.0014730081,0.0012534452,0.002408724,7.884,0,0
-0.0030233,0.0023082820000000005,-0.0002587521000000001,-0.00019160679999999993,0.0017396719999999998,7.885,0,0
-0.002847848,0.0006544380000000002,0.0006455979,-0.0010884324,0.0010497412000000002,7.886,0,0
-0.0024868536,-0.0006495266000000001,0.0010085395,-0.0023591823999999997,0.00010047720000000003,7.887,0,0
-0.0017327148,-0.0003918926000000001,0.0008690567000000001,-0.0039673764,-0.0009487828,7.888,0,0
-0.0004702228000000001,0.0010283494000000002,3.426280000000013e-05,-0.004708408,-0.0016434207999999999,7.889,0,0
0.0006152552,0.0022308414,-0.0016346432000000001,-0.004430652,-0.0027680368,7.89,0,0
0.0014960352,0.0035813934,-0.0038863392,-0.0038686680000000005,-0.004117438,7.891,0,0
0.0023408288,0.0055808260000000005,-0.006431392800000001,-0.0026261820000000003,-0.004338368,7.892,0,0
0.00254053,0.005336968,-0.00877551,-0.0009622160000000003,-0.003994984,7.893,0,0
0.002088548,0.00194223,-0.009836446,0.000408676,-0.0034606130000000004,7.894,0,0
0.0014359213999999999,-0.0009073419999999998,-0.009166274,0.0018678880000000003,-0.0021195790000000003,7.895,0,0
0.0005886354,-0.002321022,-0.008332272,0.0031028820000000004,0.000271503,7.896,0,0
-0.00028235080000000006,-0.003949383999999999,-0.006011785199999999,0.0035253060000000006,0.002047759,7.897,0,0
-0.000464029,-0.0044735406,-0.0009548652000000001,0.0036987100000000005,0.002783905,7.898,0,0
-0.00045488900000000004,-0.0032249386000000003,0.0030280708,0.0037533980000000002,0.0036313100000000004,7.899,0,0
-0.0008443704,-0.0024306625999999994,0.005830638799999999,0.002827706,0.004132032,7.9,0,0
-0.0009506504000000001,-0.0033560046,0.009946806800000001,0.0013096140000000002,0.004022816,7.901,0,0
-0.0011558482000000002,-0.0054734086,0.01285678,0.0005194384000000001,0.003675844,7.902,0,0
-0.002010862,-0.007133746,0.012953000000000001,-0.0005422376,0.0031703958,7.903,0,0
-0.0022113479999999997,-0.006995482,0.012801184000000002,-0.0018645436,0.0018536338,7.904,0,0
-0.001958928,-0.007212016,0.011750896000000002,-0.0023994276,0.00046728380000000025,7.905,0,0
-0.0019326100000000002,-0.007734748,0.008892964000000001,-0.0027828896000000004,-0.0006246501999999999,7.906,0,0
-0.001569096,-0.00729075,0.005934824600000001,-0.0030924620000000002,-0.0014087508000000001,7.907,0,0
-0.0014753980000000002,-0.007278906,0.0027986526,-0.002917902,-0.0012836765999999999,7.908,0,0
-0.0009948140000000003,-0.005907778,0.00025965860000000027,-0.0022316302,-0.0009879505999999998,7.909,0,0
0.0006590159999999999,-0.002118240000000001,-0.0007560202,-0.0015203318000000003,-0.0007075426,7.91,0,0
0.00226317,0.0018845219999999996,-0.0015522342,-0.00040231979999999994,-0.0002884924,7.911,0,0
0.003135774,0.005669126,-0.0028522988,0.0008272922000000002,0.0001610782,7.912,0,0
0.004055632,0.009737834,-0.0035706928000000006,0.0017793082000000003,0.0002413778,7.913,0,0
0.003982076,0.011008198,-0.0045153728,0.0025053704,0.00029933180000000007,7.914,0,0
0.0023329580000000004,0.009327382,-0.006546474000000001,0.0031577560000000003,0.0005358626,7.915,0,0
0.0006530619999999998,0.007967100000000001,-0.007957562000000001,0.0036295500000000005,0.00032844540000000005,7.916,0,0
-0.00038137260000000004,0.006417494,-0.007926974,0.0029884639999999997,1.8825400000000004e-05,7.917,0,0
-0.0008328114000000001,0.004477794,-0.006437764,0.002052688,-0.0001051088,7.918,0,0
-0.0017575434,0.0027633378000000005,-0.0032483720000000002,0.0012699228000000002,-0.0002688108,7.919,0,0
-0.0028420154000000004,0.0012941398000000004,0.0006385600000000005,-1.8625199999999884e-05,-0.0006816636000000001,7.92,0,0
-0.0032249034000000005,0.0002898038000000001,0.00349889,-0.0013472732,-0.0011116265999999999,7.921,0,0
-0.0026900528000000003,0.0013310778,0.005266170000000001,-0.0015197009999999998,-0.0014151825999999998,7.922,0,0
-0.001961264,0.0027540378000000003,0.005194756000000001,-0.0014848029999999998,-0.0018745040000000001,7.923,0,0
-0.0020445119999999996,0.0008564599999999999,0.0033692208000000003,-0.0018198938000000002,-0.00216905,7.924,0,0
-0.001146628,-0.0016262660000000003,0.0015794038000000001,-0.0013124394,-0.0019490460000000003,7.925,0,0
0.0006500420000000002,-0.00250708,0.0006193634000000001,-0.0009376194,-0.0013294100000000003,7.926,0,0
0.0009293640000000002,-0.0046554,-7.052859999999997e-05,-0.0013965376,-0.0007200940000000001,7.927,0,0
0.0010802240000000003,-0.006839961800000001,-0.0007146606,-0.0012995484000000003,-0.00018838599999999997,7.928,0,0
0.002788922,-0.004662191800000001,-0.0008484674,-0.0005494564000000001,0.00037194560000000003,7.929,0,0
0.0037025260000000003,-0.0006340758000000003,-0.0014352523999999998,-0.00021639880000000003,0.0008076296,7.93,0,0
0.0028529745999999996,0.0010481942000000002,-0.001944162,0.0001931652,0.0009231526000000001,7.931,0,0
0.0021567654000000003,0.0011744978000000003,-0.0019498620000000001,0.0009906412,0.0008055134,7.932,0,0
0.0014270754,0.0012585858000000003,-0.0017840560000000002,0.001307066,0.0009774014,7.933,0,0
0.0005582479999999999,0.0007166358,-0.0017580220000000001,0.0008145359999999999,0.0008500122000000001,7.934,0,0
0.0003047922,-0.0005074422000000002,-0.00154308,0.00018582999999999995,0.00065256938,7.935,0,0
0.0001244256,-0.0011639012,-0.0006866159999999999,8.539819999999997e-05,0.00057469778,7.936,0,0
0.0001213962,-0.0010041488000000001,-0.000434654,-0.00018753836,0.00023696077999999998,7.937,0,0
0.0004099622,-0.0008735924000000001,-0.000385054,-0.0006540263599999999,3.515179999999995e-06,7.938,0,0
0.00047270700000000005,-0.0013057684000000003,-2.454899999999997e-05,-0.00052448156,-0.00030252922000000005,7.939,0,0
8.549960000000007e-05,-0.0018852844000000002,0.0002873958,-0.00063175156,-0.0006616504000000001,7.94,0,0
-0.00035561839999999996,-0.0027068834000000003,0.0003257858,-0.00116429176,-0.0010841838000000001,7.941,0,0
-0.0008387758,-0.0028994615999999996,0.00011842979999999998,-0.0009005392,-0.0012914896,7.942,0,0
-0.0017143278000000001,-0.0035665262000000005,-8.093420000000002e-05,-0.00010663320000000003,-0.001229495,7.943,0,0
-0.0029277872000000003,-0.0054517542000000006,-2.6726e-05,0.0005259879999999999,-0.0008514362000000001,7.944,0,0
-0.00378005,-0.005359388200000001,-8.055060000000003e-05,0.001640272,-0.00040964299999999995,7.945,0,0
-0.00389452,-0.0022249282000000002,-0.0005167706,0.002655192,3.468780000000006e-05,7.946,0,0
-0.003328924,0.0019134059999999994,-0.0004074618000000001,0.002596442,0.0005164980000000001,7.947,0,0
-0.001979848,0.006140748,-8.842340000000002e-05,0.002302962,0.00024263239999999998,7.948,0,0
-0.00026996600000000017,0.010961148,-0.0005324186,0.0022433080000000003,0.0002642304,7.949,0,0
0.001037732,0.013329058000000001,-0.0014486868,0.0016140248,0.0009413132000000001,7.95,0,0
0.0015883740000000003,0.010859774000000003,-0.0022083088000000002,0.0007427308000000001,0.0012900364000000002,7.951,0,0
0.0017546512000000002,0.005741112,-0.0030909696000000005,0.0002734128,0.0015124782000000003,7.952,0,0
0.0016148112000000004,0.00059325,-0.004101694,-0.0004512272000000001,0.0017572352000000003,7.953,0,0
0.0014791672,-0.003361022,-0.004067684000000001,-0.0014235092000000002,0.0014253284000000004,7.954,0,0
0.0014790512,-0.005667358,-0.002260128,-0.0021598940000000003,0.00043311240000000006,7.955,0,0
0.0018453192,-0.005831864,-1.0940000000000298e-05,-0.00253965,-0.0004136856,7.956,0,0
0.002110874,-0.004338932,0.0020844339999999996,-0.003021838,-0.0011605076,7.957,0,0
0.0018195160000000002,-0.0019695140000000003,0.004290094,-0.0030841420000000002,-0.001634596,7.958,0,0
0.001725696,0.000787872,0.005263286,-0.0023667798,-0.0016731720000000001,7.959,0,0
0.001678032,0.0028701560000000004,0.004964696,-0.0015049718000000002,-0.0015356038,7.96,0,0
0.0013431784000000001,0.004342508000000001,0.0044260820000000005,-0.0005392197999999999,-0.0009876158000000001,7.961,0,0
0.0006077303999999999,0.004576622000000001,0.0038442700000000003,0.0007723022000000002,-0.0002475818000000001,7.962,0,0
-0.0001656336000000001,0.002456064,0.0026383504,0.0019447822000000004,0.0003470440000000001,7.963,0,0
-0.0007216680000000001,-0.00019255399999999995,0.0013649143999999998,0.002236554,0.0009298460000000002,7.964,0,0
-0.001377694,-0.0013331560000000003,0.0005249674,0.0026624940000000005,0.0016708378000000004,7.965,0,0
-0.0020188824,-0.001347118,-0.0005726592000000001,0.0032817400000000004,0.0021201118000000003,7.966,0,0
-0.0019944164000000003,-0.001321812,-0.0012050076000000001,0.0032289700000000003,0.0020817498,7.967,0,0
-0.0016781248,-0.00054603,-0.0012473606,0.0027443984,0.002096424,7.968,0,0
-0.0017362384000000001,-0.0006276439999999997,-0.0010116966,0.0021395118,0.002024738,7.969,0,0
-0.0017070124,-0.002725328,-0.0007384272000000001,0.0006861418,0.0009520000000000002,7.97,0,0
-0.0010631486,-0.004873206000000001,-0.0004950262,-0.0011852662,-0.0005495299999999999,7.971,0,0
-9.870860000000007e-05,-0.0056827504000000004,0.00015548420000000002,-0.0023374842,-0.001492286,7.972,0,0
0.0007115838000000001,-0.0045508024,0.0009152128000000002,-0.0033628486,-0.002134512,7.973,0,0
0.0016306638000000001,-0.0022676784,0.0012674818800000004,-0.004075934000000001,-0.002749096,7.974,0,0
0.0025679457999999997,0.0006401716,0.00107242088,-0.0036583780000000008,-0.0026622279999999996,7.975,0,0
0.002306842,0.0019089406000000002,0.0013538944800000003,-0.0026790404000000007,-0.0016929596000000002,7.976,0,0
0.0008421620000000001,0.0006152829999999999,0.00115036248,-0.0019662332000000005,-0.0008139716000000002,7.977,0,0
-0.00035855200000000005,-0.000927027,5.910448000000007e-05,-0.0009244590000000001,-0.0003966136000000001,7.978,0,0
-0.0015326060000000002,-0.001244447,-0.00028936659999999993,0.00025949299999999996,-7.994440000000002e-05,7.979,0,0
-0.0023430800000000004,-0.0008107730000000001,-0.0005706539999999999,0.000888523,0.0004598876,7.98,0,0
-0.0023296640000000004,-0.0009722602,-0.001693844,0.0012512174,0.0007063572,7.981,0,0
-0.002222284,-0.0007218422000000002,-0.002905148,0.0017135662000000002,0.0008538672000000001,7.982,0,0
-0.0015333282000000003,0.00046855979999999974,-0.0036415980000000002,0.0019335780000000002,0.0014145552000000001,7.983,0,0
-0.00018758220000000012,0.0009905617999999999,-0.0049152860000000005,0.00146498,0.0014696522000000002,7.984,0,0
0.0005695698000000001,0.0006168937999999998,-0.005339616,0.0010908564,0.0008298482000000001,7.985,0,0
0.0005327457999999999,0.001474412,-0.00342762,0.0006010516,0.0005230486000000001,7.986,0,0
0.0012771424,0.003067428,-0.00039519399999999975,-0.0006009524000000001,0.0001455530000000001,7.987,0,0
0.0012462414,0.002216448,0.0029560440000000006,-0.0015851804,-0.000789191,7.988,0,0
-0.0002576686,0.0004781080000000001,0.006006448000000001,-0.0015237610000000002,-0.0012377771999999999,7.989,0,0
-0.0004910025999999999,-0.00047523239999999994,0.007538842000000001,-0.0013397440000000004,-0.0010988071999999999,7.99,0,0
-0.00027653759999999997,-0.0022010004,0.006500722800000001,-0.0017395512000000003,-0.0007873836,7.991,0,0
-0.0003778461999999999,-0.0035424884,0.0035616548000000003,-0.0013054152,-0.0003490759999999998,7.992,0,0
0.000675031,-0.0030395928,-0.00018230320000000048,-0.0004618952,-6.507879999999988e-05,7.993,0,0
0.0021310269999999997,-0.0023682228000000004,-0.0037175192,-0.00047940599999999993,0.00021780440000000007,7.994,0,0
0.002525715,-0.0020581314000000005,-0.0066346392,-0.00027474139999999987,0.0005109404000000001,7.995,0,0
0.0029756579999999995,-0.00041261740000000024,-0.008449324000000001,0.0007565106,0.0005488024000000001,7.996,0,0
0.0031123873999999996,0.0014036106,-0.008789232000000001,0.0013568246000000002,0.0007111724000000001,7.997,0,0
0.0020536964,0.002511015,-0.00792018,0.0012539448000000002,0.0011226412,7.998,0,0
0.0011754229999999999,0.0040412550000000005,-0.005698767,0.0016571002000000002,0.0012887432000000002,7.999,0,0
0.0003249030000000001,0.004801394,-0.002798135,0.0017795502000000003,0.0012224942,8.0,0,0
-0.000505041,0.0040909274,0.000822187,0.0011808578,0.0008873158,8.001,0,0
-0.0011544884,0.0032087316,0.005176803000000001,0.0010072018000000002,0.00032052134000000004,8.002,0,0
-0.0017623494,0.0024551755999999997,0.007991229,0.0010915796000000003,-0.00010521346000000002,8.003,0,0
-0.002110212,0.0014741396000000002,0.008264360000000002,0.0004133596,-0.0004336066600000001,8.004,0,0
-0.0024467860000000003,0.0010057496,0.007330404,-0.0004289804,-0.0006330436600000001,8.005,0,0
-0.0026803400000000002,0.0009159810000000001,0.0042927899999999995,-0.0005206426,-0.0011231632600000002,8.006,0,0
-0.002825034,0.00045597079999999993,-0.0002443560000000005,-0.0010031946,-0.0014835748000000001,8.007,0,0
-0.00252388,0.00014566620000000004,-0.0030559260000000005,-0.0015475325999999999,-0.0013278860000000001,8.008,0,0
-0.0014884720000000002,0.00027562820000000005,-0.00442028,-0.0010001206,-0.0010278080000000003,8.009,0,0
-0.0001067319999999999,0.0003550682000000001,-0.0043009046,-0.00043887940000000007,-0.0008459072,8.01,0,0
0.001304412,0.00010214740000000016,-0.0014988726,-0.0006079448000000001,-0.0005996240000000001,8.011,0,0
0.0021803480000000004,-0.00034254460000000006,0.0022387734000000005,-0.000382498,-8.617000000000002e-05,8.012,0,0
0.002703536,-0.000348148,0.0052733234,0.000389784,-0.00010727992000000001,8.013,0,0
0.002642434,-0.0007363544,0.008264733400000002,0.000497922,-0.00015000072000000004,8.014,0,0
0.001584434,-0.0012818049200000003,0.009836576000000001,0.0005218180000000001,0.00013666648,8.015,0,0
0.000617604,-0.00080599352,0.008652138000000002,0.00126349,0.0005342532800000001,8.016,0,0
0.00015255,-0.00142051952,0.0063672752,0.00132268094,0.00070429928,8.017,0,0
-0.00046539400000000005,-0.0030571035200000003,0.003857171200000001,0.00049463494,0.0004770552000000001,8.018,0,0
-0.001891564,-0.00464766512,0.0011458911999999999,9.660314e-05,0.0003323352000000001,8.019,0,0
-0.003012396,-0.0063700826,-0.0010206108000000002,-0.00026071206,0.00023134439999999997,8.02,0,0
-0.0027484322,-0.006160878000000001,-0.0019853548,-0.0008788020600000001,-6.047460000000002e-05,8.021,0,0
-0.0020728301999999995,-0.0038677060000000007,-0.002641754,-0.0008977518000000002,-0.0004338086,8.022,0,0
-0.0016920041999999996,-0.002476128,-0.0031949100000000005,-0.0005331294,-0.0002860896,8.023,0,0
-0.0007239171999999999,-0.002065972,-0.00336446,-0.00032911880000000004,-0.00011686900000000002,8.024,0,0
0.0007940220000000001,-0.0016735079999999998,-0.0033416360000000003,0.00014953120000000002,-0.00026051840000000003,8.025,0,0
0.0014506882000000002,-0.0013575139999999998,-0.0032445980000000004,0.0007935452000000001,-0.00024011500000000003,8.026,0,0
0.0018852082000000003,-0.0004065039999999998,-0.0028586548,0.0009240862,-3.1457000000000034e-05,8.027,0,0
0.0020204022,0.0008578360000000004,-0.0021225902000000002,0.0008544566000000001,0.000307208,8.028,0,0
0.0016480872000000002,0.00381407,-0.0013971718000000003,0.0010181458,0.0006101062,8.029,0,0
0.0014314376000000002,0.008229098,-0.0007985080000000001,0.0009444734,0.0009288804000000001,8.03,0,0
0.0007933258000000002,0.011002296000000002,-0.0008788260000000001,0.00045153840000000005,0.001236066,8.031,0,0
6.971460000000003e-05,0.012096416,-0.0012456032000000001,0.00040992040000000006,0.0012091648,8.032,0,0
-9.948120000000002e-05,0.012839948000000002,-0.0018010818,0.0008958076000000001,0.0009784786,8.033,0,0
0.00010822540000000002,0.011300068000000002,-0.0023199282000000002,0.0008448636,0.0005888388000000001,8.034,0,0
-0.00037562619999999996,0.005788128,-0.00252636,0.0005585622,0.00041447580000000003,8.035,0,0
-0.0011819444,-0.0007959919999999997,-0.0026340780000000006,0.000567894,0.0006110018000000001,8.036,0,0
-0.0006709352000000002,-0.005743572000000001,-0.00244617,0.00022517699999999996,0.0006490256,8.037,0,0
0.0003838165999999999,-0.009499674000000001,-0.002015517,-0.000725161,0.0006905242000000002,8.038,0,0
0.0002528179999999999,-0.011720636000000001,-0.00135492538,-0.0013395450000000001,0.000631602,8.039,0,0
6.947400000000014e-05,-0.010860980000000001,-0.00080030738,-0.0016333552,0.00020678899999999997,8.04,0,0
0.00044315000000000007,-0.008992224,-0.00028761878000000004,-0.002313118,-0.0005661590000000001,8.041,0,0
-0.000407224,-0.007444630000000001,0.00051936522,-0.002389852,-0.0013071056,8.042,0,0
-0.0017282920000000002,-0.005184614000000001,0.0010029982200000002,-0.00182398934,-0.0016263300000000003,8.043,0,0
-0.0017625680000000002,-0.00244055,0.0009281282000000001,-0.0016121409399999997,-0.0016800500000000002,8.044,0,0
-0.0006886260000000001,0.0006304860000000003,0.0004554382,-0.0010338703399999998,-0.0017546780000000002,8.045,0,0
0.00047900600000000014,0.004034630000000001,-0.0004473484,0.0002299576600000001,-0.001830144,8.046,0,0
0.0011684280000000002,0.0063910880000000005,-0.0021853084,0.0007806596600000001,-0.0017043280000000002,8.047,0,0
0.0010332780000000003,0.0060351148000000005,-0.0039281504,0.000772904464,-0.0018985340000000001,8.048,0,0
0.00015982400000000025,0.004062516800000001,-0.0032212680000000002,0.001158768064,-0.002004706,8.049,0,0
-0.0009176079999999998,0.0017907088000000005,-0.00114702,0.001083104064,-0.0018062132000000002,8.05,0,0
-0.00146904,-0.0004931724,0.00028930399999999967,0.00034254066399999996,-0.0014887896000000001,8.051,0,0
-0.0015859579999999997,-0.0020489654,0.001285066,0.00021312486400000002,-0.0006863495999999999,8.052,0,0
-0.0011997725,-0.0017630466,0.0026687276000000003,0.0005552054,-4.398559999999998e-05,8.053,0,0
0.00039936750000000003,-0.0007604409999999999,0.0026049896000000005,0.0005566794,0.00023818460000000002,8.054,0,0
0.0016389755,-0.000280195,0.0010574396,0.00043096880000000005,0.0007965098,8.055,0,0
0.0016021575,7.425500000000004e-05,0.0014504036,0.0005495424,0.0016060382000000002,8.056,0,0
0.0016113535,-8.993908e-05,0.0027178756000000004,0.0004683942000000001,0.0018744262000000003,8.057,0,0
0.0017561474000000001,-0.00015034967999999997,0.0033050060000000005,-0.0003472878,0.0019245102,8.058,0,0
0.0011981224,0.00127260272,0.0031899560000000003,-0.0007025429999999999,0.0022533040000000002,8.059,0,0
0.000736493,0.0035606327200000004,0.0027608368000000003,-0.0005322473999999999,0.0023424360000000003,8.06,0,0
-0.000183227,0.0037622839200000006,0.0018980982000000003,-0.0007925816,0.0017788394,8.061,0,0
-0.002015673,0.002131851,0.0012658762,-0.0006909069999999999,0.001193167,8.062,0,0
-0.0023242368,0.0004936960000000003,0.0013964562,1.592299999999999e-05,0.0010596742,8.063,0,0
-0.0014161337999999998,-0.0015970399999999997,0.0008943978000000002,2.1637799999999998e-05,0.0009752656000000001,8.064,0,0
-0.0011586484,-0.003950752,-0.000114451,-0.00025154480000000003,0.0010127516,8.065,0,0
-0.0005041044,-0.004212465,-0.0017573124000000002,0.0001931206,0.0009707594,8.066,0,0
0.0009595257800000002,-0.001877611,-0.0035133484000000005,-1.4389000000000014e-05,0.0007527112,8.067,0,0
0.0015703341800000002,0.0005785070000000001,-0.0045004924,-0.00023090012,0.0007649972,8.068,0,0
0.00124812018,0.002714073,-0.004174158000000001,0.00029892627999999994,0.0010014078,8.069,0,0
0.0011607161800000002,0.004121495,-0.0026185680000000004,0.0002478526799999999,0.0008636498,8.07,0,0
0.0014952301800000003,0.004422512,-0.0009388954000000001,-0.00029201672000000014,0.00041634459999999996,8.071,0,0
0.0014830100000000003,0.004006886000000001,0.0008822526,-0.0004903037200000001,-8.367080000000015e-05,8.072,0,0
0.0009925820000000003,0.0023826100000000003,0.0019815206,-0.0006459096000000002,-0.0006889540000000001,8.073,0,0
0.0007715840000000001,-0.00047159000000000003,0.001825692,-0.0013260736,-0.001662948,8.074,0,0
0.0008765540000000001,-0.002985372,0.0017766540000000001,-0.0012226358,-0.0026434500000000003,8.075,0,0
0.0004805202000000001,-0.004197074,0.0022644054000000003,-0.00037860980000000013,-0.002578294,8.076,0,0
0.00036056840000000005,-0.004670866,0.0021299994,-0.00010735240000000007,-0.0020427558,8.077,0,0
0.0006462204,-0.004202616,0.0014975910000000002,0.00013975820000000004,-0.0015463920000000004,8.078,0,0
0.00041040600000000004,-0.0023976120000000004,0.0014264454,0.0010107682,-0.0009889909600000002,8.079,0,0
-0.0003415300000000001,-0.00191633,0.0010353874,0.001422435,-0.00060531096,8.08,0,0
-0.0026460942000000004,-0.005288372,0.00021646140000000007,0.0011104198000000001,-0.00019793096,8.081,0,0
-0.003994828400000001,-0.00606573,-9.244319999999996e-05,0.0014435744000000003,1.667364e-05,8.082,0,0
-0.0025958764000000014,-0.0012275580000000001,-0.0002829452,0.0019072968000000004,-0.00039671616,8.083,0,0
-0.0017038920000000007,0.0017713199999999998,-0.000861551,0.001403979,-0.0005535176000000001,8.084,0,0
-0.0010139440000000008,0.004287550000000001,-0.001518073,0.0006739970000000002,-8.534360000000003e-05,8.085,0,0
0.0014578542,0.010435756000000001,-0.001863689,0.0009255302000000001,0.0001918304,8.086,0,0
0.0025501382,0.012452144000000002,-0.0021462224,0.0009426682000000001,0.0003065620000000001,8.087,0,0
0.0007675854,0.007518676000000002,-0.0018714360000000002,0.00010622820000000011,0.0008608396000000001,8.088,0,0
-0.0006966286000000001,0.003011078,-0.00035137000000000015,0.00011925360000000009,0.0015525260000000003,8.089,0,0
-0.0009398740000000002,0.000482012,0.001690432,0.0004360060000000001,0.001641096,8.09,0,0
-5.569620000000011e-05,-0.00193138,0.0031981460000000002,-0.00016810399999999997,0.0013467642,8.091,0,0
0.0006642417999999999,-0.0033616220000000003,0.00384767,-0.0005565392000000001,0.0011324118,8.092,0,0
0.0006438543999999999,-0.0037321100000000003,0.0035262992000000006,-0.0004140636,0.0007340082,8.093,0,0
0.0007692943999999999,-0.004301852,0.0017299492000000002,-0.0009320012000000001,-4.017800000000041e-06,8.094,0,0
-3.9856199999999966e-05,-0.005466706,-0.0005000487999999998,-0.0010842296000000001,-0.00042776300000000006,8.095,0,0
-0.0006763182,-0.005080138400000001,-0.0018011288,-0.0005411316,-0.0008871252,8.096,0,0
-0.00017837020000000003,-0.0036460024000000008,-0.0027750848000000004,-0.0005037036000000001,-0.0014307792000000001,8.097,0,0
0.0001095594000000001,-0.0028986496000000007,-0.003429938,-0.0006256352000000001,-0.0014313192,8.098,0,0
0.0006913258000000001,-0.0013137115999999997,-0.0031512700000000003,-0.00014902500000000003,-0.0011488286,8.099,0,0
0.0015049252000000001,0.00031484640000000016,-0.0026476959999999997,0.00031929499999999993,-0.0008523097999999999,8.1,0,0
0.0007553572000000002,-0.0003222651999999999,-0.002243424,0.00026519299999999994,-0.00050684028,8.101,0,0
-0.0006129088000000001,-0.0014068972,-0.0006674739999999999,0.0005893081999999999,0.00024760892000000003,8.102,0,0
-0.0011442842,-0.001291762,0.0015440640000000002,0.0008184182,0.00076397892,8.103,0,0
-0.0012426092,-0.001007549,0.0026547420000000003,0.0006155823999999999,0.00088985232,8.104,0,0
-0.0011478238,-0.0003582514000000001,0.0027698180000000003,0.0006278783999999999,0.00112584072,8.105,0,0
-0.0010675678000000002,0.0006559746,0.0016430820000000004,0.00048349999999999993,0.0013807052,8.106,0,0
-0.000580691,0.0017259426,-0.0013702319999999999,-0.00014809800000000004,0.0013090456,8.107,0,0
0.000263109,0.0033352586,-0.005493268000000001,-0.0004697480000000001,0.0007379576,8.108,0,0
0.0003941236,0.0052595995999999996,-0.009088644,-0.00042418120000000005,0.00010108960000000005,8.109,0,0
0.0004050866,0.007048304,-0.010491794,-0.0007796118000000001,-0.0007184304000000001,8.11,0,0
0.0008780102000000001,0.008945248000000001,-0.00852112,-0.0009813482000000002,-0.0014398604,8.111,0,0
0.0009821598,0.01073108,-0.00405452,-0.0006596162000000001,-0.0016244462000000002,8.112,0,0
0.0007779518,0.010959205999999999,0.0012142800000000012,-0.0006048702,-0.001376398,8.113,0,0
0.0007651337999999999,0.008371271999999999,0.007260040000000001,-0.0010689514,-0.0006871580000000001,8.114,0,0
0.0006414969800000001,0.0040574719999999995,0.012636298,-0.0011205262,5.547599999999994e-05,8.115,0,0
0.0004927921800000001,-0.0005961679999999998,0.01457776,-0.0009659602,0.0004399832,8.116,0,0
0.00054157678,-0.0063737080000000005,0.012875624000000002,-0.0014577542,0.0006516954,8.117,0,0
0.00032602278000000006,-0.011281722000000001,0.009559074,-0.0015289942000000002,0.0005912898,8.118,0,0
-0.00011030722000000001,-0.012541486000000001,0.00539522,-0.0007405462000000002,0.00015167299999999998,8.119,0,0
-0.00035119020000000004,-0.011874558,0.0003731940000000001,-0.0005156858,-0.000201661,8.12,0,0
-0.0005016296000000001,-0.011195518000000002,-0.0035544140000000005,-0.0006501796000000002,-0.00045236820000000004,8.121,0,0
-0.0006890658,-0.009350332,-0.005123866,-5.3005200000000026e-05,-0.0006537076000000001,8.122,0,0
-0.0006934438000000001,-0.006931132000000001,-0.004973904,0.0004895336000000001,-0.0006363836000000001,8.123,0,0
-0.0006237294000000001,-0.005655486000000001,-0.0039698146000000005,0.0003723568,-0.000599619,8.124,0,0
-0.0007290474000000001,-0.004383294,-0.0026177562000000002,0.0002442166,-0.0005727080400000001,8.125,0,0
-0.0012381048000000001,-0.00305419,-0.0015865352,0.00042161200000000003,-0.00018864884,8.126,0,0
-0.0014245956,-0.000584336,-0.0007328102,0.00026860960000000004,0.00012628656000000004,8.127,0,0
-0.0013593532,0.0023650440000000006,0.0001042018,7.9397396e-05,4.3599560000000026e-05,8.128,0,0
-0.0017557076,0.0038399840000000007,0.00023680880000000003,0.0005958521960000001,0.00015453976000000003,8.129,0,0
-0.0012879482000000002,0.006197280000000001,0.00014850500000000003,0.000918043396,0.0003228386000000001,8.13,0,0
7.615379999999998e-05,0.008958616,0.0002785782,0.000750071796,0.00029911020000000007,8.131,0,0
0.0007225538,0.008702104,0.0001275268,0.000782931196,0.0003217482,8.132,0,0
0.0011049914,0.006829221999999999,-0.0005924492000000001,0.0008445346000000001,0.0006491912,8.133,0,0
0.0020246333999999998,0.006144391,-0.0011561396000000002,0.000352729,0.0009732372000000001,8.134,0,0
0.0020216086,0.0045252090000000005,-0.0014349562,0.000138326,0.0007794074000000001,8.135,0,0
0.0011519586,0.0024736590000000004,-0.0016321716000000002,0.000269936,0.0006923908,8.136,0,0
0.00041725659999999995,0.001604739,-0.0015743692000000002,0.00024727,0.0007408068000000002,8.137,0,0
-0.00017882500000000002,0.001326911,-0.0013362956000000001,6.12156e-05,0.0002900842000000001,8.138,0,0
-0.00015441700000000006,0.00208672,-0.0008024276000000001,-0.00020090340000000003,-0.0002970838,8.139,0,0
1.1116399999999953e-05,0.002377674,-0.0003173962,-0.00016257780000000001,-0.0004594286,8.14,0,0
3.331840000000004e-05,0.0008571799999999999,5.852900000000001e-05,-0.00027023880000000007,-0.0008365067999999999,8.141,0,0
0.0007852004000000001,-0.0008683619999999999,0.0009529390000000001,0.0002157538,-0.0014367727999999998,8.142,0,0
0.001580836,-0.001972766,0.0019467054,0.0005935262,-0.0012039519999999999,8.143,0,0
0.0008180260000000001,-0.0042549779999999995,0.0022980454,0.00041488880000000003,-0.0007610654,8.144,0,0
-0.00018770199999999999,-0.006468472000000001,0.0028374200000000002,0.0007281162000000001,-0.00030190059999999995,8.145,0,0
0.00011650340000000003,-0.006459076000000001,0.0036070800000000004,0.0008847136,0.0003370234,8.146,0,0
0.0001407094,-0.005689188,0.003394526,8.926760000000001e-05,0.0007208706,8.147,0,0
-0.00028576860000000003,-0.005045942400000001,0.00234819,-8.051920000000002e-05,0.0009816598,8.148,0,0
0.00017061800000000004,-0.0033874764000000005,0.0012060799999999996,0.0006283508,0.0011866072,8.149,0,0
0.000613426,-0.0013347704000000002,-0.0003926260000000002,0.000132635,0.0011979392000000001,8.15,0,0
0.00024111260000000002,-3.4113199999999855e-05,-0.00268168,-2.6320600000000034e-05,0.0010402624,8.151,0,0
-0.0006774954,0.0010230228,-0.004650536,0.0005754013999999999,0.0010654938,8.152,0,0
-0.0014298214,0.0016316892,-0.005565232000000001,0.000652617,0.0007597456000000001,8.153,0,0
-0.0010988779999999997,0.0020490172000000003,-0.005903978,0.00047415300000000005,-8.796039999999997e-05,8.154,0,0
-9.338400000000007e-05,0.0026877232000000004,-0.006408670000000001,0.0004176628,-0.0008824804000000001,8.155,0,0
0.00044814200000000006,0.003275978,-0.006773664,8.504680000000003e-05,-0.0012216416,8.156,0,0
0.000933102,0.0035780480000000003,-0.007230148,-0.0006754151999999999,-0.0011629196000000003,8.157,0,0
0.0015729011999999999,0.003463468,-0.008845124,-0.001388662,-0.0007982633999999999,8.158,0,0
0.0013889052,0.003086276,-0.009544686,-0.0016389395999999998,-0.00017509420000000003,8.159,0,0
0.0003021932000000001,0.001172448,-0.006890616,-0.0013132577999999998,0.0004224694,8.16,0,0
-0.0008413348000000001,-0.0014792800000000004,-0.002290943999999999,-0.0009684003999999999,0.0007571914000000001,8.161,0,0
-0.0009935363999999999,-0.0022700342000000003,0.0029840320000000006,-0.0001643124000000001,0.0004846396,8.162,0,0
-0.0009578382,-0.0014339682000000004,0.008716112,0.0007095456,0.00011673879999999994,8.163,0,0
-0.0016255502,-0.0018079498540000004,0.012638550000000002,0.0008065646,3.445379999999999e-05,8.164,0,0
-0.0024408722000000002,-0.0029878678540000004,0.013229732000000001,0.0006101308,8.344180000000003e-05,8.165,0,0
-0.0024222862,-0.0006287718540000002,0.011662242,0.0007347408000000001,0.00023726380000000004,8.166,0,0
-0.0016045826,0.0025755023460000003,0.009566185999999999,0.000261471,0.0005777690000000001,8.167,0,0
-0.0012273020000000004,0.0027492943460000006,0.008214680000000002,-0.00034995100000000004,0.0007087042,8.168,0,0
-0.0012377120000000004,0.00325717,0.006882374000000001,0.00011348960000000003,0.000633794,8.169,0,0
-0.0003761480000000001,0.005549488,0.004518306000000001,0.00043642960000000005,0.00048471639999999997,8.17,0,0
0.0013681,0.004828970000000001,0.0022669260000000003,0.0003228764,-0.0002830896,8.171,0,0
0.0017889879999999998,0.0007239499999999999,0.000293462,0.0007821702000000001,-0.0007603876,8.172,0,0
0.001520912,-0.0018811700000000002,-0.001999884,0.0014054782000000002,-0.0007148898000000001,8.173,0,0
0.0019369636,-0.003666438,-0.003321942,0.0009070982,-0.0009361998,8.174,0,0
0.0011651176,-0.006640896,-0.0028979158,0.0004913958000000001,-0.0010551776,8.175,0,0
-0.00043467440000000005,-0.007633122000000001,-0.0013301057999999997,0.0006757656000000001,-0.0006292088000000001,8.176,0,0
-0.0005862204000000002,-0.005214052,0.00040227420000000017,0.00015286760000000004,-0.0005536800000000001,8.177,0,0
0.00015019360000000017,-0.0033061260000000004,0.0012730148,-0.0005031144000000001,-0.0009282622000000001,8.178,0,0
0.000521046,-0.0016799120000000002,0.0010824127999999999,-0.00044707620000000004,-0.0009295402000000001,8.179,0,0
0.0016576766,0.001761032,0.0003942425999999997,-0.00024866060000000004,-0.0007476024000000001,8.18,0,0
0.002462211,0.003539492,-0.0008500633999999999,-0.0003342966000000002,-0.00060260984,8.181,0,0
0.0014671718000000002,0.002435802,-0.0029918134000000004,-7.962860000000002e-05,-0.00056295884,8.182,0,0
0.0002529464,0.00179673056,-0.0045562020000000005,0.00022996340000000002,-0.00031013584,8.183,0,0
-0.0003917296,0.0011037905600000003,-0.004702592,-0.00013032679999999997,-2.5473440000000015e-05,8.184,0,0
-0.0005297219999999999,0.00025532536000000006,-0.004544014,-0.000646336,0.00010988955999999999,8.185,0,0
-0.000684412,0.0002952593600000001,-0.004765016,-0.000865268,0.0005773502,8.186,0,0
-0.0010765628,-0.0005669606400000001,-0.004704794,-0.001073382,0.0012073384,8.187,0,0
-0.0011073714,-0.0006134142000000001,-0.003729604,-0.001503496,0.0013515874000000002,8.188,0,0
-0.0005789354000000001,0.0009045378000000001,-0.0022904020000000004,-0.001242918,0.0012306074,8.189,0,0
-0.0002968316000000001,0.0016665170000000002,-0.0007276939999999997,-0.00059492,0.0010559254,8.19,0,0
-0.00012129320000000006,0.0017276350000000004,0.001219894,-0.000883066,0.0001632914,8.191,0,0
0.0006195848,0.002884273,0.0030687500000000003,-0.0010438700000000001,-0.0007281306,8.192,0,0
0.0012996248,0.0033922680000000004,0.003002612,-0.00059677132,-0.0008289926,8.193,0,0
0.0010293478000000002,0.001429438,0.0009866539999999998,-0.00073358172,-0.0007828592,8.194,0,0
-1.998620000000001e-05,-0.00016903200000000017,-0.0017185479999999996,-0.00110356812,-0.00046851019999999996,8.195,0,0
-0.0008891810000000001,-0.0005752244000000003,-0.0045265719999999995,-0.00081211192,0.0007975118,8.196,0,0
-0.001377343,-0.0008118944000000004,-0.006394196,-0.0009030739200000001,0.0014422757999999999,8.197,0,0
-0.0017521688000000002,-0.0007209664000000004,-0.0059308884200000005,-0.0011230246,0.0010014298,8.198,0,0
-0.0026208738000000004,-0.0006038264000000003,-0.003294974420000001,-0.0007349462000000001,0.0009940925999999998,8.199,0,0
-0.0025411818000000003,-0.00037124040000000014,-0.0006665384199999996,-0.0007890804000000001,0.0006038147999999999,8.2,0,0
-0.0010155438,0.0012434739999999998,0.00162553358,-0.0008856006,-0.0004795352000000001,8.201,0,0
3.370820000000009e-05,0.0028844179999999997,0.00400857758,-0.000282782,-0.0010738572000000002,8.202,0,0
0.00031609200000000013,0.0025171096,0.005386112000000001,0.0001031672,-0.0009534292000000001,8.203,0,0
0.0013061038000000001,0.0022930036000000003,0.005080762000000001,0.00020639119999999996,-0.0009400764,8.204,0,0
0.0023063558000000002,0.0020212056,0.00468123,0.0008656578,-0.0009668452000000001,8.205,0,0
0.0010951138,-0.0009267064000000002,0.00477523,0.0014078138,-0.0007059280000000001,8.206,0,0
-0.00012906419999999993,-0.0038378244000000002,0.0037811780000000005,0.0013665048,-0.0003472976,8.207,0,0
0.00013020380000000002,-0.003646828,0.0023002348000000002,0.0014498255999999998,-0.00020729460000000003,8.208,0,0
0.0007673660000000001,-0.001326612,0.0012216828,0.0017712456,-0.00022840240000000003,8.209,0,0
0.0009746339999999999,0.0009369339999999999,0.00010199079999999999,0.0016070396000000002,0.00032125219999999997,8.21,0,0
0.00139763886,0.0024825719999999997,-0.0016207912,0.001318976914,0.000624861,8.211,0,0
0.0019280778599999999,0.002980858,-0.0021973692,0.001317593914,0.0005592286,8.212,0,0
0.00105682186,0.001092114,-0.0007860979999999998,0.000806149914,0.0006385992000000001,8.213,0,0
-0.00025269614000000015,-0.002332788,0.00034276800000000024,-0.00018401808599999997,0.0006360048000000001,8.214,0,0
-0.00142661814,-0.005018382,0.0012068320000000003,-0.000771792086,0.00040684680000000004,8.215,0,0
-0.001987037,-0.005661124,0.002772802,-0.0007468700000000001,0.0001226702,8.216,0,0
-0.0018778719999999998,-0.00488994,0.0032173040000000003,-0.0005155226,0.000271218,8.217,0,0
-0.0017130726,-0.0030598419999999997,0.0017886544000000001,1.91754000000001e-05,0.00039307530000000005,8.218,0,0
-0.001256129,-0.000287722,0.00046304439999999994,0.0009099414000000001,0.0001597021,8.219,0,0
-0.00046229940000000003,0.0013559200000000003,-0.0010089356,0.0013203542,-0.00018667330000000004,8.22,0,0
-8.365900000000003e-05,0.0010629240000000002,-0.0026735256000000006,0.0009255928000000001,-0.0002976275,8.221,0,0
-0.00034822700000000005,0.0008755087999999999,-0.0034776516000000006,0.000521263,-2.1191300000000042e-05,8.222,0,0
2.3649599999999978e-05,0.0008463368000000001,-0.004130608000000001,0.00027938320000000014,0.00017245979999999997,8.223,0,0
0.000868222,9.032999999999898e-06,-0.0038082558000000007,-0.0003745432,0.0002675924,8.224,0,0
0.0018724623999999998,-1.2343000000000136e-05,-0.0018202978,-0.00074531,0.0008084498,8.225,0,0
0.002773932,-7.0209e-05,-7.608579999999988e-05,-0.0001957304,0.0013468206,8.226,0,0
0.0026175112,-0.0016408418000000004,0.0008376662000000002,0.00011865940000000005,0.0010902008000000002,8.227,0,0
0.0021988058,-0.0031593398,0.0017089274000000002,0.00010232248000000003,0.0008186218,8.228,0,0
0.0016673382,-0.004203964,0.0021164392000000004,0.00056803888,0.0006732952,8.229,0,0
0.0004909068,-0.005002258000000001,0.0015808392000000002,0.0008471540800000001,-4.662679999999997e-05,8.23,0,0
-0.00024466319999999996,-0.0037881200000000003,0.0008243728000000001,0.00030964048,-0.0003975774,8.231,0,0
4.093600000000018e-06,-0.0007078780000000001,0.0003052896000000001,-1.8319719999999927e-05,-0.0004476988,8.232,0,0
0.0002431844,0.0021419840000000004,-0.0001815175999999999,-0.00012811339999999993,-0.0005786746,8.233,0,0
1.3867599999999996e-05,0.004084868,-0.0006841876,-0.0006668054,-0.000288778,8.234,0,0
-0.00021223500000000002,0.004800637000000001,-0.0009716364,-0.0005986310000000001,-0.00015897100000000002,8.235,0,0
-0.0009020510000000001,0.0043293504,-0.0009085334,0.00023628100000000002,-0.0006394404,8.236,0,0
-0.0016992030000000003,0.0028891503999999998,-0.0007245362,0.0007346772000000001,-0.0011361712000000001,8.237,0,0
-0.0012724324000000001,0.0011424638,-0.0005714502000000001,0.000793073,-0.0013314864,8.238,0,0
-0.0006885320000000003,0.00013868739999999997,-0.0008948322,0.0010891874,-0.0014392696,8.239,0,0
-0.000818352,0.00010746559999999999,-0.0014275714,0.001117749,-0.001365078,8.24,0,0
-0.0005045080000000001,0.0003216482000000001,-0.0015584094,0.00011563100000000015,-0.001300032,8.241,0,0
-9.736200000000009e-05,0.0003620622000000001,-0.0013211494000000001,-0.0006917970000000001,-0.0009385256,8.242,0,0
-0.0008051356,0.0008160988000000002,-0.0008721814000000001,-0.0006369682,-0.00032939760000000003,8.243,0,0
-0.0015405456000000001,0.0011542924,-0.0003676094000000001,-0.0010525246,-9.113379999999998e-05,8.244,0,0
-0.0013081336000000002,0.0007790232000000001,0.0003907764,-0.0014471318,0.0001318078,8.245,0,0
-0.0007218768,0.0007359172000000001,0.0006146638000000002,-0.0010726792000000003,0.0004540288,8.246,0,0
5.808119999999999e-05,0.0005559146000000001,-0.0008273282000000001,-0.0011001952,0.0006458492000000001,8.247,0,0
0.00032417040000000006,-0.0010614874,-0.0026967282,-0.0012752990000000001,0.0010267732,8.248,0,0
0.00044703380000000006,-0.0016156946,-0.0034115942000000005,-0.000655273,0.001244216,8.249,0,0
0.0011194518,-0.0007335945999999999,-0.0034685000000000002,-6.932299999999999e-05,0.0007369618000000002,8.25,0,0
0.0013002930000000001,-0.0007577326000000001,-0.0030393020000000002,0.00019776559999999996,0.00020070480000000006,8.251,0,0
0.0009776008,6.734599999999992e-05,-0.001410376,0.0008060618000000001,7.095960000000015e-05,8.252,0,0
0.0007974376,0.0027075460000000003,0.001038138,0.0012401174,-0.00030059839999999993,8.253,0,0
0.001019921,0.0043505900000000005,0.002763828,0.0010622258,-0.0009682884,8.254,0,0
0.0007728678000000001,0.004143566000000001,0.00386315,0.0006777668,-0.000793807,8.255,0,0
0.0001686518,0.004233452,0.005347012,0.0006304772,-6.3259e-05,8.256,0,0
-0.000645122,0.0028952400000000003,0.006223956,0.00029184139999999996,0.00033279939999999997,8.257,0,0
-0.0016859424000000003,6.21100000000002e-05,0.0052557258,-0.0005109786,0.0007135354,8.258,0,0
-0.0017648052000000002,0.000192998,0.0031523658,-0.0007480452,0.0016943654,8.259,0,0
-0.001282596,0.002204104,0.0014630658000000002,-0.000570411,0.002387252,8.26,0,0
-0.0007891400000000003,0.0021330040000000004,0.0005020797999999998,-0.0009305426,0.0020738669999999996,8.261,0,0
0.00024478999999999983,0.0017966460000000003,0.0005461337999999999,-0.001310477,0.0016846154,8.262,0,0
0.001781112,0.0021960540000000002,0.001324562,-0.0008218312,0.0012515604,8.263,0,0
0.0022088060000000002,-0.0006254759999999998,0.002416878,-0.0008632566000000001,0.00030654840000000005,8.264,0,0
0.0015700324000000002,-0.00495675,0.0026634199999999997,-0.0013835518,-0.0009373256000000001,8.265,0,0
0.0008043043999999999,-0.006676700000000001,0.000863034,-0.0009039582,-0.0013177546000000002,8.266,0,0
-0.0001579995999999999,-0.006711158000000001,-0.001412704,-5.0044200000000025e-05,-0.0012265328000000003,8.267,0,0
-0.0010780015999999999,-0.006728386,-0.0027380020000000002,0.000260674,-0.0013873358600000002,8.268,0,0
-0.0020504156,-0.0051174924000000005,-0.003155344,0.0008320296,-0.00128929586,8.269,0,0
-0.0022820372,-0.0015634144,-0.003128288,0.0017116556,-0.00091378186,8.27,0,0
-0.0016123162,0.0012849976000000002,-0.0020361080000000004,0.0015964686000000002,-0.00067286786,8.271,0,0
-0.0012997902,0.0026590336,-0.00017518600000000014,0.0008908826,-0.0008146100600000001,8.272,0,0
-0.0009472114,0.0032236576,0.001070126,0.00016352059999999994,-0.0006549723999999999,8.273,0,0
-0.0002674578000000001,0.0026309560000000003,0.0015230038,-0.0007191534,-0.0002785209999999999,8.274,0,0
-7.264800000000005e-06,0.0013656340000000001,0.0016968635999999998,-0.0013955554000000003,-0.00017817900000000004,8.275,0,0
5.836019999999991e-05,0.000516998,0.0014547133999999998,-0.0013887428000000004,4.505397599999999e-05,8.276,0,0
0.000164386,7.300839999999995e-05,0.0002890154,-0.0009344456000000001,0.00031784997600000004,8.277,0,0
5.5827200000000007e-05,-0.00031192960000000006,-0.0010801546,-0.0001853936,0.00012438637600000005,8.278,0,0
-0.0005914104,-0.0025400076000000006,-0.0019859604,0.0005113504,-9.7998824e-05,8.279,0,0
-0.0010990522000000002,-0.0053793496000000005,-0.0024961582,0.0004298944000000001,-0.00037627282400000005,8.28,0,0
-0.0005473462000000003,-0.0061019132000000005,-0.002641405,0.00021000900000000001,-0.0010597638,8.281,0,0
0.0005050679999999998,-0.0058981896,-0.002061421,6.492379999999995e-05,-0.0014968512000000003,8.282,0,0
0.001239006,-0.0051188824,-0.00105586,-0.0003541586,-0.0016723066000000003,8.283,0,0
0.002094092,-0.0025319224,-0.0004304640000000001,-0.0008048816,-0.0017139328000000003,8.284,0,0
0.002743928,0.00017586360000000002,-0.00034232600000000006,-0.00043321120000000004,-0.00115206998,8.285,0,0
0.0022020860000000002,0.0010239212000000002,-0.0004285488000000001,0.00043563300000000005,-0.00046506222,8.286,0,0
0.0013964436,0.0011916792000000002,-0.0005832992000000001,0.0006727868,-1.5808819999999944e-05,8.287,0,0
0.0010548122,0.0026705160000000004,-0.0005206062000000001,0.0008658928000000001,0.00049002058,8.288,0,0
0.0006707753000000001,0.005181316,0.00013108579999999997,0.0014181558,0.0008012181800000001,8.289,0,0
1.7641299999999983e-05,0.006335376000000001,0.0010683418,0.0014951052000000001,0.00110416736,8.29,0,0
-0.0008583667,0.0064877220000000005,0.0022008496,0.0006564019999999999,0.0013634436,8.291,0,0
-0.0010101947,0.007554096000000001,0.0033186440000000004,0.0004215506,0.0013519056,8.292,0,0
-0.0005839093000000002,0.006365646600000001,0.0037688300000000004,0.000656419,0.0013245376,8.293,0,0
-0.0011247524,0.0002905666000000001,0.003160986,0.0002621550000000001,0.0010982456,8.294,0,0
-0.0009289243999999999,-0.0042062594,0.002267216,0.00019445120000000004,0.000657576,8.295,0,0
0.0007895436000000002,-0.0048010614,0.0010629900000000002,0.0006235844000000001,0.00032651119999999994,8.296,0,0
0.0007808544,-0.0075973714000000005,-0.001122346,0.0005954484000000001,-0.0001323168,8.297,0,0
-0.0004927376,-0.009491560000000001,-0.0030370580000000005,-5.076160000000001e-05,-0.0005424956,8.298,0,0
5.4873100000000015e-05,-0.004701358,-0.004128124,-0.00020844199999999998,-0.0005217232,8.299,0,0
0.00045001450000000005,0.00016983599999999982,-0.0050808699999999995,-0.00056896,-0.00035698100000000003,8.3,0,0
-0.0004222555,0.0006689419999999995,-0.005806927999999999,-0.001307322,5.082980000000001e-05,8.301,0,0
-6.566789999999997e-05,0.002245058,-0.005647956000000001,-0.0010648419999999999,0.0006713438000000001,8.302,0,0
0.0005506811,0.0044486,-0.004633946,-0.0007977418000000001,0.0012826786000000002,8.303,0,0
0.00023863239999999993,0.0034393878,-0.0026400480000000003,-0.0009087774000000001,0.0018373546000000004,8.304,0,0
-6.850000000000004e-05,0.0013702098000000001,0.00011772200000000001,-0.0003412414,0.0017571122000000002,8.305,0,0
-0.00030045800000000003,0.0004471678000000002,0.0024440580000000003,0.0005699845999999999,0.0011538782000000002,8.306,0,0
-0.00018831799999999987,0.0007666118,0.004578656,0.0006889882,0.0005863464000000001,8.307,0,0
0.00046324700000000007,0.0017222478,0.005864056,0.000681465,-3.0362999999999885e-05,8.308,0,0
0.001131943,0.003480718,0.0050864618,0.0010636892000000001,-0.00039697599999999995,8.309,0,0
0.001507852,0.005713114,0.0024285938000000004,0.0006677955999999999,-0.00021109679999999997,8.31,0,0
0.001232356,0.007605758,-0.0011865781999999998,-0.0002023784,0.00028543920000000003,8.311,0,0
0.0004657540000000001,0.007838262,-0.0048592182,-0.000584394,0.00044409766000000003,8.312,0,0
-0.00044092600000000007,0.0044389419999999995,-0.006784364199999999,-0.0005484852,0.00013333106000000002,8.313,0,0
-0.0014116560000000003,-0.0006809580000000002,-0.005468456,-0.0006890554,-0.00047230794,8.314,0,0
-0.001887948,-0.004331434,-0.0026065459999999995,-0.0005881499,-0.0009325453400000001,8.315,0,0
-0.0016471302000000002,-0.0060949766,0.0015338059999999998,0.00010107810000000003,-0.00083120934,8.316,0,0
-0.0010159762,-0.006348394600000001,0.005852606,0.00038886850000000007,-0.000531234,8.317,0,0
-0.0001975082,-0.0037609526000000003,0.007356556,0.0003645563000000001,-2.5754200000000012e-05,8.318,0,0
9.28538e-05,-4.125660000000003e-05,0.006289091199999999,0.0007361183000000001,0.0004844172,8.319,0,0
-0.0006892122,0.0008810554,0.0045731254,0.0007701534000000001,0.0007979801599999999,8.32,0,0
-0.001070562,-0.0007680559999999997,0.0025542254,3.929540000000004e-05,0.0004639117020000001,8.321,0,0
-0.0007861679999999997,-0.002713104,0.0007510874,-0.0003587534,3.0167020000000135e-06,8.322,0,0
-0.0012051206,-0.004508481999999999,0.00041485340000000005,-0.000632133,1.3837020000000106e-06,8.323,0,0
-0.0010557592,-0.005757398,0.00034944840000000006,-0.0011273618000000002,-0.000406291698,8.324,0,0
0.00046362880000000006,-0.0047661246,0.0001823962,-0.0013098032,-0.000912976658,8.325,0,0
0.0015055308,-0.0029006096,-0.00023912580000000003,-0.0011292372,-0.0009701537999999999,8.326,0,0
0.0013628908000000001,-0.0016489362000000002,-0.0011003298,-0.0008412084000000002,-0.0007641763999999999,8.327,0,0
0.0013872444,-0.00040773600000000007,-0.0018315198000000003,-0.0006032156,-0.0008128809999999999,8.328,0,0
0.0016740986000000002,0.00035332120000000004,-0.002494906,-0.00013288279999999997,-0.00046731879999999993,8.329,0,0
0.0012342618000000002,0.0009465118,-0.00220607,0.00010055039999999995,0.0003702672,8.33,0,0
0.0008869318000000001,0.0028369788,-0.0011522819999999997,-0.0002450976,0.0006015972,8.331,0,0
0.0009946718000000002,0.0054731354,-0.0002914839999999997,-0.00022418179999999995,0.0005446508000000001,8.332,0,0
0.0007520776000000001,0.008024389199999999,0.0002728854000000001,0.00020609740000000006,0.000593311,8.333,0,0
0.000353742,0.010256912,0.0011182934,-0.0001441592,0.0006298584,8.334,0,0
0.0004444602000000001,0.010542904,0.0017291134000000001,-0.0002914804,0.00043473860000000004,8.335,0,0
0.0001083946,0.008776792,0.0019655534000000002,0.0005563856,0.0004716402,8.336,0,0
-0.00037250684,0.005238762,0.0023188214000000006,0.0006199818000000001,0.0005740508,8.337,0,0
-0.00011580104,-0.00048775800000000003,0.0016458920000000004,8.540579999999996e-05,0.0003755868000000001,8.338,0,0
-0.00042971503999999995,-0.006229338000000001,0.00021143200000000033,0.00034705239999999996,0.000289928,8.339,0,0
-0.00103637644,-0.009561182,-0.0010783479999999998,0.0008463588,0.00015815005999999997,8.34,0,0
-0.00120282684,-0.010916278,-0.002117934,0.000720818,-0.00013979054,8.341,0,0
-0.0014361674,-0.0098503936,-0.0028895868000000003,0.0007182648,-0.0005810251400000001,8.342,0,0
-0.0016932281999999998,-0.005577041600000001,-0.0025963407999999998,0.0013170648,-0.00072711954,8.343,0,0
-0.0012586028000000002,-0.0010444795999999998,-0.0009719928000000001,0.0012191984,-0.0008269837400000001,8.344,0,0
-0.0008461140000000001,0.0019515224,0.00011351119999999991,0.0005818708,-0.001334958,8.345,0,0
-0.0006076962899999999,0.0041595604,0.00027041799999999997,0.0005813646,-0.0016898674000000002,8.346,0,0
-5.6924290000000006e-05,0.0049313280000000004,0.0003011502,0.000566948,-0.0014335862,8.347,0,0
0.00024579511000000004,0.003576648,1.956199999999966e-06,0.00011017019999999998,-0.0011540182,8.348,0,0
0.00014102171,0.0005815640000000001,-0.0013070878,0.00011692279999999998,-0.0009473095999999999,8.349,0,0
-0.0004072930900000001,-0.002826378,-0.0031677818,5.6252399999999936e-05,-0.0001442056,8.35,0,0
-0.0009201108000000001,-0.005656797999999999,-0.0045125206,-0.0006000746000000001,0.0003097637800000001,8.351,0,0
-0.0019123468,-0.007347252,-0.0052857780000000005,-0.0005938610000000001,5.300458000000001e-05,8.352,0,0
-0.002545766,-0.006355958,-0.005458814,-0.0002790272000000001,4.932658000000004e-05,8.353,0,0
-0.0015920880000000002,-0.00260368,-0.0047973452,-0.0003219884000000001,0.00018100338000000006,8.354,0,0
-1.8863999999999947e-05,0.0007434000000000001,-0.0023997892,0.00013375359999999995,0.00011791538000000004,8.355,0,0
0.0014335800000000003,0.0013980779999999999,0.0007105528,0.0008780396000000002,0.0003952840000000001,8.356,0,0
0.0028826100000000003,0.0008069700000000002,0.0030070648,0.0007755136000000001,0.0007863618,8.357,0,0
0.0035159478000000004,-0.000453524,0.0050565128,0.00023614559999999998,0.0007694018,8.358,0,0
0.0026917888000000004,-0.002137061,0.006001526,0.00020025579999999996,0.0005901434,8.359,0,0
0.0016073880000000002,-0.0018264290000000003,0.005336922,-0.00010291059999999999,0.00012812540000000007,8.36,0,0
0.0005696712000000001,0.0009274090000000001,0.004131778000000001,-0.0009026866000000001,-0.0005148126,8.361,0,0
-0.0008273727999999999,0.0021972874,0.003030748,-0.0011577272000000002,-0.0007779244000000001,8.362,0,0
-0.0022557786,0.0005289754000000002,0.002072986,-0.0012504252,-0.0009149586,8.363,0,0
-0.0016235596,0.0013523524000000004,0.0019353520000000002,-0.0018227684000000004,-0.0010491642,8.364,0,0
0.00039648519999999966,0.0042099804000000005,0.0027387080000000003,-0.0018140034000000004,-0.0008852676,8.365,0,0
0.0008685139999999998,0.005711514400000001,0.002552146,-0.0008979554000000001,-0.00038850539999999995,8.366,0,0
0.0018299619999999999,0.009246356,0.0006985639999999998,-0.0003196654000000002,0.00016349659999999997,8.367,0,0
0.003981327999999999,0.013675736,-0.0018857960000000003,0.00025283419999999997,0.00044241340000000004,8.368,0,0
0.0033991242,0.012937518,-0.0038483580000000005,0.0012184462,0.0009285394000000001,8.369,0,0
