bandpass 1,bandpass 2,bandpass 3,bandpass 4,bandpass 5,time,onset,mark
4.139079999999998e-05,-0.007999770000000002,-0.003841334,0.0031854100000000005,0.001141592,5.925,0,0
-0.0002547672000000001,-0.008626552000000001,-0.008269153999999999,0.0032120840000000005,0.0012891970000000002,5.926,0,0
-0.0005552732000000001,-0.008402754,-0.009141806,0.0020398360000000006,0.0011668814000000002,5.927,0,0
-0.0008916156,-0.0025832740000000004,-0.007807648,-0.001760746,3.7861399999999956e-05,5.928,0,0
-0.0007478604000000003,0.0067429460000000005,-0.005748207999999999,-0.004398112,-0.0009555766,5.929,0,0
-0.00017614239999999998,0.015557195999999999,-0.0015214979999999992,-0.006269286000000001,-0.0015097026000000001,5.93,0,0
0.0003405956,0.021589158,0.0031918780000000004,-0.007835612,-0.0021351976,5.931,0,0
0.0011737916000000002,0.025374960000000002,0.0039538126,-0.007772834000000001,-0.0022066822000000002,5.932,0,0
0.001729302,0.025489380000000002,0.0028834926000000007,-0.0058505398,-0.0012318762000000003,5.933,0,0
0.0016195192,0.020585898,0.0028975526,-0.0038374838000000007,-0.0002922902,5.934,0,0
0.0018387032000000002,0.01416682,0.0026706206,-0.0025480200000000002,0.00011726020000000001,5.935,0,0
0.0019552972,0.010101796000000001,0.0013474306,-0.0014988760000000005,0.0005227372000000001,5.936,0,0
0.0015556862,0.00791432,0.0005554940000000002,-0.0009423380000000001,0.0005272524,5.937,0,0
0.0013560642,0.007264573999999999,-0.001097134,-0.0006748414000000002,0.00036797140000000006,5.938,0,0
0.0013576986000000003,0.004840326,-0.004653694,9.16605999999999e-05,0.00020553940000000003,5.939,0,0
0.0008600544000000001,-0.0031099160000000008,-0.007961692000000001,0.0015799048,2.280940000000002e-05,5.94,0,0
-8.124960000000002e-05,-0.010104792,-0.011119338,0.0035722628,0.000120438,5.941,0,0
-0.0011859286000000001,-0.012182314,-0.012779604,0.0059051768,0.000560517,5.942,0,0
-0.0023171146,-0.0139542368,-0.011547356,0.007293310000000001,0.0009489920000000001,5.943,0,0
-0.0031619042,-0.013993454800000001,-0.008280238,0.006550032000000001,0.0009083400000000001,5.944,0,0
-0.003423854,-0.008290348800000001,-0.003430198,0.004871114,0.001046337,5.945,0,0
-0.003049084,-0.0042657928,0.002773362,0.00284153,0.0013322654,5.946,0,0
-0.00174959,-0.006270014800000001,0.007004390000000001,0.0003125719999999998,0.0011624120000000003,5.947,0,0
-8.993200000000003e-05,-0.010042266000000001,0.007699392000000001,-0.001561134,0.0008318556,5.948,0,0
0.0010386360000000001,-0.014051178000000001,0.006199086000000001,-0.002142092,0.0007830716,5.949,0,0
0.001957082,-0.017123924000000002,0.0032281480000000006,-0.00251322,0.00045946019999999993,5.95,0,0
0.0028879400000000003,-0.018647040000000004,0.0013814300000000003,-0.0031456640000000003,-0.00013995980000000005,5.951,0,0
0.0027331879999999997,-0.017656404000000004,0.001192946,-0.00364922,-0.0006075904,5.952,0,0
0.001889554,-0.013595000000000001,0.001953446,-0.0039174480000000005,-0.0012064839999999999,5.953,0,0
0.002012102,-0.006341300000000001,0.003421858,-0.0034886456,-0.0013540144800000002,5.954,0,0
0.0024367580000000002,0.00269638,0.004396776000000001,-0.0019876156,-0.00063605048,5.955,0,0
0.0028205220000000002,0.010832060000000001,0.0043101328,-9.103559999999993e-05,-0.00015007687999999992,5.956,0,0
0.0031350120000000004,0.015557124000000002,0.0037636688000000002,0.0010497228000000002,-0.00012539887999999993,5.957,0,0
0.002811012,0.016330522,0.0029639248,0.0010335907999999999,-0.00013228087999999993,5.958,0,0
0.001222138,0.0138582796,0.0024497708000000003,9.944839999999984e-05,-0.0003380554,5.959,0,0
-0.0011642140000000002,0.008428571600000002,0.0014082127999999999,-0.0015538976,-0.0010803434,5.96,0,0
-0.0030147360000000005,0.0030008575999999998,-0.002107006,-0.0032680436,-0.0016588470000000002,5.961,0,0
-0.004517154000000001,-0.0029208424,-0.005329566000000001,-0.0037637340000000004,-0.0013546086000000002,5.962,0,0
-0.005548628000000001,-0.0089155044,-0.005825336,-0.003311427,-0.0009202226,5.963,0,0
-0.005336044000000001,-0.009006074,-0.0055143580000000005,-0.002193063,-0.0008098889999999999,5.964,0,0
-0.0037871037999999994,-0.003629565999999999,-0.004752990000000001,-4.8722999999999865e-05,-0.001040815,5.965,0,0
-0.0022839317999999997,0.00021360799999999968,-0.002229566,0.002131837,-0.0008167006,5.966,0,0
-0.0009226617999999998,0.004000251999999999,-0.0003042940000000001,0.0040138610000000005,-0.0006636596,5.967,0,0
0.0006651924000000001,0.010148334,-0.001086972,0.005872162000000001,-0.0013284856000000001,5.968,0,0
0.001360155,0.011973256,-0.002696756,0.006913356000000001,-0.0015594982,5.969,0,0
0.0008120088,0.008981642,-0.002941684,0.006599300000000001,-0.0011169074000000002,5.97,0,0
-0.00014636120000000003,0.006847122000000001,-0.0016872959999999998,0.005558827400000001,-0.0007280178000000001,5.971,0,0
-0.0005821216000000001,0.006963212,-0.0001602359999999998,0.0037904874000000005,-7.780920000000004e-05,5.972,0,0
-0.0010510358000000001,0.0070282520000000005,0.00231971,0.0014081894000000001,0.0010017308000000002,5.973,0,0
-0.0011441078000000002,0.006473754,0.005575746,-0.0009070605999999999,0.0015127704000000002,5.974,0,0
-0.000605655,0.006585372,0.007888218,-0.0028947646000000004,0.0015938939800000003,5.975,0,0
-0.000393997,0.006830162,0.00919001,-0.004329424,0.0015348839800000003,5.976,0,0
-0.00033268099999999993,0.005925306,0.009261344,-0.005666662,0.00119328598,5.977,0,0
2.4410000000000127e-06,0.003997718,0.007243480000000001,-0.00673787,0.00108396598,5.978,0,0
0.00014460540000000004,0.001455576,0.004074992,-0.006864816,0.00127224638,5.979,0,0
0.0001269784,-0.002107188,0.0016881660000000005,-0.006814036000000001,0.0016245559999999999,5.98,0,0
0.0006572864000000001,-0.006848698,-0.0005615739999999999,-0.005972276000000001,0.001682452,5.981,0,0
0.0010286108000000002,-0.013098896000000002,-0.0026129180000000005,-0.003667746,0.0009802820000000003,5.982,0,0
0.0011861588000000001,-0.01934753,-0.00311478,-0.0013479960000000002,0.00014568999999999997,5.983,0,0
0.0013771658000000001,-0.024706300000000004,-0.0030855980000000006,0.00056167,-0.000717596,5.984,0,0
0.001601626,-0.029158780000000006,-0.003324168,0.0026030520000000002,-0.001439572,5.985,0,0
0.002035822,-0.030206120000000003,-0.0033289860000000004,0.0043822620000000005,-0.0016947112000000003,5.986,0,0
0.00243762,-0.026485888000000006,-0.0033923300000000003,0.004706678000000001,-0.0016195152,5.987,0,0
0.002904686,-0.018911082000000003,-0.004108266,0.00462371,-0.0012326456,5.988,0,0
0.0031557679999999998,-0.008599162,-0.004637856,0.00446281,-0.0007386145,5.989,0,0
0.0028168848,0.004268238000000001,-0.00420969,0.0034142074,-0.0002495421,5.99,0,0
0.0015827528,0.018706778,-0.0032834560000000006,0.0020958221999999994,0.0001146431,5.991,0,0
3.882679999999978e-05,0.030700506000000002,-0.00170509,0.001454341,0.00035796090000000003,5.992,0,0
-0.0010046812,0.035843700000000006,0.0011346840000000002,0.001116072,0.0003309773,5.993,0,0
-0.001387963338,0.03513162,0.0042726280000000005,-7.413800000000001e-05,0.00021367660000000003,5.994,0,0
-0.001428315918,0.03058346,0.00574934,-0.0006382174000000001,-0.0002764098,5.995,0,0
-0.001481225918,0.021293428000000003,0.005899064000000001,-0.0008500792000000002,-0.0008774418,5.996,0,0
-0.001186059918,0.010512388000000001,0.005310896800000001,-0.0015435440000000002,-0.0008995316000000001,5.997,0,0
-0.000951667918,0.002868306000000001,0.0028713488000000004,-0.0017795996000000002,-0.0005612462,5.998,0,0
-0.00121127178,-0.001634276,0.00010823479999999986,-0.0012607540000000002,0.00015410739999999993,5.999,0,0
-0.001739118,-0.005008078000000001,-0.0017790392000000001,-0.0009291440000000001,0.0010083134,6.0,0,0
-0.00185663,-0.006691266,-0.0037384432,-0.0007482410000000001,0.0014957454,6.001,0,0
-0.0015465142000000002,-0.005352626,-0.005350036000000001,0.000625449,0.0015237954000000002,6.002,0,0
-0.0016981382000000001,-0.0031907460000000004,-0.0055735360000000005,0.0017637336,0.0012239386000000001,6.003,0,0
-0.0018700482000000003,-0.002587598,-0.0051398780000000005,0.0026773499999999998,0.0004957090000000001,6.004,0,0
-0.0015106092,-0.003985116,-0.0051264380000000005,0.004533374,-4.760000000000005e-05,6.005,0,0
-0.0009629464000000003,-0.007365736000000001,-0.004003754,0.005669088,-0.00026220466,6.006,0,0
-0.0002936802,-0.012782076000000002,-0.0017273879999999998,0.005125062,-0.00046054466000000003,6.007,0,0
0.0006465658,-0.017878194,-0.000557754,0.00445912,-0.00048104686000000003,6.008,0,0
0.0018051638,-0.01959672,-0.0010317759999999999,0.0037745440000000003,-0.00043524446000000005,6.009,0,0
0.0025975408,-0.017599190000000004,-0.0019032279999999999,0.0016619919999999997,-0.00033789426,6.01,0,0
0.0028268080000000005,-0.012787838000000001,-0.0030498640000000002,-0.001063482,-0.0007074016000000001,6.011,0,0
0.0027108180000000007,-0.005865938000000001,-0.004917786,-0.003091136,-0.0014741736,6.012,0,0
0.002444762,0.003865222,-0.005070974,-0.00490759,-0.001952224,6.013,0,0
0.0020881240000000002,0.013110542000000001,-0.0017101439999999998,-0.007009078000000001,-0.0023066248,6.014,0,0
0.0008740220000000002,0.018262152,0.0022898460000000003,-0.008305192,-0.0023390251000000003,6.015,0,0
-5.70019999999999e-05,0.022058440000000002,0.00479786,-0.00854903,-0.0014420431,6.016,0,0
0.0003430120000000002,0.02412338,0.006845782000000001,-0.009251322,-0.0003353933,6.017,0,0
0.0005045280000000001,0.018648244,0.007332924000000001,-0.009923952,0.00023052290000000013,6.018,0,0
0.0001614006000000002,0.0059088640000000015,0.0050968414,-0.008126143,0.0009140189000000003,6.019,0,0
0.0001324646000000001,-0.005443076,0.0034147054000000002,-0.004951995000000001,0.0014244180000000002,6.02,0,0
-0.00024057739999999988,-0.010710954,0.0035051274000000004,-0.001478661000000001,0.001663468,6.021,0,0
-0.0018468514000000002,-0.010647813999999999,0.0033663254,0.003249859,0.0021311482,6.022,0,0
-0.0033017754,-0.005030518,0.004097879400000001,0.0071836849999999996,0.00252188,6.023,0,0
-0.0037748660000000004,0.005609182,0.005605850000000001,0.008499992,0.0028477579999999997,6.024,0,0
-0.0035080040000000003,0.015131882,0.0058770260000000005,0.008476822,0.00285501,6.025,0,0
-0.0024907908000000004,0.016382916,0.005340952,0.00805719,0.0024105059999999998,6.026,0,0
-0.0012251868,0.010610389999999999,0.004844292000000001,0.006438488000000001,0.0020745,6.027,0,0
0.00039615120000000004,0.00190157,0.003625854,0.0046339738,0.001824842,6.028,0,0
0.0019548791999999997,-0.006915630000000001,0.0015750160000000003,0.0032329290000000003,0.001024812,6.029,0,0
0.0030768192,-0.01422891,-0.0004013659999999999,0.0012029830000000001,0.00020896200000000004,6.03,0,0
0.0035957420000000003,-0.022118946,-0.002288796,-0.0010231270000000002,-0.00042507199999999997,6.031,0,0
0.00341021,-0.03057028,-0.004299474000000001,-0.002776629,-0.001298078,6.032,0,0
0.0025264569999999997,-0.03460518,-0.006147784,-0.0039784647999999995,-0.00197567,6.033,0,0
0.0011740149999999998,-0.031388754,-0.006865692000000001,-0.004553796,-0.002300298,6.034,0,0
0.00017045300000000007,-0.023934374,-0.006719232,-0.004014378799999999,-0.0024589760000000003,6.035,0,0
-0.0006194249999999999,-0.013485013999999997,-0.0055072696,-0.0030275428,-0.002176228,6.036,0,0
-0.001309313,0.0007193060000000003,-0.0020776116000000002,-0.0025235528000000004,-0.0013812800000000004,6.037,0,0
-0.0017757200000000002,0.013078066000000001,0.0019319504,-0.0018062768000000002,-0.0007339416000000001,6.038,0,0
-0.002268866,0.01785472,0.0043023264000000006,-0.00024014080000000007,-2.535220000000001e-05,6.039,0,0
-0.0023675560000000003,0.017506439999999998,0.0051602556,0.001283036,0.0007092498000000001,6.04,0,0
-0.001821538,0.015915656000000004,0.0040603311999999996,0.0028996200000000003,0.000773114,6.041,0,0
-0.0011975358,0.013080478000000003,-0.0018354568,0.005542634,0.0006672434,6.042,0,0
-0.00025391580000000007,0.009414836000000001,-0.009471276800000001,0.007354838,0.0008167826,6.043,0,0
0.0009783202,0.0063731,-0.0115478548,0.006893066,0.0006605096600000001,6.044,0,0
0.0015111662000000005,0.004388837,-0.009879304000000002,0.006047396,0.00013017966000000003,6.045,0,0
0.0010448698000000002,0.0032136196000000002,-0.008204316,0.004988182,-0.00014449453999999999,6.046,0,0
0.0005850876,0.0020700514,-0.0037033779999999994,0.0024044020000000004,-0.00043359494,6.047,0,0
8.375760000000013e-05,0.0016962014,0.002347228,0.00016378400000000037,-0.0008539405400000001,6.048,0,0
-0.0010030924,0.0022861014,0.004245278,-0.0013484080000000002,-0.0007771042000000001,6.049,0,0
-0.0018524624000000002,0.0023999584,0.003059488,-0.0035311939999999997,-0.00038481859999999987,6.05,0,0
-0.0019583860000000003,0.0024159938,0.002385788,-0.0051328300000000006,0.00011506540000000002,6.051,0,0
-0.0011046720000000001,0.002869486,0.0021679068,-0.005710964,0.0009502644000000001,6.052,0,0
7.842799999999964e-05,0.002666258,0.0017451868000000002,-0.006582388,0.0016535264000000001,6.053,0,0
0.001023174,0.0018598119999999998,0.0007344028,-0.00733219,0.0016298498000000001,6.054,0,0
0.0015848670000000002,0.0015525579999999999,0.00031457480000000003,-0.007210492000000001,0.0011849542,6.055,0,0
0.0018401550000000004,0.001014158,0.0010794688000000002,-0.006812612000000001,0.00022127019999999993,6.056,0,0
0.0015980170000000002,2.1826000000000018e-05,0.001993414,-0.006009544000000001,-0.0011034318,6.057,0,0
0.0006772566,-0.000667147,0.0027796920000000003,-0.0042189512,-0.0017284714000000002,6.058,0,0
7.37046e-05,-0.001131005,0.003912884,-0.0017586512,-0.0019366290000000003,6.059,0,0
6.523319999999998e-05,-0.0016824930000000002,0.005187288,0.0002591888000000001,-0.0023151350000000003,6.06,0,0
-1.8533000000000007e-05,-0.002621469,0.005850564000000001,0.0018334548000000003,-0.002073283,6.061,0,0
-0.000538885,-0.003360747,0.005776884,0.0034569248000000004,-0.0013310878,6.062,0,0
-0.0005077308,-0.0037913599999999997,0.0054761060000000005,0.004036162,-0.0009919836,6.063,0,0
7.741319999999999e-05,-0.004156466,0.005040386000000001,0.004084888,-0.0005907921999999998,6.064,0,0
0.00010073939999999997,-0.0035034398,0.0036699543999999997,0.005130554,0.0003223038,6.065,0,0
-0.00015422240000000003,-0.0015300418,0.0015226804,0.005952706,0.0010153558000000002,6.066,0,0
-9.536440000000005e-05,0.00043376420000000007,-0.00046206959999999984,0.005930908,0.0012317186,6.067,0,0
2.1853799999999984e-05,0.0017129642,-0.0024230676000000003,0.006354736000000001,0.001688414,6.068,0,0
-0.00028914720000000003,0.0029360002,-0.0048647516,0.006886224000000001,0.002110402,6.069,0,0
-0.00042068119999999997,0.003498552,-0.006537342,0.006441636000000001,0.002243156,6.07,0,0
9.766260000000002e-05,0.00350449,-0.007495794,0.005083472,0.0022858,6.071,0,0
0.0004716506,0.0033892799999999997,-0.008219442,0.0036102066000000006,0.0019502196000000004,6.072,0,0
0.00015809899999999998,0.0025100359999999998,-0.007871958,0.0018026106000000003,0.0012340462000000002,6.073,0,0
-0.00010238400000000004,0.0013620159999999997,-0.006584626,-0.0015025334000000003,4.040419999999992e-05,6.074,0,0
0.00010925419999999994,0.0007412777999999997,-0.00460343,-0.005020615400000001,-0.0012471157999999999,6.075,0,0
0.0003205624,0.0008140318,-0.002228696,-0.006665933400000001,-0.0018151018,6.076,0,0
0.0002216492,0.0008773358,0.000676398,-0.007182438,-0.0015645013999999997,6.077,0,0
-0.00020950119999999997,0.0004483317999999999,0.00324525,-0.006878208,-0.000932176,6.078,0,0
-0.0006838791999999999,-0.0011005182,0.0040048919999999995,-0.004778948,2.810000000000117e-06,6.079,0,0
-0.0011197111999999999,-0.00338893,0.0037645497999999997,-0.0023476562,0.0007896024000000001,6.08,0,0
-0.0013552031999999998,-0.005033982,0.0035173277999999996,-0.0015698802000000001,0.0008561764000000001,6.081,0,0
-0.00116246,-0.005704234799999999,0.0017223537999999997,-0.0016550862000000001,0.00035371440000000017,6.082,0,0
-0.0007022484,-0.0049847438,-0.0006353562,-0.0019742082,-0.0007663796,6.083,0,0
-0.0006284624,-0.0037766717999999995,-0.0010823372000000001,-0.0027037922,-0.0016447656,6.084,0,0
-0.0011447104,-0.0031957678,-0.0009643594,-0.002502282,-0.001958216,6.085,0,0
-0.0014296162000000002,-0.0024297906,-1.2637399999999724e-05,-0.0014859140000000005,-0.0022602160000000002,6.086,0,0
-0.0009253122,-0.0013313978,0.0027027586,-0.00101595,-0.0023132919999999998,6.087,0,0
0.00027774219999999994,-0.0006687667999999997,0.0045732986,-0.0005822240000000001,-0.0019386716,6.088,0,0
0.0018092922000000002,0.0010407552,0.0048284148,0.0003378312,-0.0010839856,6.089,0,0
0.0032013202,0.0046044152,0.0048956048,0.00039921119999999997,-8.444759999999996e-05,6.09,0,0
0.0037075779999999996,0.007225282,0.0042518368,-0.00011959831999999994,0.0008550884000000001,6.091,0,0
0.0032990259999999996,0.008615506,0.0037118088000000003,0.00045198968,0.0017275163999999998,6.092,0,0
0.0025353200000000006,0.009830894000000001,0.004970194800000001,0.00100175168,0.0024617140000000003,6.093,0,0
0.001900582,0.011218760000000001,0.0074580716,0.0010347704800000002,0.002569392,6.094,0,0
0.0015592676000000002,0.012441976,0.009376508,0.00196210648,0.0021314808,6.095,0,0
0.0007821016000000001,0.009412348000000001,0.009069832,0.003131918,0.001814793,6.096,0,0
-7.947240000000006e-05,0.0025590679999999994,0.005252980000000001,0.003268214,0.0013518924000000003,6.097,0,0
-0.00045383240000000007,-0.0032159680000000005,-0.003904419999999999,0.0038286500000000003,0.0005600064,6.098,0,0
-0.0010178804000000002,-0.008521028,-0.015765220000000003,0.004705348,-0.0004930216,6.099,0,0
-0.0015134640000000002,-0.014060408,-0.024798760000000003,0.00374048,-0.0013603244000000001,6.1,0,0
-0.0012878688,-0.014916058000000001,-0.028738480000000004,0.0020834020000000003,-0.0021896046,6.101,0,0
-0.0012154128000000002,-0.011256318,-0.025126126000000002,0.0007888980000000001,-0.0030344820000000002,6.102,0,0
-0.0017232648000000002,-0.007943022,-0.013653526,-0.0008654219999999999,-0.002876798,6.103,0,0
-0.0020692647999999998,-0.005431552,-0.0009346460000000008,-0.002562392,-0.0018551579999999998,6.104,0,0
-0.0023338528,-0.003448104,0.007903728,-0.003263974,-0.000449456,6.105,0,0
-0.00236712,-0.002980854,0.012984270000000003,-0.003628284,0.001112774,6.106,0,0
-0.0021056044,-0.004136712,0.012662228000000001,-0.003981348,0.002362778,6.107,0,0
-0.0018440564000000003,-0.004635958,0.009258592000000001,-0.0033144508000000003,0.00245125294,6.108,0,0
-0.0012230594000000002,-0.003137028,0.007863512000000001,-0.0023962808,0.0014954969400000002,6.109,0,0
-0.0005493748000000001,-0.001342732,0.007361190000000001,-0.0012595428,0.0003728489399999999,6.11,0,0
-0.00013248880000000002,0.00010974800000000033,0.006795962,0.0010784532000000001,-0.00086950706,6.111,0,0
0.0003781556,0.0025291339999999997,0.006305100000000001,0.0039775672000000005,-0.0016575510600000001,6.112,0,0
0.0009454796,0.005483516000000001,0.005316634000000001,0.005884866000000001,-0.0017435788000000002,6.113,0,0
0.0014248866,0.007330436,0.0038387079999999997,0.007270974,-0.0013025676000000001,6.114,0,0
0.001462444,0.009031512,0.0025061618,0.008292230000000001,-0.0007224358000000001,6.115,0,0
0.0011351982,0.011358300000000002,0.0012565957999999997,0.007836646,-0.00018029800000000004,6.116,0,0
0.0010839202,0.01184408,-1.8662000000001754e-06,0.00619315088,0.000284699,6.117,0,0
0.0010941102,0.009168146000000002,-0.0014333842,0.0039479788799999995,0.0007787378000000001,6.118,0,0
0.0007125502,0.004942372,-0.0040680622,0.0019212588799999999,0.0013006445999999999,6.119,0,0
0.0005533132,3.5001999999999906e-05,-0.006490808000000001,-0.00037385312,0.001232482,6.12,0,0
0.0008739990000000001,-0.005574058,-0.008124476,-0.0025179531200000002,0.0013305742000000002,6.121,0,0
0.0004665922,-0.010869766,-0.009225370000000002,-0.003105366,0.0015565852,6.122,0,0
-0.00022126180000000002,-0.014252904,-0.009634060000000002,-0.003252606,0.0011370091999999999,6.123,0,0
-0.00021810400000000005,-0.016315930000000003,-0.007984128,-0.00405183,0.00057576,6.124,0,0
3.1309599999999996e-05,-0.01588148,-0.00395969,-0.004769874,0.0003549048,6.125,0,0
-8.550440000000006e-05,-0.008832899999999998,0.0008129899999999998,-0.00523178,-0.00021995919999999995,6.126,0,0
-0.00033309560000000004,0.0026246800000000016,0.005879255999999999,-0.006411302000000001,-0.0006481122,6.127,0,0
-0.0002665576,0.0118662,0.008723232,-0.007154650000000001,-0.0002785182,6.128,0,0
-0.0002674504,0.017552420000000003,0.007694845999999999,-0.006533932000000001,6.311499999999998e-05,6.129,0,0
-0.00019561700000000003,0.019375464000000002,0.003847248,-0.005796588,0.000791207,6.13,0,0
-0.00026377314000000006,0.014300360000000002,-0.0011429120000000011,-0.005090608,0.001652947,6.131,0,0
-0.00029964114000000005,0.005525554,-0.005421092000000001,-0.0036435860000000003,0.001669392,6.132,0,0
-1.768800000000055e-06,-0.0007566880000000002,-0.00631837,-0.0024146363999999997,0.0010557399999999999,6.133,0,0
0.00029426219999999996,-0.003267084,-0.003608408,-0.0023346304,0.0006320934,6.134,0,0
0.00039223620000000003,-0.0031048699999999996,0.0011233119999999996,-0.0016339742,0.00024283439999999993,6.135,0,0
0.00064377034,-0.0015871359999999994,0.006174372000000001,-0.0002913301999999999,-0.00036148000000000007,6.136,0,0
0.0015280663400000002,-6.720759999999982e-05,0.010306072,7.899800000000095e-06,-0.000819404,6.137,1,1
0.00204584,0.0004723024,0.013531704000000002,0.0006773942000000001,-0.000961736,6.138,0,0
0.0015598814,0.00035856839999999995,0.011760348000000002,0.0023747182,-0.0010160294,6.139,0,0
0.0007320914000000003,0.00044447640000000005,0.006488808,0.00322925,-0.0013554958,6.14,0,0
-0.00017179460000000017,0.0005397563999999999,0.00308762,0.003596564,-0.0014348568,6.141,0,0
-0.0013687386000000002,-2.839600000000003e-05,-0.0012158280000000002,0.004811002,-0.000763779,6.142,0,0
-0.0024465226,-0.0006085560000000001,-0.007403828000000001,0.005372592000000001,-4.2343000000000025e-05,6.143,0,0
-0.002645886,-0.001744726,-0.011144156,0.004142681400000001,0.00017584907999999998,6.144,0,0
-0.002000051,-0.003821122,-0.012111256,0.0031784448,0.00027588568,6.145,0,0
-0.0011445869999999999,-0.004105638,-0.01199495,0.0024382028,0.00030508087999999995,6.146,0,0
-0.00016722900000000008,-0.0025166760000000007,-0.010368848,0.0007392488000000001,-0.00013021892000000002,6.147,0,0
0.0008051670000000001,-0.0009595819999999998,-0.0067826,-0.0003053692,-0.0009202929200000001,6.148,0,0
0.0011562218,-0.00020249800000000007,-0.0010250119999999998,-4.664600000000023e-06,-0.001315945,6.149,0,0
0.0012123168,-0.0016184280000000003,0.0035968860000000005,0.000426052,-0.0016193002000000002,6.15,0,0
0.0012433108,-0.005293802,0.005447298000000001,0.001138658,-0.0019901859999999997,6.151,0,0
0.0004954348,-0.009046894,0.0069337140000000005,0.0027334180000000005,-0.0018272064000000002,6.152,0,0
-0.0003011452000000001,-0.01134387,0.007328048000000001,0.003741164,-0.0010682224,6.153,0,0
-0.00038696880000000007,-0.011929,0.006466914000000001,0.0035735492,-0.0003866403999999999,6.154,0,0
-0.0007167308000000001,-0.010309984,0.004845706000000001,0.0030341508000000005,0.00014227879999999994,6.155,0,0
-0.0006166068000000001,-0.006635276,0.002218056,0.0023139490000000005,0.0010869248000000002,6.156,0,0
0.0004370532,-0.0023343900000000004,-0.00023358800000000007,0.0006535949999999999,0.0012356262000000002,6.157,0,0
0.0008890026,0.0017171240000000006,-0.002318854,-0.001229667,0.0005270801999999999,6.158,0,0
0.0006294034000000001,0.00646659,-0.003438492,-0.0021898921999999998,0.00023860155399999994,6.159,0,0
0.0003733994,0.010759914,-0.002067696,-0.0030918718,0.000254668754,6.16,0,0
-0.00018495260000000007,0.012787426000000001,0.000516452,-0.003942322,-0.00011038684600000002,6.161,0,0
-0.0010140350000000002,0.01382498,0.0018424000000000001,-0.004066542,-0.000331398646,6.162,0,0
-0.0016170964,0.013357830000000001,0.0022726590000000002,-0.003952528,-0.00033730464600000004,6.163,0,0
-0.0013102064,0.01185139,0.001339383,-0.003890724000000001,-0.00078723,6.164,0,0
-0.0007016403999999999,0.01209077,-0.0014128230000000001,-0.0025242320000000004,-0.0008893148,6.165,0,0
-0.0009591124,0.01334593,-0.003876407,-0.0006991580000000003,-0.0004712592,6.166,0,0
-0.001073212,0.01354609,-0.005621289000000001,0.0001342201999999999,0.0003049096,6.167,0,0
-0.0006530072000000001,0.013641352,-0.00630142,0.0009077982000000001,0.0013514496,6.168,0,0
-0.0008721852000000001,0.010670974000000001,-0.004751946,0.0016333828000000001,0.0023572116000000003,6.169,0,0
-0.0010836113200000002,-0.00019814599999999887,-0.0011189460000000004,0.0007025648,0.0028119,6.17,0,0
-0.00010667932000000006,-0.012717766,0.0030907100000000004,-0.0011545972000000001,0.0023445947999999996,6.171,0,0
0.00149688668,-0.019937066,0.006893218,-0.0014227042,0.0015283608000000001,6.172,0,0
0.00310373388,-0.023431626,0.009939134,-0.0011428962,0.0011880308000000003,6.173,0,0
0.00421909988,-0.021510858,0.010910904,-0.0006072508,0.0011752388000000002,6.174,0,0
0.0043859516,-0.010809918,0.007762416000000001,0.0012480892,0.0007346474000000001,6.175,0,0
0.0036958134,0.0005027220000000006,0.00038117600000000043,0.0030875512,0.00045608260000000006,6.176,0,0
0.0020050754000000004,0.0051397660000000005,-0.006590364,0.0030988596,-0.00021933139999999994,6.177,0,0
0.00018084740000000012,0.005312984000000001,-0.011683504,0.0019927775999999996,-0.0019440074000000001,6.178,0,0
-0.0010732926000000002,0.0011655940000000007,-0.016123948,0.0017236255999999999,-0.0031333894,6.179,0,0
-0.0017209442000000001,-0.005883586,-0.015403410000000001,0.0019347096000000002,-0.00296134,6.18,0,0
-0.0015537840000000003,-0.010702086,-0.008849870000000001,0.0024690596,-0.00197745,6.181,0,0
-0.00113853834,-0.0111322358,-0.0023615300000000006,0.0037607460000000006,-0.0005861979999999999,6.182,0,0
-0.00056904434,-0.008678327799999998,0.002942689999999999,0.00470669,0.000841404,6.183,0,0
0.00049207766,-0.003975493799999999,0.008093608,0.0036429360000000003,0.0016752508,6.184,0,0
0.0013725616600000002,0.0017290662000000003,0.009294783999999999,0.0009427480000000004,0.0016057538000000002,6.185,0,0
0.00060053166,0.0032462542000000006,0.0064799939999999985,-0.00183171,0.0011597878,6.186,0,0
-0.0005766519999999998,-0.00010680000000000021,0.005384414,-0.004182076,0.0011352678000000002,6.187,0,0
-0.0009808007999999998,-0.0028504920000000005,0.0076442540000000005,-0.0054982500000000005,0.0009807438,6.188,0,0
-0.0019485308,-0.004507904,0.011711856,-0.005624456000000001,0.00039997500000000006,6.189,0,0
-0.0024741824,-0.006538375999999999,0.01722341,-0.005860438000000001,9.210080000000002e-05,6.19,0,0
-0.0009526363999999998,-0.003694264,0.02185932,-0.006054884000000001,-0.00018215909999999994,6.191,0,0
0.0010373896,0.004963496,0.020449837600000006,-0.005291664000000001,-0.0006158744999999999,6.192,0,0
0.0018437184,0.013709450000000001,0.010060857600000002,-0.004705728000000001,-0.0005593848999999999,6.193,0,0
0.001980139,0.021778428000000002,-0.006679582400000002,-0.004395988,-0.00041515090000000007,6.194,0,0
0.0011073166,0.0281221,-0.0220296824,-0.002660528,-0.0005125797,6.195,0,0
-0.0005063614,0.025398258,-0.029403982400000004,-0.00014746599999999974,-0.0005032246,6.196,0,0
-0.0017149174,0.013109417999999998,-0.028449680000000005,0.0017301220000000004,-0.000480581,6.197,0,0
-0.0024972769999999996,8.681800000000066e-05,-0.020586840000000002,0.004231016,-0.0006472486,6.198,0,0
-0.0025691335999999997,-0.010923062,-0.007838326,0.0071690799999999996,-0.0007973946000000001,6.199,0,0
-0.0020415616,-0.019752682,0.0026669480000000006,0.00878399,-0.0003872982,6.2,0,0
-0.0018558736000000003,-0.021229220000000004,0.005239568,0.00909068,-3.981140000000003e-05,6.201,0,0
-0.0023500036000000005,-0.013682198000000001,0.002049768,0.009065522,0.0001659004,6.202,0,0
-0.0028002500000000007,-0.004449998,-0.0027154319999999994,0.008259082000000001,0.0008643384,6.203,0,0
-0.0026499184000000004,0.0004653960000000003,-0.005935702,0.005518598,0.0013325152000000001,6.204,0,0
-0.0020882481999999996,0.002552808,-0.007195668,0.0028652600000000005,0.0008989268,6.205,0,0
-0.0009406782000000002,0.001876188,-0.006842729999999999,0.0006265820000000002,0.0003084888,6.206,0,0
0.0006743418,-0.0028026740000000007,-0.004480245599999999,-0.002717904,-0.00047966120000000006,6.207,0,0
0.0018590257999999999,-0.009515794000000001,-0.0018981872000000002,-0.005670658,-0.0016093172000000002,6.208,0,0
0.0023734142,-0.014058588,-0.0007861680000000001,-0.007427414,-0.002112736,6.209,0,0
0.0029346360000000004,-0.015431080000000002,0.000220328,-0.009042974,-0.0023572660000000002,6.21,0,0
0.0035065620000000004,-0.014651978000000001,0.00280431,-0.009963538000000001,-0.0023284906,6.211,0,0
0.003466928,-0.012569878000000001,0.0056368856000000005,-0.008357098000000002,-0.0015369226,6.212,0,0
0.0032638240000000002,-0.010514908,0.0088257872,-0.005594689999999999,-0.00032254659999999993,6.213,0,0
0.0029820268,-0.0053387880000000006,0.012778764000000001,-0.0029975559999999993,0.0009308754,6.214,0,0
0.0021147460000000002,0.005303312000000001,0.015187400000000002,-0.00042239999999999964,0.0019414674,6.215,0,0
0.0005561319999999999,0.01838301,0.01537678,0.0015832160000000001,0.002340298,6.216,0,0
-0.0005485740000000001,0.029411390000000003,0.014707300000000001,0.002334344,0.0021799256000000003,6.217,0,0
-0.0009702908000000001,0.03715574,0.012838122,0.001785852,0.0017840644000000003,6.218,0,0
-0.0011684136,0.0402492,0.00876481,0.0014818098,0.0009151428,6.219,0,0
-0.0008018992,0.036070700000000004,0.004001366000000001,0.001167965,0.00035024000000000003,6.22,0,0
-0.00046876960000000005,0.02764114,-0.0004557539999999994,0.0009274752000000002,0.000490188,6.221,0,0
-0.0007152316,0.017757924,-0.0057226740000000005,0.0014005612,0.0006121304,6.222,0,0
-0.0013709668000000002,0.005518384000000001,-0.010936396000000001,0.0020805252000000002,0.0007043916000000001,6.223,0,0
-0.0016901208,-0.007126596000000001,-0.014022144000000002,0.0026867014000000002,0.0009559652000000001,6.224,0,0
-0.0018159486,-0.016450196,-0.015493740000000002,0.0034358742000000003,0.0011834618,6.225,0,0
-0.0015346986,-0.022305456,-0.013495600800000002,0.0038999900000000003,0.0010705378,6.226,0,0
-0.0004457426000000001,-0.02400864,-0.007446380800000003,0.00265345,0.0008760538000000001,6.227,0,0
0.0006392194,-0.01993563,-0.0018043448000000003,0.000747828,0.000772223,6.228,0,0
0.0012449914000000001,-0.013559546,0.0027697312,-0.0005967000000000001,0.0004338988,6.229,0,0
0.0013132178,-0.009530022000000003,0.0066374052,-0.002027758,-0.00016974300000000009,6.23,0,0
0.0010883632000000002,-0.0075746680000000005,0.0054797579999999995,-0.0030512020000000003,-0.000972815,6.231,0,0
0.0005125266000000001,-0.006093348,-0.0014051220000000004,-0.0026204258000000007,-0.0017461350000000002,6.232,0,0
-0.00027505939999999994,-0.005222236000000001,-0.005752098000000001,-0.0016463190000000003,-0.0021471782,6.233,0,0
-0.0010831774,-0.004698682,-0.0040308140000000015,-0.0009058514,-0.0021087394,6.234,0,0
-0.0016894715999999999,-0.0037922180000000004,-0.0013244280000000012,0.00016395460000000005,-0.0021847734000000002,6.235,0,0
-0.0017024366,-0.0033539640000000005,0.0009585419999999991,0.0013002226000000002,-0.0023198914000000003,6.236,0,0
-0.0011910299999999998,-0.005091044000000001,0.004737658,0.0016602424000000003,-0.0021581514,6.237,0,0
-0.0002489799999999999,-0.008522486000000001,0.006651006,0.0021393436,-0.0021371454,6.238,0,0
0.000799166,-0.012176644,0.0038489576,0.002918744,-0.0019424128,6.239,0,0
0.001956764,-0.015113592000000002,0.0018253316000000001,0.0025808520000000002,-0.0012943228,6.24,0,0
0.002560728,-0.015877718000000002,0.0028628096000000002,0.0018881782000000002,-0.00045870380000000003,6.241,0,0
0.0021113422,-0.012549829999999998,0.0050674936,0.0016735742,0.00018104320000000005,6.242,0,0
0.0016148532,-0.006195762,0.0074537756,0.0008979322,0.0005347214,6.243,0,0
0.0012107168,0.0027003179999999993,0.007865770000000001,-0.0007164278,0.0007772861999999999,6.244,0,0
0.0008091188,0.013423578,0.004115876000000001,-0.0012267938,0.0008335242,6.245,0,0
0.0003814242,0.021989256,-0.002671884,-0.0009153379999999999,0.0009706112000000001,6.246,0,0
7.211399999999997e-05,0.026089768,-0.006668406,-0.0014018779999999998,0.0014586602000000001,6.247,0,0
-3.1484600000000054e-05,0.024919726,-0.006840584,-0.0019746019999999998,0.0018669959999999999,6.248,0,0
-0.0002593334000000001,0.019294896,-0.005639262000000001,-0.001957218,0.0018555759999999998,6.249,0,0
-0.000415743,0.011106142,-0.001832762,-0.0019922580000000002,0.001731788,6.25,0,0
-0.0003305462000000001,0.0033133520000000003,0.0047955260000000005,-0.0029293020000000004,0.001130618,6.251,0,0
1.5167599999999973e-05,-0.0012700626000000002,0.00741519,-0.00333802,0.0001616339999999999,6.252,0,0
0.00019848039999999998,-0.0017933918000000001,0.00408357,-0.002806852,-0.00048140960000000007,6.253,0,0
-0.0001797284,-9.590979999999998e-05,0.0009988540000000004,-0.001744686,-0.0010509236,6.254,0,0
-0.0009922248000000002,0.0033641842,-0.001729044,-0.00024315399999999998,-0.0012656170000000001,6.255,0,0
-0.0014241570000000001,0.0098153942,-0.005269492,0.001541532,-0.0007422836,6.256,0,0
-0.0013146878,0.0167671088,-0.008560414,0.0028983439999999997,-0.00041076400000000004,6.257,0,0
-0.0013351326000000001,0.021262552000000004,-0.010763146000000001,0.0030782298,-0.0005259664,6.258,0,0
-0.0010308796,0.018453308,-0.011469397999999999,0.0028606636000000005,-0.0004488676,6.259,0,0
-0.00021292680000000003,0.006843488000000002,-0.008774134,0.0015403456000000002,-0.00041299919999999995,6.26,0,0
0.00012150857999999998,-0.007758171999999999,-0.004628873999999998,-0.00021202439999999992,-0.0007522614,6.261,0,0
-0.00036741442000000005,-0.020135392000000002,-0.0017748785999999997,-0.0014289244,-0.0007227408,6.262,0,0
-0.00142566882,-0.028089892000000005,0.0032675554000000002,-0.0019286961999999998,-0.00015045480000000006,6.263,0,0
-0.00179543982,-0.02735316,0.007630255400000001,-0.003720606,0.00018196339999999997,6.264,0,0
-0.00097034862,-0.016634620000000003,0.007917549400000001,-0.0047628440000000005,0.00031548799999999994,6.265,0,0
-0.000756074,-0.006061058000000001,0.006198283400000001,-0.0015949180000000003,0.0010098388000000002,6.266,0,0
-0.000765214,0.0005249199999999999,0.0043691780000000005,0.002572582,0.0019728786,6.267,0,0
7.156220000000004e-05,0.005282394,0.0011044040000000002,0.0069344720000000006,0.0022025506000000004,6.268,0,0
0.00041988820000000006,0.006094486,-0.0034988960000000005,0.011002109999999999,0.0022377796000000007,6.269,0,0
3.5106200000000094e-05,0.0027319000000000006,-0.006683322,0.012828389999999999,0.0018928160000000003,6.27,0,0
0.0003545042,-0.004564622,-0.008047878,0.011319428000000001,0.0007508160000000003,6.271,0,0
0.0008997138000000001,-0.01398594,-0.005973652,0.008063714,-0.00032636199999999996,6.272,0,0
0.0013272156,-0.020359834,-0.001723292,0.003953426,-0.0008230274,6.273,0,0
0.0020281056000000003,-0.021776796,0.002659448,0.000451012,-0.0008080574,6.274,0,0
0.0017839456,-0.0205285452,0.005937006,-0.0017683199999999999,-0.0003405492,6.275,0,0
0.0007447136,-0.0141808372,0.007843490000000002,-0.005377098,0.0001843204,6.276,0,0
-0.00037881600000000024,-0.0045047512000000005,0.008715664000000001,-0.008684964,0.00013156839999999996,6.277,0,0
-0.0014924460000000001,0.0022757128000000003,0.008473370000000001,-0.010613236000000002,-6.617960000000005e-05,6.278,0,0
-0.0024869740000000003,0.0055237328,0.008047092000000002,-0.011175648,-0.00033798620000000004,6.279,0,0
-0.0030397140000000002,0.006581762,0.0062667048,-0.009717846,-0.0001723864,6.28,0,0
-0.00254159654,0.008143174,0.0036248288000000012,-0.006558156000000001,0.0007354799999999999,6.281,0,0
-0.0008210325400000002,0.010090088,0.0006205088000000004,-0.00304184,0.001370628,6.282,0,0
0.00104263946,0.011241944,-0.0029966192,-0.0002874640000000001,0.0014543818,6.283,0,0
0.00198563946,0.012765493999999999,-0.0063368412,0.001845648,0.0017211983999999999,6.284,0,0
0.00256009346,0.01479312,-0.008125024000000002,0.001912924,0.001567595,6.285,0,0
0.0027497634000000003,0.0151879,-0.007840206,-9.582799999999984e-05,0.0005173350000000001,6.286,0,0
0.0021061960000000003,0.013761355999999999,-0.006682808,-0.001938498,-0.00019662899999999998,6.287,0,0
0.001282074,0.012289538000000001,-0.00550388,-0.0029164720000000002,-0.0005347514000000001,6.288,0,0
0.0010381000000000001,0.009839970000000002,-0.0036041219999999995,-0.003994898,-0.0012542174,6.289,0,0
0.0009574200000000001,0.005730228,0.00022861600000000006,-0.00484097,-0.0019254100000000002,6.29,0,0
0.000826655,0.001199376,0.004559812000000001,-0.004344206000000001,-0.0018746376000000004,6.291,0,0
0.0005964049999999999,-0.00327388,0.009007284,-0.003908666000000001,-0.0017479216000000004,6.292,0,0
0.0002557072,-0.007733542,0.014710718000000001,-0.004389696,-0.0017215416,6.293,0,0
-0.00010208780000000003,-0.010551294,0.019025240000000002,-0.004122022,-0.0016015976,6.294,0,0
-0.0005294658000000001,-0.010894656,0.0189758,-0.0022477620000000004,-0.0012289168,6.295,0,0
-0.0005038378,-0.0091655668,0.01486458,-0.00012965000000000003,-0.0010465656,6.296,0,0
-0.0002940562,-0.0053045728,0.005281220000000001,0.0023536300000000002,-0.0008962995999999999,6.297,0,0
-0.000351724,-0.0004160608000000005,-0.011149620000000002,0.006027478,0.00018124040000000007,6.298,0,0
-0.0006111650000000001,0.0034448072000000003,-0.0258554,0.009381264,0.0013314084000000002,6.299,0,0
-0.000838545,0.0065259792,-0.03252336,0.01167264,0.0014420716,6.3,0,0
-0.0011882134,0.009164322,-0.035387600000000005,0.012938626,0.001121708,6.301,0,0
-0.0013102066,0.009907220000000001,-0.0321692,0.01293941,0.0011784476000000002,6.302,0,0
-0.000882915,0.009114926000000002,-0.020189928,0.011174758000000002,0.0004368022000000001,6.303,0,0
-0.0005407917999999999,0.007660645800000001,-0.008671362000000002,0.0081915074,-0.0005427838000000001,6.304,0,0
-0.0003557238,0.004920879800000001,-0.0019940819999999995,0.004433577400000001,-0.0006303574000000001,6.305,0,0
-0.00024704619999999997,0.000379989800000001,0.004828418000000001,-0.0002642425999999998,-0.0007727634,6.306,0,0
-0.00022336319999999998,-0.0044264822,0.011556538,-0.0045031126,-0.0012089969999999998,6.307,0,0
-0.0003810422,-0.0077844002,0.016005606,-0.007709140600000001,-0.0013714475999999998,6.308,0,0
9.260060000000007e-05,-0.009302222,0.019649060000000003,-0.010457010000000001,-0.0014880376000000002,6.309,0,0
0.0010316286,-0.010250368,0.021736600000000002,-0.01175802,-0.0016919860000000001,6.31,0,0
0.001096979,-0.010161964,0.021290700000000003,-0.010063945999999999,-0.0012416269800000002,6.311,0,0
0.0005215170000000002,-0.007783226,0.01970234,-0.006827783999999999,-0.00049238698,6.312,0,0
0.00027913440000000014,-0.006624756,0.01755806,-0.0029580780000000003,-7.687358000000005e-05,6.313,0,0
0.0003346143999999999,-0.009353862000000001,0.014595760000000001,0.002204002,0.0005021504200000001,6.314,0,0
4.3352400000000056e-05,-0.012315078,0.010810176000000001,0.006768682,0.0014090844200000002,6.315,0,0
0.0006937624,-0.013531152000000001,0.007223734,0.009065784,0.0019347154000000002,6.316,0,0
0.0019899564000000003,-0.014676288000000003,0.0016359540000000007,0.009213658000000001,0.0021302174000000004,6.317,0,0
0.002096044,-0.013547979,-0.006965446,0.007995534,0.00224525,6.318,0,0
0.0014979344000000004,-0.008527297000000001,-0.012262986000000002,0.005810364000000001,0.0020813190000000003,6.319,0,0
0.0009814696,-0.0023240430000000005,-0.013651376000000002,0.0028545660000000002,0.0013757482000000003,6.32,0,0
7.392959999999996e-05,0.003111237,-0.015380574000000001,0.0001055959999999999,0.00025211419999999997,6.321,0,0
-0.0011010824000000001,0.010477395,-0.014800854000000002,-0.0023833780000000002,-0.0008252058,6.322,0,0
-0.0017065764000000001,0.020797056,-0.009923380000000002,-0.00519298,-0.0017913878,6.323,0,0
-0.0023739908,0.029757774,-0.0064496580000000005,-0.00771845,-0.0027033868,6.324,0,0
-0.002780008,0.03367462,-0.004973466000000001,-0.008856774000000001,-0.003063744,6.325,0,0
-0.0024594686,0.032412562000000006,-0.0008127980000000004,-0.008921152,-0.0026986140000000002,6.326,0,0
-0.0016194885999999999,0.025791458,0.0034768540000000006,-0.007563730000000001,-0.002235136,6.327,0,0
-0.0005086106000000001,0.01363581,0.004783238,-0.004270436,-0.0012708020000000001,6.328,0,0
0.00028731419999999985,0.000747030000000001,0.004090932000000001,-0.0008878000000000004,0.000120276,6.329,0,0
0.0007052158,-0.00713975,0.002002116,0.001750788,0.001097292,6.33,0,0
0.00045263239999999993,-0.009151406,-0.0013889360000000001,0.003975090000000001,0.001693506,6.331,0,0
-9.995760000000006e-05,-0.008753743999999999,-0.0044541680000000005,0.0054295520000000016,0.0022116320000000003,6.332,0,0
-0.0002204715999999999,-0.007748002,-0.005540136000000001,0.005493978,0.002191864,6.333,0,0
9.905160000000005e-05,-0.0060866720000000004,-0.0052948624,0.004601640000000001,0.0017329937999999998,6.334,0,0
-0.00011567799999999992,-0.005206618,-0.0041060564,0.003745704,0.0014220578000000003,6.335,0,0
-0.00014661199999999996,-0.006021592000000001,-0.0019168904000000002,0.0027550422,0.0007111198000000001,6.336,0,0
0.0003882120000000001,-0.0069101760000000005,0.00011546560000000002,0.0011098242000000002,-0.0002530922000000001,6.337,0,0
0.00010139060000000003,-0.00697225,0.0016520316,-0.0009830398,-0.0004378782,6.338,0,0
-0.00013772579999999997,-0.006981860000000001,0.00330532,-0.0026240638,-0.00028478199999999997,6.339,0,0
0.0007096482000000001,-0.006509348,0.005160146,-0.0037454878000000003,-0.000536914,6.34,0,0
0.0014261282,-0.0048912472000000005,0.006140032,-0.004144114,0.00013871200000000004,6.341,0,0
0.0012588358,-0.0033371772000000003,0.006225122,-0.0035983764000000005,0.00107171,6.342,0,0
0.0009775264000000002,-0.0028935752000000003,0.006338107999999999,-0.0028120624000000007,0.0010857958000000001,6.343,0,0
0.00013098480000000017,-0.0025123032,0.005269736,-0.0013696476,0.0011695978000000001,6.344,0,0
-0.0012211572,-0.0028962572000000002,0.002897218,0.0005366584,0.0013829336000000002,6.345,0,0
-0.0017827738,-0.00492893,0.0012289780000000004,0.0015801644,0.0013689556,6.346,0,0
-0.0014807754,-0.0067698,0.000473726,0.0022072948,0.0012394816,6.347,0,0
-0.0009255425999999999,-0.005608734000000001,-0.0005175205999999999,0.0033925308000000006,0.0010226988000000003,6.348,0,0
0.0001502114,-0.0019560260000000005,-0.00048753459999999996,0.0036829840000000003,0.00042108879999999997,6.349,0,0
0.0016399034,0.002055922,0.0008798054000000001,0.00235727,-0.00014867700000000005,6.35,0,0
0.0026724039999999998,0.006603182000000001,0.0017207574,0.001164698,-0.0012917010000000001,6.351,0,0
0.0029470460000000005,0.010306708000000001,-0.0006298765999999999,0.0003686446,-0.002735215,6.352,0,0
0.0026951874,0.010422846,-0.005622532,-0.00025069339999999994,-0.002970458,6.353,0,0
0.0018818554000000001,0.0076043502,-0.008417824,2.178460000000005e-05,-0.0023861180000000004,6.354,0,0
0.0006448774000000001,0.0038335482,-0.008609386,0.0007369946000000001,-0.001640186,6.355,0,0
-0.0003057198,-0.0013772317999999999,-0.008234886,0.0007441326,-0.0004692439999999997,6.356,0,0
-0.0013041138,-0.006337071800000001,-0.005759518,-3.4799999999998244e-06,0.0009742320000000001,6.357,0,0
-0.0019785052000000003,-0.009428817800000001,-0.0004673459999999998,-0.001297384,0.0011521112000000002,6.358,0,0
-0.0016091322,-0.012114262,0.0032001380000000004,-0.003247588,0.0003986452,6.359,0,0
-0.0012980462,-0.013964440000000002,0.0043819340000000005,-0.0053001720000000006,-0.00025028280000000006,6.36,0,0
-0.001987063,-0.013990020000000002,0.00538952,-0.006001276,-0.0009008867999999999,6.361,0,0
-0.0027919629999999997,-0.013186720000000002,0.006830074,-0.0047917920000000004,-0.0011367436,6.362,0,0
-0.0030693130000000006,-0.010266206,0.008158958000000001,-0.0018376060000000003,-0.0005507448,6.363,0,0
-0.0028349126000000004,-0.002620166,0.00731724,0.0026968179999999993,0.00045017720000000013,6.364,0,0
-0.0022895266000000003,0.006997813999999999,0.004693762000000001,0.006632794,0.0012308892000000003,6.365,0,0
-0.0016689508,0.015075494,-0.0009406839999999998,0.00825642,0.0018106352000000002,6.366,0,0
-0.0006716852000000001,0.020219874,-0.009846006000000001,0.008152274,0.0018449810000000003,6.367,0,0
0.0005312488000000001,0.021804360000000002,-0.016129762,0.0063411933999999994,0.0011365970000000005,6.368,0,0
0.0015989534,0.02057638,-0.015625583999999998,0.0024755434,0.0003513250000000001,6.369,0,0
0.0024305934,0.01812826,-0.012106216,-0.0011026565999999998,-0.00023261139999999995,6.37,0,0
0.0034567276000000004,0.01678346,-0.006513448000000001,-0.0029737066,-0.0008300134,6.371,0,0
0.0042924420000000005,0.01696268,0.003336052000000001,-0.0048225486000000005,-0.001116776,6.372,0,0
0.004276318,0.0182147,0.010661972,-0.007055377999999999,-0.0008072558,6.373,0,0
0.0037358360000000006,0.01760582,0.012285968000000001,-0.008280586000000001,-0.0005880222399999999,6.374,0,0
0.0032589200000000002,0.012740318,0.011817872000000002,-0.008134748,-0.00030419123999999995,6.375,0,0
0.0029808200000000003,0.006319638000000001,0.0100801814,-0.00781304,0.00054774076,6.376,0,0
0.002534644,-0.0017991620000000009,0.0070307994,-0.006553682,0.00122390036,6.377,0,0
0.0017719360000000002,-0.013116502,0.0040593088000000005,-0.0031968580000000003,0.0016386901600000002,6.378,0,0
0.0005849540000000003,-0.022885822,0.0009685028,0.0009220600000000002,0.0021390186,6.379,0,0
-0.000657086,-0.03106694,-0.0012203712000000001,0.004809482,0.002582958,6.38,0,0
-0.002062566,-0.04090606,0.0009636514,0.008650228,0.0024915140000000002,6.381,0,0
-0.0034214920000000004,-0.04389162,0.0035162533999999997,0.011221184000000002,0.0019778426,6.382,0,0
-0.0037414960000000004,-0.03911632,0.002746546,0.011469057999999999,0.0013047366,6.383,0,0
-0.00382657,-0.03541844,-0.0006379480000000006,0.010139282,-2.0861399999999976e-05,6.384,0,0
-0.004292440000000001,-0.028513599999999997,-0.0053912180000000014,0.007635796000000001,-0.0014480034,6.385,0,0
-0.003847724,-0.016503234,-0.008958520000000001,0.004141626,-0.0023052434,6.386,0,0
-0.0024882700000000003,-0.00783467,-0.010481782,0.0010266500000000003,-0.002865944,6.387,0,0
-0.001483758,-0.00245173,-0.009683511799999999,-0.000754676,-0.0026790944,6.388,0,0
-0.000328378,0.004372050000000001,-0.005788066380000002,-0.0023505540000000004,-0.0013105164,6.389,0,0
0.0008966992,0.01406505,-0.0008359729800000002,-0.0037848480000000004,3.8651599999999994e-05,6.39,0,0
0.00037368920000000003,0.025402024000000002,0.0002371810199999999,-0.004640392,0.0006262609999999999,6.391,0,0
-0.0008647508000000001,0.03261018,-0.00078660298,-0.005762968,0.0008079109999999999,6.392,0,0
-0.0014005248,0.033985600000000005,-0.00069140998,-0.007256292,0.00033893339999999995,6.393,0,0
-0.0018999708000000002,0.03273538,-0.0001072674,-0.00809328,-0.0006505166000000001,6.394,0,0
-0.0017059120000000002,0.02829644,0.0015766432,-0.0078283,-0.0015230566,6.395,0,0
-0.00010438800000000007,0.02157316,0.0043247312,-0.006794772,-0.002171942,6.396,0,0
0.001668792,0.01880758,0.0066173972,-0.004922068000000001,-0.0021817,6.397,0,0
0.002466086,0.02052266,0.008292543999999999,-0.0023069939999999997,-0.001931244,6.398,0,0
0.0029762940000000004,0.021972000000000002,0.010027836000000002,0.00022359599999999995,-0.001744098,6.399,0,0
0.0031997220000000003,0.02108012,0.009273014000000001,0.001600506,-0.0012563556,6.4,0,0
0.0030481620000000005,0.017006373600000003,0.005290728000000001,0.00283409,-0.0007949755999999999,6.401,0,0
0.0030798680000000004,0.0098362876,0.0002914479999999997,0.003597562,-0.00032267680000000004,6.402,0,0
0.002801496000000001,0.0009245275999999994,-0.004774984000000001,0.002858091,0.0001987272,6.403,0,0
0.0017758580000000004,-0.0096858124,-0.009250444000000002,0.002574893,0.00046893184000000007,6.404,0,0
0.00033189799999999996,-0.0228921124,-0.011707600000000002,0.0030282929999999996,0.0003614402400000001,6.405,0,0
-0.001024542,-0.034882486000000004,-0.012010964000000002,0.0027426429999999995,0.0003858969000000001,6.406,0,0
-0.0024794300000000003,-0.041154880000000005,-0.010694606,0.002552149,0.00041499690000000003,6.407,0,0
-0.003087116,-0.04153054,-0.008043910000000001,0.00319488,0.0002183895,6.408,0,0
-0.0025173568,-0.035916368,-0.005412724,0.0029104520000000004,0.00029978106,6.409,0,0
-0.0013576408,-0.024258298000000005,-0.002760392,0.00201043598,0.0006844322600000001,6.41,0,0
0.0005504751999999999,-0.009597917999999997,0.0007651260000000001,0.0018039099800000002,0.0010090036,6.411,0,0
0.0020889211999999997,0.003575502000000001,0.005374808,0.0013863317800000003,0.0009901826,6.412,0,0
0.0028027212000000003,0.012299422,0.008958712,0.00014701577999999993,0.0009536000000000001,6.413,0,0
0.0026270682,0.017086050000000002,0.01022578,-0.0007996342200000001,0.0008852732000000002,6.414,0,0
0.0009538582,0.019535820000000002,0.009025744,-0.0011637542000000002,0.0005069614,6.415,0,0
-0.0013444218000000002,0.01730545,0.00552713,-0.0019179782000000004,0.00018079172000000002,6.416,0,0
-0.0027796838000000005,0.010360296000000003,0.0029383299999999994,-0.002320186,4.615832000000001e-05,6.417,0,0
-0.0031919996000000003,0.003323336,0.0018046960000000004,-0.001732783,-2.219748000000001e-05,6.418,0,0
-0.0026471618,-0.0026246439999999998,0.0015151040000000002,-0.0011604792000000001,0.00015408912000000003,6.419,0,0
-0.0013340298,-0.008137444,0.0033136120000000005,-0.0005112332,0.00038456892000000007,6.42,0,0
-0.0005462238,-0.009753772,0.005597276,0.0011877348,0.0007192526000000001,6.421,0,0
-0.0001393532,-0.007514102000000001,0.005848422000000001,0.0027214828,0.0009967502,6.422,0,0
3.159419999999998e-05,-0.0038010080000000003,0.005050452,0.0031919758,0.0008865065999999999,6.423,0,0
-0.00039790140000000007,0.0042132720000000005,0.004162104000000001,0.0037946000000000004,0.0008021398000000001,6.424,0,0
-0.0005265434000000001,0.013301572000000001,0.0018496700000000003,0.004329227999999999,0.0006957224,6.425,0,0
-0.00029468200000000005,0.01727031,-0.0018546080000000002,0.0034984480000000004,0.0002701614,6.426,0,0
-0.00037178920000000004,0.01773949,-0.005216734000000001,0.0023838918,-0.00019018860000000003,6.427,0,0
-0.0005978136000000001,0.015564486,-0.007732378000000001,0.001805433,-0.0006696252000000001,6.428,0,0
-0.0003227920000000001,0.007619186000000002,-0.00927623,0.00037750100000000014,-0.0015277664,6.429,0,0
0.00033581999999999997,-0.0022333739999999998,-0.00884686,-0.0007407210000000001,-0.002016527,6.43,0,0
0.0008845386,-0.007026892,-0.006599016000000001,-0.000429011,-0.0017839458000000002,6.431,0,0
0.0014693492,-0.0076421779999999995,-0.004351284,-0.0007147248000000001,-0.0012828198,6.432,0,0
0.0019960900000000003,-0.00670127,-0.0024437440000000003,-0.0022354000000000002,-0.0007403590000000001,6.433,0,0
0.002105546,-0.0040116959999999995,-0.0002553620000000001,-0.0037322680000000004,-0.0007357189999999999,6.434,0,0
0.001973738,-0.0006456303999999998,0.002348272,-0.005432924,-0.001151307,6.435,0,0
0.00157943508,0.0007879715999999999,0.005910108000000001,-0.007046978,-0.0010353851999999998,6.436,0,0
0.0011253630800000002,0.00017221960000000003,0.008953616000000001,-0.007261542,-0.0005229371999999999,6.437,0,0
0.00122951708,-0.0009968064,0.010387294000000002,-0.006123000000000001,-0.00014169199999999985,6.438,0,0
0.0016301770800000001,-0.0028457784000000003,0.010208204,-0.0034892020000000007,0.0005689706000000001,6.439,0,0
0.0012641510800000001,-0.005052944,0.006199672,-9.179000000000023e-05,0.0014797194000000001,6.44,0,0
0.00041125800000000007,-0.005531380000000001,-0.0036453079999999994,0.002439322,0.0017178114000000002,6.441,0,0
-0.00019372600000000008,-0.0048156380000000006,-0.014491527999999998,0.00390347,0.0012959214000000001,6.442,0,0
-0.0011230160000000001,-0.004951086,-0.018496977999999997,0.004623054,0.0011855432000000001,6.443,0,0
-0.0020227480000000004,-0.004993457999999999,-0.016989412,0.0045544900000000004,0.0014098866,6.444,0,0
-0.0018820552000000004,-0.003930552,-0.013570852,0.003552904,0.0014226174,6.445,0,0
-0.0008890308,-0.003423292,-0.005986653999999999,0.0015647560000000003,0.0010336902000000002,6.446,0,0
-5.735479999999997e-05,-0.0036118039999999997,0.0022541256000000007,-0.0001399560000000001,0.00042220420000000015,6.447,0,0
0.00015409920000000003,-0.0026552128,0.003387357599999999,-0.0010107900000000001,4.630279999999999e-05,6.448,0,0
-3.4112799999999935e-05,-0.0012483518000000002,-0.00033444439999999985,-0.0021076640000000004,-0.00021994679999999997,6.449,0,0
-0.0005449136,-0.0010283298,-0.0026033184000000004,-0.0035087200000000003,-0.00044164179999999994,6.45,0,0
-0.0014941860000000002,-0.0020184278,-0.0030437508000000003,-0.00503128,-0.0005842452,6.451,0,0
-0.002125474,-0.0023068318000000003,-0.0009194104000000004,-0.006815234,-0.0007258952,6.452,0,0
-0.00116606,-0.0014722230000000004,0.0048776176,-0.008003429999999999,-0.0006587186000000001,6.453,0,0
0.000648548,-0.0007611740000000003,0.0112940796,-0.0073609104,6.6821e-05,6.454,0,0
0.0019249860000000003,0.0010819319999999999,0.017662845599999998,-0.0051047504,0.0009658104,6.455,0,0
0.0029050846000000003,0.003453536,0.022765360000000002,-0.0014605144000000008,0.0015149349999999998,6.456,0,0
0.0033212836400000004,0.004506623999999999,0.022515711999999997,0.0027694536000000005,0.0020409354000000004,6.457,0,0
0.0022224996400000002,0.0058600200000000005,0.015696412,0.0058537296,0.0018057704000000003,6.458,0,0
0.00028430163999999987,0.00710988,0.006035592000000001,0.006585242000000001,0.0006787143999999999,6.459,0,0
-0.00136657836,0.00765721,-0.0026106079999999995,0.005754054000000001,-0.0002072816,6.46,0,0
-0.00256333496,0.008602546,-0.010263808000000001,0.0049257300000000006,-0.0006492068,6.461,0,0
-0.0029131419999999996,0.0079748276,-0.01475872,0.004217604,-0.0004699692,6.462,0,0
-0.0023743159999999996,0.0058317566,-0.013443808000000002,0.004218278,0.0003172908,6.463,0,0
-0.0015390719999999998,0.0051500186,-0.008622388000000002,0.00489962,0.0009991848,6.464,0,0
-0.0005910956,0.005241302600000001,-0.004611522,0.005128642,0.00119274,6.465,0,0
0.00029791659999999995,0.005272994600000001,-0.0007047960000000004,0.004034490000000001,0.0009984575999999999,6.466,0,0
0.0008532766,0.007725321,0.002935558,0.0022793659999999997,0.0006127824000000001,6.467,0,0
0.0005550022,0.009915832000000001,0.0039605612,0.0005190620000000003,4.7364000000000016e-05,6.468,0,0
-0.00033609579999999996,0.006988034,0.0033945898,-0.001162302,-0.000651356,6.469,0,0
-0.0008222021999999999,0.0023959059999999997,0.0006960738000000005,-0.0018997442,-0.0014632572,6.47,0,0
-0.0009612224,0.0007726720000000004,-0.0049378522000000005,-0.0009621262000000001,-0.0020781936,6.471,0,0
-0.0013322812,-0.0034106080000000007,-0.011646366200000001,0.0010290798000000003,-0.0026126304000000005,6.472,0,0
-0.0015047308,-0.013622088000000001,-0.015785861400000004,0.0021213098000000003,-0.002941214,6.473,0,0
-0.0013897708,-0.020679912,-0.017107398000000003,0.0025296198,-0.0022691334,6.474,0,0
-0.0014656468,-0.022637692000000004,-0.015990474000000005,0.002866272,-0.0009480653999999998,6.475,0,0
-0.001339573,-0.025202500000000003,-0.010306568000000004,0.0021555582,-1.8401999999999855e-05,6.476,0,0
-0.001074964,-0.024393406000000003,-0.001484108000000001,0.0006393582,0.00028099600000000005,6.477,0,0
-0.0006551346,-0.01596067,0.006362392,-0.00021569980000000002,0.0004300100000000001,6.478,0,0
3.838540000000002e-05,-0.006053038,0.011875,-0.0006466698,0.00019471120000000004,6.479,0,0
0.0006936134000000001,0.00020648000000000042,0.015517786000000002,-0.0018104758,-0.0003718104,6.48,0,0
0.0013735436000000003,0.0052786000000000005,0.015981808,-0.00280702,-0.0005290444,6.481,0,0
0.0021122214,0.010043906000000002,0.013891692,-0.0034083840000000004,-0.0003137016,6.482,0,0
0.00259668,0.012693850000000001,0.010389944000000002,-0.004292758,-6.006820000000001e-05,6.483,0,0
0.0025336100000000004,0.013618358000000002,0.005610056000000001,-0.004843756,0.00014208660000000002,6.484,0,0
0.00258281,0.013865168000000002,0.0017372700000000004,-0.004809458000000001,0.00017360260000000004,6.485,0,0
0.002999518,0.011655542000000001,0.0001660099999999999,-0.005090088,9.081700000000001e-05,6.486,0,0
0.0029289620000000002,0.007090730000000001,-0.0002392500000000002,-0.0055508680000000005,1.2140400000000003e-05,6.487,0,0
0.0024838324,0.003045200000000001,0.0004377859999999998,-0.004912878000000001,-3.403720000000004e-05,6.488,0,0
0.0025496524,-0.001123154,0.002469878,-0.004014729200000001,-0.00026861400000000003,6.489,0,0
0.0027824984,-0.006301462,0.003744568,-0.0031979870000000002,-0.0007668364,6.49,0,0
0.0020602204000000003,-0.010571736,0.0036649636,-0.0014388130000000002,-0.0007744166000000002,6.491,0,0
0.001154267,-0.01179944,0.0022377356000000004,0.000403019,-0.0005581004000000001,6.492,0,0
0.0009638466,-0.0110081694,-0.0009384724,0.0012704690000000002,-0.00048690020000000003,6.493,0,0
-7.232340000000014e-05,-0.0086023414,-0.0067058764000000005,0.0017793722000000003,0.00017711799999999993,6.494,0,0
-0.0023890634000000004,-0.0031204934,-0.012018000400000001,0.0024590980000000003,0.001199978,6.495,0,0
-0.0044923254,0.004383566600000001,-0.011137490000000002,0.0025391840000000003,0.0018150064,6.496,0,0
-0.005639206000000001,0.011820202600000001,-0.006550686000000002,0.0025233000000000005,0.002382242,6.497,0,0
-0.005925146,0.017559242000000003,-0.0020729059999999994,0.002675104,0.0028868360000000003,6.498,0,0
-0.00546119,0.020890508000000002,0.004112106,0.0023965956000000003,0.0023774192,6.499,0,0
-0.0038743826000000006,0.022691380000000004,0.009792082,0.0014214656,0.0014183131999999999,6.5,0,0
-0.0015752086000000005,0.02308574,0.006593748,0.0004473635999999999,0.0004673572000000001,6.501,0,0
-9.532020000000004e-05,0.02061178,-0.002166692,0.0002510215999999999,-0.0003498588,6.502,0,0
0.0001019513999999999,0.015229626,-0.0076130320000000005,-0.0002851104,-0.0007759096,6.503,0,0
4.4083399999999965e-05,0.005565325999999999,-0.01033651,-0.0008936240000000001,-0.0012914748,6.504,0,0
0.00012878219999999993,-0.007691834,-0.0112107756,-0.0013695360000000002,-0.0019064228,6.505,0,0
-6.279180000000006e-05,-0.021193094000000003,-0.0087017256,-0.0027841820000000005,-0.0025307608000000002,6.506,0,0
7.181179999999997e-05,-0.034147894000000005,-0.0037348348,-0.004969338,-0.0033871568,6.507,0,0
0.0010522002,-0.04393024,0.0008239012000000001,-0.006426402000000001,-0.004328808,6.508,0,0
0.0025085462,-0.0472571,0.0047477672,-0.006659296,-0.004356260000000001,6.509,0,0
0.003707798,-0.0456654,0.008321356799999999,-0.0060729700000000005,-0.003692918,6.51,0,0
0.004196742,-0.040694100000000004,0.011511226799999998,-0.003525116000000001,-0.0025995282000000003,6.511,0,0
0.004775568,-0.030884471400000005,0.014151496,0.000636354,-0.0006890722,6.512,0,0
0.00519176,-0.017257971400000002,0.0154228,0.004862438,0.0010842458,6.513,0,0
0.004623038,-0.001230751399999997,0.014577860000000002,0.009407190000000001,0.0023004418,6.514,0,0
0.0034533636000000003,0.0180964286,0.010737768200000001,0.014214982000000001,0.0034566338,6.515,0,0
0.0017219835999999998,0.0396378686,0.002671528200000001,0.01773262,0.004441572,6.516,0,0
-0.0006201604000000002,0.05693912,-0.0063461918,0.01967228,0.00465172,6.517,0,0
-0.0031004024000000005,0.0657703,-0.0104310678,0.02095126,0.004538206,6.518,0,0
-0.0050680504,0.06771886,-0.011579307800000002,0.01991122,0.004744904,6.519,0,0
-0.006359564,0.06147396000000001,-0.012761880000000001,0.016555688000000002,0.004994504,6.52,0,0
-0.00683311,0.043804904000000006,-0.01179814,0.013204796,0.005017852,6.521,0,0
-0.006472178,0.017665364000000003,-0.00898488,0.008617196000000002,0.0047738880000000004,6.522,0,0
-0.005388876000000001,-0.007000575999999998,-0.008437428,0.002022016,0.0043451,6.523,0,0
-0.0039312060000000005,-0.021400055999999997,-0.00876116,-0.004493444000000001,0.0033014876000000007,6.524,0,0
-0.0027100338000000004,-0.026264449999999998,-0.006924434,-0.010753052000000003,0.0016684896000000004,6.525,0,0
-0.0010722918,-0.024892674,-0.0029634059999999996,-0.01844348,-0.00025188640000000013,6.526,0,0
0.0007694302,-0.015780596,0.0009738800000000001,-0.025321540000000003,-0.0027286823999999998,6.527,0,0
0.0019810802,-0.004401206,0.0019178812000000003,-0.029084740000000005,-0.0051619204000000005,6.528,0,0
0.0029562482,-0.0014351859999999998,0.0020226952,-0.031427720000000006,-0.007184274000000001,6.529,0,0
0.003897762,-0.0069848720000000005,0.0021865072000000004,-0.03197648,-0.00888585,6.53,0,0
0.004661726,-0.014006592,0.0023319312000000003,-0.02915566,-0.010065374,6.531,0,0
0.004934442000000001,-0.01963261,0.0039818432,-0.024201240000000002,-0.01041418,6.532,0,0
0.004589798000000001,-0.02316636,0.006024006,-0.018892258000000002,-0.010041126000000001,6.533,0,0
0.0038964660000000003,-0.022414958,0.006732744000000001,-0.011823592,-0.009183352,6.534,0,0
0.003054212,-0.017898320000000002,0.006607121999999999,-0.0030563320000000006,-0.007247653999999999,6.535,0,0
0.0021405903799999997,-0.013314336,0.005822539999999999,0.004877668,-0.004306694,6.536,0,0
0.00120923138,-0.010692936,0.003194046,0.012870388,-0.0005055879999999995,6.537,0,0
0.00016321137999999997,-0.008765554,0.00031290799999999987,0.021591306,0.003761378,6.538,0,0
-0.0007392466200000001,-0.007712066000000001,-0.0013512620000000002,0.02873662,0.007662024000000002,6.539,0,0
-0.0012744626200000002,-0.007977854000000001,-0.0018600618,0.033547860000000006,0.010861406,6.54,0,0
-0.001999335,-0.007159072000000001,-0.0015797983999999998,0.03727752,0.012664486000000003,6.541,0,0
-0.0028513080000000003,-0.004914024,-0.0014178084000000001,0.038420760000000005,0.013022060000000002,6.542,0,0
-0.0032150500000000005,-0.0028564038,-0.0014957244,0.035376620000000004,0.01284526,6.543,0,0
-0.003316606,0.0002463261999999999,-0.0021224344000000004,0.0304412,0.0125182,6.544,0,0
-0.003159784,0.0065576962,-0.0027818586000000005,0.024391736000000004,0.011058162,6.545,0,0
-0.0027150919999999997,0.0139464902,-0.0026680964,0.016159702,0.009119546000000001,6.546,0,0
-0.0024726419999999997,0.018781442199999998,-0.0008158564000000001,0.006849342,0.007376504,6.547,0,0
-0.001444528,0.021649139999999997,0.0028527376000000004,-0.0020616980000000007,0.004616370000000001,6.548,0,0
0.000593684,0.02421808,0.0068498976,-0.010576038000000001,0.0015843920000000004,6.549,0,0
0.0023821960000000005,0.02501724,0.009979709600000001,-0.018063134,-0.0008862140000000001,6.55,0,0
0.0032939659999999997,0.02159622,0.01105359,-0.023437060000000003,-0.0032630260000000005,6.551,0,0
0.0035380820000000006,0.017029049400000003,0.008472668,-0.02767274,-0.006025204000000001,6.552,0,0
0.0034711840000000004,0.0142137364,0.001363848,-0.0315251,-0.00931781,6.553,0,0
0.0022860772,0.0063048964,-0.004404652,-0.0347354,-0.013081792,6.554,0,0
0.0005793891999999999,-0.006418003600000001,-0.0044890320000000004,-0.03689568,-0.016277788,6.555,0,0
0.0007894712,-0.012382543600000002,-0.002638408,-0.03776074,-0.01817954,6.556,0,0
0.0025070912000000004,-0.011471241000000002,-0.00014408599999999987,-0.03674662,-0.019044580000000002,6.557,0,0
0.0031659752,-0.010345420000000001,0.00383291,-0.032077220000000004,-0.018144220000000003,6.558,0,0
0.0036729280000000002,-0.00498664,0.005683606000000001,-0.024874908000000005,-0.015486002,6.559,0,0
0.004526144,0.0047538,0.0026055940000000006,-0.016669440000000004,-0.01219269,6.56,0,0
0.003808382,0.0094661,-0.0031986460000000003,-0.0066363,-0.008385628000000001,6.561,0,0
0.0018253600000000003,0.005388848000000002,-0.009011580000000002,0.003914620000000001,-0.0032843020000000002,6.562,0,0
-5.192800000000002e-05,-0.00653968,-0.011526775999999999,0.012885240000000001,0.0023343780000000007,6.563,0,0
-0.00171841,-0.02005008,-0.011456854,0.020543708,0.007127200000000001,6.564,0,0
-0.003583926,-0.02869224,-0.011306992,0.026746600000000002,0.010825868,6.565,0,0
-0.005059742,-0.03366256,-0.008917546,0.029658500000000004,0.013119906,6.566,0,0
-0.0063929,-0.03291012,-0.0038819040000000007,0.029971320000000003,0.01384372,6.567,0,0
-0.008329188000000001,-0.023178360000000002,0.0013853160000000002,0.029705500000000003,0.01369344,6.568,0,0
-0.009976128,-0.01148603,0.0069568780000000005,0.028567600000000002,0.01353074,6.569,0,0
-0.010371890000000002,-0.004341532,0.011829848,0.0265132,0.013361500000000002,6.57,0,0
-0.01013352,0.001494708,0.012838908000000001,0.02471798,0.0130205,6.571,0,0
-0.008744916000000002,0.007924788,0.011503139999999999,0.0222596,0.011803566000000001,6.572,0,0
-0.0058834286,0.013279128000000001,0.008377283999999999,0.017051767000000002,0.009492244,6.573,0,0
-0.0032967682000000003,0.016921378,0.002127254,0.010669441000000002,0.006903556000000002,6.574,0,0
-0.0007737982,0.01932508,-0.004063904,0.004319725,0.003489472000000001,6.575,0,0
0.0023006138000000002,0.021397980000000004,-0.0065709159999999996,-0.003924515,-0.000918828,6.576,0,0
0.0051277778,0.023358939999999998,-0.007073642000000001,-0.012414415000000002,-0.005164534,6.577,0,0
0.0075851904000000005,0.02541416,-0.007939486,-0.018203022,-0.008898312,6.578,0,0
0.009987310000000001,0.021967386000000002,-0.00797506,-0.022264536,-0.011889684000000001,6.579,0,0
0.011669252000000001,0.008669606000000002,-0.007335949999999999,-0.0251179,-0.013073504000000001,6.58,0,0
0.012250780000000001,-0.006680854000000003,-0.006572021999999999,-0.02472912,-0.012388456000000003,6.581,0,0
0.011745070000000002,-0.015906874,-0.006080374,-0.0215994,-0.010346996,6.582,0,0
0.010057836,-0.018844534,-0.004905076,-0.01796044,-0.007394352000000001,6.583,0,0
0.007883281,-0.013864079999999997,-0.0021514919999999996,-0.013713348000000002,-0.0048914200000000005,6.584,0,0
0.0054313154,0.00036137999999999795,0.0005376380000000002,-0.008572072,-0.002695236,6.585,0,0
0.0031047654000000004,0.014742439999999999,0.002975602,-0.004473194,-0.0002697460000000002,6.586,0,0
0.0015086074,0.019182152,0.00538084,-0.0017761386000000004,0.001245072,6.587,0,0
0.0004002234,0.012680031999999999,0.007730202,0.0009566493999999999,0.0017703288,6.588,0,0
-0.00046338160000000006,0.0035499719999999985,0.007940528,0.0021759794,0.0022453968000000005,6.589,0,0
-0.0009017660000000001,-0.00277116,0.006453291420000001,0.0023637154,0.0022136648,6.59,0,0
-0.000844286,-0.0069569564,0.007009189420000001,0.0049464174,0.0014680468000000003,6.591,0,0
-0.0005507800000000002,-0.007792881600000002,0.009003095420000001,0.009158002,0.0012642147999999999,6.592,0,0
-0.0008245840000000002,-0.0061389216000000005,0.01048863542,0.012589754000000002,0.00150012,6.593,0,0
-0.001789914,-0.0037942476,0.01259278942,0.016019772,0.0017997059999999999,6.594,0,0
-0.00306295,-0.0017966496000000002,0.014222574000000002,0.01823134,0.002146242,6.595,0,0
-0.005819660000000001,-0.0014129812000000003,0.009396150000000002,0.016814032000000003,0.0020176696000000004,6.596,0,0
-0.009903018,-0.0026608620000000004,-0.001535309999999998,0.012865103999999999,0.0015044908,6.597,0,0
-0.013122856000000002,-0.003039314,-0.01393835,0.007729095999999999,0.0007747247999999999,6.598,0,0
-0.014532046,-0.002145966,-0.02264945,0.0015369160000000006,0.00012913460000000008,6.599,0,0
-0.0145564,-0.0016738720000000005,-0.023090952,-0.004677744,-0.000537494,6.6,0,0
-0.0118866094,0.0017384960000000002,-0.017634452000000002,-0.008044784000000001,-0.0004004436,6.601,0,0
-0.006119149399999999,0.00603407,-0.008553924000000001,-0.007852432,0.0014134072000000003,6.602,0,0
2.5930599999999734e-05,0.0024880419999999993,0.0025796560000000005,-0.005051324,0.0037339472,6.603,0,0
0.0038914746,-0.005589480000000001,0.010027716,-0.0004701239999999997,0.0059010714,6.604,0,0
0.0050888365999999996,-0.01071588,0.011076328,0.004505922000000001,0.008012516,6.605,0,0
0.005717191999999999,-0.0172887,0.010377276000000001,0.008102550000000002,0.009396968,6.606,0,0
0.005047823999999999,-0.02397542,0.009509728,0.009733626000000002,0.009376404,6.607,0,0
0.0020150320000000004,-0.019219064,0.007158139599999999,0.011005746,0.008719675999999999,6.608,0,0
0.00011461400000000008,-0.0063623640000000006,0.0051112556,0.012522566000000002,0.008225378,6.609,0,0
0.00043302060000000026,0.003288636000000001,0.0030404024,0.013648500000000001,0.007894164,6.61,0,0
-0.0010940774,0.009957696,0.0002799584000000001,0.013748960000000001,0.007492274,6.611,0,0
-0.0040255174,0.015500876,-0.0013508336000000003,0.012193662000000001,0.0068688180000000005,6.612,0,0
-0.0045259674,0.016384367999999996,-0.0013016984000000001,0.008430548,0.0062790680000000005,6.613,0,0
-0.0042014914,0.012222636000000002,-0.0019780504,0.003397066,0.004730926,6.614,0,0
-0.004078284000000001,0.007371948,-0.004659877200000001,-0.002828194,0.0004666600000000007,6.615,0,0
-0.002740642,0.003314352000000001,-0.0081443012,-0.010290114,-0.005792780000000001,6.616,0,0
-0.0005771180000000002,-9.507999999999999e-05,-0.0123658692,-0.016605276000000002,-0.012451678,6.617,0,0
0.0013323520000000002,-0.003156748,-0.016686336,-0.021511802000000003,-0.0190995,6.618,0,0
0.002921402,-0.00545363,-0.01887982,-0.02575314,-0.02436364,6.619,0,0
0.004673666,-0.0035726019999999994,-0.018182125999999996,-0.028494320000000004,-0.025957519999999998,6.62,0,0
0.0059488200000000005,0.0023353140000000007,-0.015239348,-0.03016038,-0.024770359999999998,6.621,0,0
0.007489644,0.009515606000000001,-0.009754986,-0.03257994,-0.023074760000000003,6.622,0,0
0.010119416,0.017156406,-0.002887806,-0.03407842,-0.0198352,6.623,0,0
0.012727124000000001,0.02348464,0.002732434,-0.03230346,-0.015526948,6.624,0,0
0.014273364,0.020156256000000004,0.00893442,-0.028081668,-0.011641584,6.625,0,0
0.0145964,0.004224836000000001,0.016792542,-0.021693836,-0.007590708,6.626,0,0
0.013817468000000001,-0.011732104000000002,0.02231522,-0.013010242000000002,-0.00323337,6.627,0,0
0.012425052000000002,-0.021859724000000004,0.023520319999999997,-0.0043845559999999995,0.0010127540000000003,6.628,0,0
0.010986772,-0.030616704000000005,0.021933863999999997,0.0022621440000000002,0.005087842,6.629,0,0
0.008834778000000001,-0.030566462000000006,0.0177092244,0.010906612,0.010288778,6.63,0,0
0.0066435004,-0.017715522,0.0102286524,0.02399142,0.017632962000000002,6.631,0,0
0.0040789084,-0.005953416,0.0018579524000000005,0.039224386,0.026819524,6.632,0,0
4.324399999999697e-06,-0.0037540959999999997,-0.0048533676,0.05532742,0.03611132,6.633,0,0
-0.004594615600000001,-0.0071232959999999994,-0.008519551600000001,0.07079596,0.0430116,6.634,0,0
-0.0096254216,-0.009297674,-0.010162758000000001,0.08087494,0.0456123,6.635,0,0
-0.014945484,-0.007756394000000001,-0.010770492,0.08210284,0.043612040000000005,6.636,0,0
-0.01973122,-0.0016010399999999998,-0.008197945400000002,0.07677596,0.0379119,6.637,0,0
-0.023724480000000003,0.011721100000000002,-0.0037712234000000003,0.06644810000000001,0.028977966000000004,6.638,0,0
-0.026890040000000004,0.025030579999999997,1.1144600000000246e-05,0.05097104,0.018887504400000005,6.639,0,0
-0.027663980000000005,0.023684660000000003,0.0033942826000000004,0.030928220000000006,0.009839762399999999,6.64,0,0
-0.025087380000000006,0.009608020000000004,0.005816992600000001,0.008319539999999999,0.0019591624,6.641,0,0
-0.019903112,-0.00569242,0.0057549368,-0.01565954,-0.0055077376,6.642,0,0
-0.01245601,-0.018660180000000002,0.0038195548,-0.040742879999999995,-0.0145115436,6.643,0,0
-0.0038563699999999996,-0.024633974,0.0012536448000000002,-0.06412572,-0.025662562,6.644,0,0
0.004736590000000001,-0.019114866,-0.0026961272,-0.08407445999999999,-0.03761888,6.645,0,0
0.01260083,-0.002466605999999999,-0.0072631512,-0.10064926,-0.04985806,6.646,0,0
0.018336042000000004,0.018755434,-0.009774082000000002,-0.11090448,-0.05997398000000001,6.647,0,0
0.02125784,0.036297674,-0.007855598,-0.11118248,-0.06372052,6.648,0,0
0.02240238,0.046908788,-0.0035762560000000007,-0.10324652000000001,-0.06067212000000001,6.649,0,0
0.022143360000000004,0.0520106,0.001128604000000001,-0.08856744,-0.05264468,6.65,0,0
0.020099440000000003,0.04974182,0.007538444000000002,-0.0677189,-0.04131854,6.651,0,0
0.01736388,0.0337929,0.011655284000000002,-0.045387344,-0.029439424,6.652,0,0
0.014878746000000002,0.01055152,0.010141934,-0.025062024,-0.018624193,6.653,0,0
0.012170410000000003,-0.007621959999999999,0.003939474000000002,-0.007109243999999998,-0.009053689,6.654,0,0
0.008763168000000002,-0.0202089,-0.003966566000000001,0.008242256,-1.6768999999999378e-05,6.655,0,0
0.004991556000000001,-0.0291921,-0.009221886,0.022297496,0.009102251,6.656,0,0
0.0013732560000000002,-0.030290560000000005,-0.011748050000000001,0.03615746,0.017545995,6.657,0,0
-0.0036042900000000004,-0.025199920000000004,-0.013966904000000002,0.04858196000000001,0.024840383999999997,6.658,0,0
-0.009380054000000002,-0.02011964,-0.013048646000000002,0.060534580000000004,0.03180846,6.659,0,0
-0.013124652000000002,-0.015626858,-0.009049962,0.07349896000000002,0.038435739999999996,6.66,0,0
-0.01590416,-0.012279744000000002,-0.00637256544,0.08477458,0.043705919999999995,6.661,0,0
-0.018730140000000003,-0.011193984,-0.0007732614399999999,0.09068028,0.04760226000000001,6.662,0,0
-0.01879992,-0.010956644,0.007806358560000001,0.09167962,0.04969052,6.663,0,0
-0.015975772,-0.010771384,0.01404912056,0.08863540000000002,0.04913922000000001,6.664,0,0
-0.013618274,-0.01111768,0.01922051656,0.07949104000000001,0.045438700000000005,6.665,0,0
-0.010346439800000001,-0.010384926000000001,0.023428200000000003,0.06512392,0.039770040000000006,6.666,0,0
-0.0048955738000000006,-0.00738365,0.02089686,0.0492039,0.03313812,6.667,0,0
0.00018342819999999987,-0.003574994,0.01060732,0.031196619999999998,0.025647290000000003,6.668,0,0
0.0042034202,-0.001639836,-0.0022521799999999986,0.008705599999999999,0.016908962000000003,6.669,0,0
0.0075245022,-0.0027174820000000002,-0.014198019999999999,-0.016257980000000002,0.004572502,6.67,0,0
0.010126308,-0.003264186,-0.02229366,-0.040673440000000005,-0.010174058,6.671,0,0
0.012445662000000001,-0.001637982,-0.024305298000000003,-0.06310484,-0.024638958000000002,6.672,0,0
0.014050520000000002,0.0015952820000000004,-0.018631914000000003,-0.08154404000000001,-0.038638568000000005,6.673,0,0
0.013900680000000002,0.008935324,-0.008291470000000002,-0.09314942000000001,-0.05066346000000001,6.674,0,0
0.012901856000000001,0.018470904,0.0009165679999999995,-0.09674036,-0.057747480000000004,6.675,0,0
0.010694668000000001,0.023011780000000003,0.006182888000000001,-0.0936662,-0.06012714000000001,6.676,0,0
0.006947932600000001,0.021738837999999996,0.007740812000000001,-0.08328205999999999,-0.05785026000000001,6.677,0,0
0.0033778068,0.018861856000000003,0.006326890000000001,-0.06605504000000001,-0.04983034000000001,6.678,0,0
0.0007338808,0.015479356000000001,0.0044043156,-0.0458818042,-0.038404944,6.679,0,0
-0.0013919272000000001,0.011902636000000001,0.005702077600000001,-0.023444324200000005,-0.025157218000000002,6.68,0,0
-0.0050056992,0.009814182000000001,0.0071150576,0.0008145557999999983,-0.011492258000000003,6.681,0,0
-0.0109856838,0.010439682,0.0064377456,0.022457355800000002,0.0006166019999999995,6.682,0,0
-0.017360258,0.011908884000000002,0.006804007600000001,0.03920485580000001,0.010642522000000001,6.683,0,0
-0.021976812000000002,0.014203464000000002,0.006402696,0.052800520000000004,0.019507565999999997,6.684,0,0
-0.025076400000000006,0.017883804000000003,0.0034212759999999996,0.06357916000000001,0.02821336,6.685,0,0
-0.0265963,0.018447072000000002,0.0017863759999999997,0.07039184000000001,0.036669,6.686,0,0
-0.025324100000000002,0.012635094000000003,0.001333436,0.07359724000000001,0.04386318,6.687,0,0
-0.022579340000000003,0.002164234000000002,0.000306546,0.0740208,0.048905180000000006,6.688,0,0
-0.018662384,-0.011715466,0.0007103276000000001,0.07141538,0.051912860000000005,6.689,0,0
-0.012765862000000001,-0.030372146000000003,0.0017032756,0.06520058,0.052258360000000004,6.69,0,0
-0.0047650620000000005,-0.04704710000000001,0.0002626356,0.05609986000000001,0.04957488,6.691,0,0
0.004251778,-0.0536796,-0.0020170424000000003,0.04563118,0.04389084,6.692,0,0
0.011657958000000001,-0.05322906000000001,-0.0030082004,0.033967338,0.035431359999999995,6.693,0,0
0.016061622,-0.0503318,-0.00521396,0.020353058000000004,0.024348966000000003,6.694,0,0
0.017753400000000003,-0.04301906,-0.008386468000000001,0.004947778,0.011780106,6.695,0,0
0.01769454,-0.033892240000000004,-0.009040062000000001,-0.010973442,-0.0007119939999999996,6.696,0,0
0.01666932,-0.02930962,-0.007326736400000001,-0.027317642000000003,-0.013580154,6.697,0,0
0.01634526,-0.02638042,-0.0055407623999999996,-0.04293888,-0.026498174,6.698,0,0
0.016757,-0.021507806000000004,-0.0014486704000000006,-0.0542652,-0.0366749,6.699,0,0
0.017124760000000003,-0.010902025999999999,0.0049070096,-0.06066648,-0.04339106,6.7,0,0
0.01727666,0.007956634000000002,0.009650123600000001,-0.0634306,-0.04824424000000001,6.701,0,0
0.016755700000000002,0.030834754000000002,0.014218682000000003,-0.0626745,-0.04893798,6.702,0,0
0.015973160000000004,0.050165754,0.018384892000000003,-0.05887106,-0.044260560000000004,6.703,0,0
0.014541240000000002,0.05909438,0.018426868000000002,-0.053399720000000005,-0.03814748,6.704,0,0
0.013281840000000003,0.058133239999999996,0.013774654,-0.0472877,-0.0327915,6.705,0,0
0.011836052000000003,0.0513656,0.007135214000000001,-0.04111312000000001,-0.027236640000000003,6.706,0,0
0.008372266000000001,0.0420301,-0.0002553860000000007,-0.036606120000000006,-0.02253666,6.707,0,0
0.004135588,0.03552358,-0.006715538000000001,-0.03507006,-0.019583980000000004,6.708,0,0
0.00033436800000000003,0.036878680000000004,-0.010509226000000002,-0.03392656000000001,-0.015789982000000004,6.709,0,0
-0.0032358360000000006,0.04176448,-0.013464072,-0.03078296,-0.010878128,6.71,0,0
-0.006647280000000001,0.03941034,-0.016041532,-0.025728940000000002,-0.0064512280000000016,6.711,0,0
-0.008130874000000001,0.025695760000000005,-0.018755012,-0.01729896,-0.0015351240000000001,6.712,0,0
-0.006923384,0.00694698,-0.0197807,-0.004756340000000001,0.004233396,6.713,0,0
-0.005123532,-0.009440280000000002,-0.017100356,0.00872882,0.009477958000000002,6.714,0,0
-0.003603758,-0.025940620000000005,-0.012289655999999998,0.02035384,0.014562704000000001,6.715,0,0
-0.0011074000000000001,-0.042691620000000007,-0.006992986999999998,0.03016384,0.019927164000000004,6.716,0,0
0.00027458799999999987,-0.05076958,-0.0013818904,0.03863346,0.02425696,6.717,0,0
-0.0024127040000000008,-0.049245,0.0029153776000000005,0.04679732,0.02691902,6.718,0,0
-0.006568376000000001,-0.043322625999999996,0.0033892136000000005,0.054326160000000005,0.02835058,6.719,0,0
-0.010739686000000002,-0.03373854600000001,0.0030743596000000002,0.06039352,0.0290785,6.72,0,0
-0.015273292000000003,-0.020788606,0.0025692486,0.06514488,0.029325760000000006,6.721,0,0
-0.01856528,-0.007739652000000001,0.00018989199999999967,0.06670097999999999,0.029094940000000003,6.722,0,0
-0.0193146,0.002029522,-0.005101536,0.06359872,0.02829048,6.723,0,0
-0.01865628,0.0055126080000000004,-0.010602376,0.05653028,0.02596972,6.724,0,0
-0.01798286,0.0042222660000000006,-0.010753388000000003,0.046497800000000006,0.02214404,6.725,0,0
-0.01644632,0.0037669714000000006,-0.007247606000000001,0.034276362,0.01821118,6.726,0,0
-0.013118272,0.0035684334000000003,-0.0026769460000000017,0.021686446,0.013950532000000003,6.727,0,0
-0.0091162424,0.0007847334000000003,0.0044546740000000005,0.009834246000000001,0.008264232,6.728,0,0
-0.0050512904,-0.0021330106,0.012260014,-0.0018005940000000008,0.0015688919999999997,6.729,0,0
-0.00015371039999999931,-0.0023260066,0.0145028,-0.013810474000000001,-0.006257608,6.73,0,0
0.0038010676000000006,-0.0011682180000000004,0.013181872,-0.027029116000000006,-0.015649828,6.731,0,0
0.0060923876000000005,0.0003791768,0.012031600000000002,-0.04072884,-0.0247138,6.732,0,0
0.008257698,0.0024258608,0.010286514000000002,-0.05381852000000001,-0.03147532,6.733,0,0
0.010033026,0.0030906288,0.00871447,-0.06444088,-0.03518232,6.734,0,0
0.010945966,0.0019127988,0.007811526000000001,-0.07017593999999999,-0.03590146,6.735,0,0
0.012489628,0.0015910328,0.007975664,-0.07078116000000001,-0.03439566,6.736,0,0
0.01498432,0.004322502,0.008495814,-0.06669506,-0.03168986,6.737,0,0
0.0166645,0.007940164,0.008606192,-0.057748860000000006,-0.027983840000000003,6.738,0,0
0.01678796,0.009311796,0.007998834,-0.045875280000000004,-0.023995020000000002,6.739,0,0
0.015760928,0.0090199728,0.006730722000000001,-0.033594978,-0.01984792,6.74,0,0
0.014023822000000002,0.009107796799999998,0.004649120000000001,-0.018346618000000002,-0.013886437600000003,6.741,0,0
0.012184182000000002,0.0078023128,0.0014745480000000002,-4.4118000000000976e-05,-0.005795697600000001,6.742,0,0
0.010521141999999999,0.0050694948,-0.0022173240000000006,0.018119101999999998,0.004191022399999999,6.743,0,0
0.008131588,0.0041888588000000004,-0.0053717700000000005,0.036721102000000005,0.015249682400000002,6.744,0,0
0.004497498000000001,0.0042904708000000005,-0.00730478,0.0546653,0.0258733424,6.745,0,0
-0.00012977599999999985,0.0012139388000000002,-0.008791804,0.0668565,0.03360602,6.746,0,0
-0.005703576,-0.006139877199999999,-0.009883810000000002,0.0720602,0.037159120000000004,6.747,0,0
-0.011675696,-0.0129958392,-0.010194690000000001,0.07274762000000001,0.03770206,6.748,0,0
-0.015922302,-0.0170979192,-0.010366462,0.06853058000000001,0.03654984000000001,6.749,0,0
-0.017818880000000002,-0.019881080000000002,-0.010444466000000001,0.06065256000000001,0.034896,6.75,0,0
-0.01861724,-0.019335822,-0.009486866,0.05197468000000001,0.03307876,6.751,0,0
-0.01835252,-0.011736356,-0.005548938,0.041623320000000005,0.030632100000000002,6.752,0,0
-0.01690704,-0.0013058160000000004,0.0016399220000000003,0.027279820000000003,0.025508000000000003,6.753,0,0
-0.014288434000000003,0.006242684,0.008832122000000001,0.009368560000000001,0.01646484,6.754,0,0
-0.010532893000000002,0.014270784000000002,0.013199332000000001,-0.01091988,0.0036716199999999996,6.755,0,0
-0.005936079000000002,0.024882186,0.016458748000000002,-0.032768240000000004,-0.01171264,6.756,0,0
-0.0016191970000000002,0.0328241,0.01946648,-0.05206860000000001,-0.02571154,6.757,0,0
0.001620265,0.03503288,0.01809018,-0.06511412,-0.03572088,6.758,0,0
0.004333869,0.031795284,0.011787370000000002,-0.07200238,-0.04163266,6.759,0,0
0.006698448,0.015553424,0.005713710000000002,-0.07307734,-0.04371378,6.76,0,0
0.008517214,-0.009749436,7.796999999999969e-05,-0.0678567,-0.041881840000000004,6.761,0,0
0.010628972,-0.024003556,-0.010379590000000001,-0.058871740000000006,-0.037855200000000006,6.762,0,0
0.01396609,-0.025056756,-0.01992671,-0.049712280000000005,-0.03407914,6.763,0,0
0.017363640000000003,-0.020421619999999994,-0.02186774,-0.03985666,-0.029479080000000005,6.764,0,0
0.020137420000000003,-0.006234339999999999,-0.021167520000000002,-0.026622644,-0.021858992,6.765,0,0
0.021707020000000004,0.010095891200000002,-0.02008088,-0.009490243999999998,-0.010320772,6.766,0,0
0.019635728000000005,0.012797881200000001,-0.01721618,0.010346535999999998,0.0029431080000000007,6.767,0,0
0.013131208,0.0056774712,-0.0143476,0.032460576000000005,0.016709208,6.768,0,0
0.0036663680000000006,-0.0017374707999999997,-0.011442986,0.054054116,0.030287167999999996,6.769,0,0
-0.006824632,-0.0075665308,-0.006792725999999999,0.07043504,0.04045132,6.77,0,0
-0.015855652,-0.009779462000000001,-0.0007735460000000004,0.07975174000000002,0.046000280000000004,6.771,0,0
-0.02128188,-0.008018097600000001,0.007962514,0.08273204,0.04776876,6.772,0,0
-0.02226792,-0.0052303516,0.018089454,0.07985616000000001,0.047007099999999996,6.773,0,0
-0.02043602,-0.0004430495999999994,0.02594726,0.07128144,0.043185440000000005,6.774,0,0
-0.01921644,0.0068047704,0.028834600000000002,0.05851494000000001,0.0365941,6.775,0,0
-0.01915202,0.0130289104,0.025592474000000004,0.042242222,0.028321352000000004,6.776,0,0
-0.01802552,0.011286493999999998,0.015337874,0.021704822,0.017622336000000002,6.777,0,0
-0.015669825999999998,-0.0007624420000000021,-0.000816645999999999,-0.003136297999999999,0.0037186960000000014,6.778,0,0
-0.012129728,-0.013875322000000002,-0.014774886000000001,-0.030519438000000003,-0.012299004,6.779,0,0
-0.004558047999999999,-0.024306022000000004,-0.021724000000000004,-0.057884578000000006,-0.027848964000000004,6.78,0,0
0.006373352,-0.032579882000000004,-0.022812194000000004,-0.08254286,-0.042215256,6.781,0,0
0.015589272000000001,-0.032220370000000005,-0.016651748000000004,-0.1009761,-0.05442906,6.782,0,0
0.022315598,-0.021844101200000004,-0.005680878000000002,-0.10943546000000001,-0.061300780000000006,6.783,0,0
0.02823506,-0.0120889252,0.0011736960000000001,-0.10609054000000001,-0.060671600000000006,6.784,0,0
0.03062862,-0.007059201199999999,0.0031289938000000003,-0.09286592000000002,-0.05394790000000001,6.785,0,0
0.028326320000000002,-0.0035316912,0.0033779178,-0.07386032000000001,-0.043749140000000006,6.786,0,0
0.024195596,-0.0008374872000000003,0.0008018398000000002,-0.051764158000000005,-0.031744826000000004,6.787,0,0
0.017666289999999998,0.002376904,-0.0035967102,-0.028933378000000003,-0.019779266,6.788,0,0
0.008748650000000002,0.005688428,-0.0040916550399999994,-0.007493198000000003,-0.009287375999999998,6.789,0,0
0.0010819000000000004,0.011063983999999999,0.0010190211600000004,0.013025742,-0.00023371600000000013,6.79,0,0
-0.00406726,0.019175454,0.00560637716,0.032224002,0.008424424,6.791,0,0
-0.007440512000000001,0.026500839999999998,0.009257109160000002,0.04848364,0.017596430000000003,6.792,0,0
-0.009160006,0.03248264,0.015328809160000002,0.06149798000000001,0.026355250000000004,6.793,0,0
-0.009835006,0.03962204,0.01881814,0.07092758000000002,0.03378784,6.794,0,0
-0.011303516,0.04533013999999999,0.016580619999999997,0.07519772,0.03916532,6.795,0,0
-0.013355376000000002,0.04301516,0.012720990000000001,0.07450198000000001,0.041641460000000005,6.796,0,0
-0.014166560000000002,0.035768954000000006,0.007906450000000002,0.07041036,0.0418103,6.797,0,0
-0.013898220000000001,0.02712586,0.0020998500000000003,0.06319098,0.039915700000000005,6.798,0,0
-0.012741114000000001,0.015387116000000001,-0.0026776540000000002,0.05323696,0.03636394,6.799,0,0
-0.010034578000000002,-0.003527763999999999,-0.006410148000000001,0.04057786,0.03129088,6.8,0,0
-0.0067694952000000004,-0.027401704000000002,-0.009831498000000001,0.024494880000000004,0.02509762,6.801,0,0
-0.0043689232,-0.044041138,-0.011479578,0.005958540000000002,0.017793388,6.802,0,0
-0.0017537372,-0.050447404,-0.010491744,-0.01199418,0.009047047999999999,6.803,0,0
0.0010329868000000001,-0.049991942000000004,-0.010646668000000001,-0.027556120000000003,-0.000845872000000001,6.804,0,0
0.0019556988,-0.04200026400000001,-0.012721914,-0.039821300000000004,-0.012014632,6.805,0,0
0.0011805820000000003,-0.028208744,-0.010291422000000001,-0.048508800000000005,-0.023814932,6.806,0,0
0.00019644200000000012,-0.015775004000000002,-0.00516414,-0.05437538000000001,-0.03450538,6.807,0,0
-0.0004843788,-0.006891684,-0.0034406898,-0.05765122,-0.04166042,6.808,0,0
-0.0006733028000000001,-0.00500287,0.0003340781999999999,-0.0579046,-0.04410286,6.809,0,0
0.0010549492,-0.007689708000000001,0.0078920382,-0.053720040000000004,-0.04114238,6.81,0,0
0.0043612232,-0.0016695899999999999,0.012507206199999999,-0.042812260000000005,-0.033194406,6.811,0,0
0.0071341292,0.008267630000000002,0.013030288200000002,-0.026271420000000004,-0.021734901999999997,6.812,0,0
0.008799796,0.013460910000000001,0.011201932,-0.007306700000000002,-0.009339961999999999,6.813,0,0
0.00851455,0.017859878000000003,0.006254712000000001,0.01303136,0.0010490180000000005,6.814,0,0
0.006292914,0.019071258,0.000501112,0.029668260000000002,0.008441218,6.815,0,0
0.004440864,0.011085840000000003,-0.0027978460000000005,0.03824864,0.012213704000000002,6.816,0,0
0.0034929800000000006,-0.0001422599999999991,-0.002752684,0.041816900000000004,0.012572728000000002,6.817,0,0
0.0022635520000000003,-0.008422612,-0.0004873940000000005,0.04241324,0.011391948000000002,6.818,0,0
0.0006135620000000002,-0.01535717,0.0008655819999999999,0.03923808000000001,0.010773468,6.819,0,0
-0.0010553420000000001,-0.015623709999999999,0.0003529739999999998,0.0345892,0.011503628000000002,6.82,0,0
-0.0029507780000000003,-0.006937042,-0.001361496,0.03002618,0.013645748,6.821,0,0
-0.005012318,0.0001407380000000005,-0.005699882,0.024741572,0.016418099999999998,6.822,0,0
-0.0051314728,0.0022082760000000003,-0.0108656,0.020464732,0.01933752,6.823,0,0
-0.0019525828000000003,0.005107674000000001,-0.011310112,0.016110912,0.02104268,6.824,0,0
0.0011153672000000004,0.008643766,-0.00920154,0.010135892,0.019989780000000002,6.825,0,0
0.0016458812000000001,0.010664438000000002,-0.007851308,0.005393144000000001,0.016914277999999998,6.826,0,0
0.0012980792000000002,0.012868458000000003,-0.004666042,0.0031472580000000004,0.013473452,6.827,0,0
-0.00104811,0.013456292000000002,0.00016053600000000002,0.0012085720000000002,0.010106222000000002,6.828,0,0
-0.00594505,0.010555774,0.002978304,-0.00154256338,0.0065850100000000005,6.829,0,0
-0.009800020000000001,0.005542462000000001,0.0036762420000000006,-0.00262253738,0.005241008,6.83,0,0
-0.011952968000000001,-0.002536178,0.0032789676,-0.0011772783,0.006522130000000001,6.831,0,0
-0.013397860000000001,-0.009982538,0.0034613156000000006,-0.0008455243000000002,0.007090096,6.832,0,0
-0.011970356000000003,-0.010021898,0.0062854776000000005,-0.0036555983,0.005258322,6.833,0,0
-0.007933834,-0.004063359999999999,0.007327205600000001,-0.00811636292,0.0012054739999999998,6.834,0,0
-0.003998264,0.00316516,0.005649871600000001,-0.01486540892,-0.006264064,6.835,0,0
-6.828600000000052e-05,0.009877380000000002,0.00650026,-0.02628552,-0.016916204000000004,6.836,0,0
0.004998214000000001,0.014184502000000002,0.007491192,-0.03947098,-0.027617424,6.837,0,0
0.00992467,0.014715122,0.00363434,-0.05186306000000001,-0.036515620000000006,6.838,0,0
0.012991228,0.013609882000000002,0.00016869399999999962,-0.06383056000000001,-0.04294118,6.839,0,0
0.015022098000000001,0.013957262000000002,0.0007018731999999998,-0.07108224,-0.04521994000000001,6.84,0,0
0.016544720000000002,0.016587902,-0.0007881548000000002,-0.07040898000000001,-0.0426271,6.841,0,0
0.01660102,0.01863582,-0.0033622908000000003,-0.06132954,-0.03581474000000001,6.842,0,0
0.014836980000000001,0.017519264000000003,-0.0019682467999999997,-0.043139180000000006,-0.025110202,6.843,0,0
0.012264506000000001,0.015260262,-0.0028545408,-0.01704628,-0.011539722000000002,6.844,0,0
0.008921394000000001,0.010957729999999999,-0.0069056280000000005,0.012159820000000002,0.0025201779999999997,6.845,0,0
0.005943676000000001,0.0018511300000000012,-0.004426014,0.038756399999999996,0.014804398,6.846,0,0
0.003951476000000001,-0.00856805,0.002261616,0.058115980000000005,0.024155978,6.847,0,0
0.0016122146000000005,-0.020229534,0.007149284,0.0671544,0.029661160000000002,6.848,0,0
-0.0004132974,-0.034513612,0.013673844000000001,0.06720664000000001,0.03159246,6.849,0,0
-0.0012262894,-0.04605668,0.018885376000000002,0.06008494,0.0313724,6.85,0,0
-0.0019039594,-0.048211040000000004,0.015253860000000001,0.04954624,0.030148180000000004,6.851,0,0
-0.0038932374,-0.037924900000000004,0.006054540000000001,0.03899494,0.02809988,6.852,0,0
-0.006472016000000001,-0.018867719999999998,-0.00548658,0.027391772,0.0242406,6.853,0,0
-0.00935995,0.0018022199999999985,-0.01782876,0.015346112000000002,0.018465704,6.854,0,0
-0.011698326,0.022555819999999997,-0.024202832,0.003264752,0.010810483999999999,6.855,0,0
-0.012550298000000001,0.04040106,-0.023247432000000002,-0.009976068000000001,0.0011846040000000006,6.856,0,0
-0.01178796,0.04449974000000001,-0.018986075999999998,-0.024195788000000003,-0.009345716,6.857,0,0
-0.00883442,0.037871260000000004,-0.012504974000000002,-0.037105660000000006,-0.019838696000000003,6.858,0,0
-0.0038585880000000013,0.028209360000000006,-0.004351572600000001,-0.046518300000000005,-0.028549460000000002,6.859,0,0
0.0028785720000000002,0.009354300000000003,0.0012563554,-0.051786200000000004,-0.0337244,6.86,0,0
0.009585032,-0.01722538,0.0022551254000000003,-0.05094058,-0.03442614,6.861,0,0
0.014595152,-0.03843904000000001,0.0010100794000000002,-0.041631078,-0.029727214000000002,6.862,0,0
0.016250792000000003,-0.05121014000000001,0.0016300274,-0.023768398000000003,-0.020311884000000002,6.863,0,0
0.012350400000000001,-0.053948800000000005,0.004369666,-0.0014178380000000029,-0.008573683999999998,6.864,0,0
0.002917939999999999,-0.0410823,0.006357398,0.021086062000000003,0.0032341760000000005,6.865,0,0
-0.0088372,-0.020774380000000002,0.0086786,0.040755142,0.013252896,6.866,0,0
-0.01979848,-0.0012147600000000022,0.010836202,0.053450420000000005,0.01977445,6.867,0,0
-0.028165540000000003,0.015746080000000003,0.00913512,0.05829896000000001,0.02416076,6.868,0,0
-0.030826,0.025289320000000004,0.0032144999999999995,0.05729542000000001,0.02792692,6.869,0,0
-0.02782806,0.02439761,-0.0031045200000000012,0.05308420000000001,0.03087144,6.87,0,0
-0.023006779999999998,0.017645387999999998,-0.009637360000000001,0.047716280000000014,0.03335818,6.871,0,0
-0.017438588,0.010583312000000001,-0.013953432,0.040650780000000004,0.034303980000000005,6.872,0,0
-0.010266096,0.005537496,-0.01037648,0.030887392000000003,0.03144052,6.873,0,0
-0.0034617239999999994,0.003733796,-0.0031271800000000002,0.017731672,0.023892282,6.874,0,0
0.0014740360000000002,0.004512026000000001,0.0029968600000000005,0.0008176519999999986,0.012792722000000003,6.875,0,0
0.005984456000000001,0.009043388000000001,0.01005686,-0.020572148000000002,-0.002115258000000001,6.876,0,0
0.009726164,0.015151104000000002,0.015759300000000004,-0.043848188,-0.019460898,6.877,0,0
0.011601812000000001,0.020392920000000002,0.015220560000000001,-0.06200692000000001,-0.033025458,6.878,0,0
0.01269116,0.023600660000000002,0.014028120000000002,-0.07269446000000002,-0.040013980000000005,6.879,0,0
0.01448646,0.0210517334,0.014148960000000002,-0.07773802,-0.04305942,6.88,0,0
0.017165220000000002,0.010257213400000001,0.011511640000000002,-0.07633796000000001,-0.042267360000000004,6.881,0,0
0.019783260000000004,-0.005232186599999999,0.009501820000000001,-0.06886818,-0.037303020000000006,6.882,0,0
0.021984780000000002,-0.0188145666,0.006758606000000001,-0.059630480000000013,-0.031998900000000004,6.883,0,0
0.0246445,-0.0288696666,0.0008499860000000005,-0.04696021000000001,-0.02722322,6.884,0,0
0.026433800000000004,-0.03282126,-0.004668854,-0.02598631000000001,-0.020028018,6.885,0,0
0.025000380000000006,-0.02811682,-0.010930694000000001,0.0009482699999999976,-0.010162257999999999,6.886,0,0
0.021813998,-0.016781668,-0.017947374000000002,0.03110239,0.0013386220000000002,6.887,0,0
0.017473512,-0.003377568000000001,-0.019483998000000002,0.061497090000000004,0.013700082,6.888,0,0
0.008800932000000001,0.006597431999999999,-0.017704834000000003,0.08615364000000002,0.025134062000000006,6.889,0,0
-0.003360187999999999,0.012456830000000002,-0.017513894,0.10185942000000002,0.03488808,6.89,0,0
-0.015307148000000001,0.016337927999999998,-0.015305654,0.1087757,0.04261162,6.891,0,0
-0.027500326,0.014404452000000002,-0.0115295,0.10682436000000001,0.04820896000000001,6.892,0,0
-0.036716740000000005,0.006466952000000001,-0.007974932,0.09542924000000001,0.05158650000000001,6.893,0,0
-0.03727156,-0.00021099399999999983,-0.0016937360000000004,0.07720538,0.051631760000000006,6.894,0,0
-0.030871892200000004,-0.005044072,0.006835764000000001,0.053549606,0.046440560000000006,6.895,0,0
-0.020838646200000005,-0.00900049,0.014325324,0.023736706000000003,0.03513232,6.896,0,0
-0.0077677662000000015,-0.009196616000000001,0.018837190000000004,-0.010079234,0.019139080000000003,6.897,0,0
0.0043359338,-0.005667716,0.018698578,-0.04313391400000001,0.00043091999999999957,6.898,0,0
0.0105146938,0.00168877,0.014613958000000002,-0.07247885400000001,-0.017884780000000003,6.899,0,0
0.011381782,0.012424669999999999,0.009976524000000002,-0.09727288,-0.033453159999999996,6.9,0,0
0.0097095012,0.02278327,0.0058251760000000005,-0.11364278,-0.0451005,6.901,0,0
0.0077438452,0.029177840000000003,0.0020360039999999997,-0.1188092,-0.05195206000000001,6.902,0,0
0.005702827200000001,0.025278358,-0.001301922,-0.11221075999999999,-0.05293322,6.903,0,0
0.0044254132000000005,0.010720577999999996,-0.003919746,-0.09612357999999999,-0.04896414,6.904,0,0
0.0047296472,-0.0032261220000000023,-0.007379592000000001,-0.07536948,-0.042814960000000006,6.905,0,0
0.005973704000000001,-0.011073606000000001,-0.011988624000000002,-0.05217079,-0.03429628,6.906,0,0
0.0071743000000000015,-0.014536212000000001,-0.013079332000000003,-0.028520502000000003,-0.023725304,6.907,0,0
0.007035056,-0.011849762000000002,-0.010286804000000004,-0.007751042,-0.014012822000000001,6.908,0,0
0.006642278,-0.004544186,-0.007805192000000003,0.008203498,-0.006140702,6.909,0,0
0.007222152,0.0003045679999999994,-0.003598092000000001,0.021338898000000002,0.0016727180000000001,6.91,0,0
0.008152850000000001,-0.0023603680000000003,0.004372788,0.032452148,0.008651198,6.911,0,0
0.007780534000000001,-0.011181242000000001,0.007747754,0.0393854,0.012921902,6.912,0,0
0.007652006000000001,-0.01775183,0.0054464560000000006,0.04113376,0.014724200000000002,6.913,0,0
0.008906178,-0.016396378,0.006493742,0.03975918,0.01463846,6.914,0,0
0.008759528,-0.010038112,0.009427342000000002,0.038075359999999996,0.01372106,6.915,0,0
0.0065681706,-0.0020520119999999998,0.009338522,0.03567906,0.012898900000000001,6.916,0,0
0.0031571306000000004,0.006433278000000001,0.009423476000000002,0.03312458,0.01249482,6.917,0,0
-0.002845439400000001,0.009907292000000002,0.009668184000000002,0.032325839999999995,0.013110940000000001,6.918,0,0
-0.0122509794,0.004095603999999999,0.00516411,0.03357934,0.014823180000000002,6.919,0,0
-0.0217481734,-0.007521396000000001,-0.0018395500000000001,0.035935480000000006,0.01682192,6.92,0,0
-0.028994636000000004,-0.017510876,-0.00687603,0.038367120000000005,0.01929832,6.921,0,0
-0.033278,-0.021497406000000004,-0.009007392000000001,0.04158054,0.0223845,6.922,0,0
-0.032793,-0.019346630400000002,-0.008997072000000002,0.04537190000000001,0.025144620000000003,6.923,0,0
-0.0277009,-0.011287050400000002,-0.009485532,0.04724414000000001,0.026730800000000002,6.924,0,0
-0.019655215800000004,-0.0011058104000000006,-0.010813892,0.04474194000000001,0.02661376,6.925,0,0
-0.0106940218,0.0081845896,-0.011487192,0.037294094,0.024239060000000003,6.926,0,0
-0.0018939418000000008,0.0157627696,-0.011092358,0.025026754000000005,0.018929158,6.927,0,0
0.0062506782,0.01868036,-0.008583865999999999,0.007229194,0.010791178000000002,6.928,0,0
0.013073338200000001,0.016628260000000002,-0.0024322659999999998,-0.015029646,0.00028155800000000033,6.929,0,0
0.018250934,0.012521504000000001,0.004582734000000001,-0.036990106,-0.011419702,6.93,0,0
0.021568860000000002,0.008041712,0.009847574000000001,-0.05424532,-0.021984862,6.931,0,0
0.022281040000000002,0.00175331,0.013405262000000001,-0.0676291,-0.030588640000000004,6.932,0,0
0.019386716000000002,-0.001792828,0.0120352866,-0.07641002,-0.03647144,6.933,0,0
0.014693482600000002,0.0029580120000000003,0.005413206600000001,-0.07819012,-0.03845952,6.934,0,0
0.009941728600000001,0.011078548,-0.0015092133999999994,-0.0732814,-0.03729484,6.935,0,0
0.0061100766,0.017988140000000003,-0.0061297934,-0.060997760000000005,-0.033518440000000004,6.936,0,0
0.0044670486,0.021494882,-0.009241133799999999,-0.04151574,-0.025967192,6.937,0,0
0.0043653866,0.020632512000000002,-0.0094791572,-0.016770680000000003,-0.015399932000000002,6.938,0,0
0.0035660820000000004,0.019285172000000003,-0.0058400528,0.010018599999999999,-0.004198572,6.939,0,0
0.00113613,0.020113652000000003,-0.0008774107999999997,0.03472026,0.006790608,6.94,0,0
-0.002642738,0.020565612,0.0023006632000000006,0.05319902,0.015902068,6.941,0,0
-0.006853710000000001,0.024761032,0.0038807956000000005,0.06469633999999999,0.02137022,6.942,0,0
-0.009971603999999998,0.023242480000000003,0.006722532400000001,0.07042756,0.02416778,6.943,0,0
-0.012206726000000001,-4.006000000000148e-05,0.010254868,0.07135594,0.026326060000000002,6.944,0,0
-0.013288240000000002,-0.027467180000000004,0.012739446000000001,0.06799324,0.027833780000000002,6.945,0,0
-0.013019420000000002,-0.04897880000000001,0.014528712,0.059219400000000005,0.028251900000000003,6.946,0,0
-0.011062280000000002,-0.0698615,0.01569978,0.04583482600000001,0.027266500000000003,6.947,0,0
-0.006951824000000001,-0.07451392,0.013589140000000001,0.029171946,0.02327803,6.948,0,0
-0.0014993040000000008,-0.05725260600000001,0.00744486,0.009214405999999998,0.015634472,6.949,0,0
0.004027336,-0.04036500600000001,-0.0010195199999999995,-0.013996194000000002,0.004943652,6.95,0,0
0.008107428,-0.029413626,-0.0096276,-0.037971254,-0.008163468,6.951,0,0
0.009717472,-0.016532128000000004,-0.014084642000000001,-0.059778780000000004,-0.021901348,6.952,0,0
0.008568744,-0.004681748,-0.012452902,-0.07704576,-0.033303258,6.953,0,0
0.00551858,0.007373998000000001,-0.009000552,-0.08570054,-0.03982364,6.954,0,0
0.0022541800000000006,0.020772998,-0.005496104000000001,-0.08331392,-0.040265140000000005,6.955,0,0
0.0011878400000000001,0.032912178,1.1494399999999996e-05,-0.07164542,-0.03567252,6.956,0,0
0.0021999159999999997,0.03931616,0.0024500044,-0.05459876000000001,-0.0280492,6.957,0,0
0.003582508,0.03765984000000001,-0.0006444755999999998,-0.037066499999999995,-0.020003,6.958,0,0
0.0058407979999999995,0.027838024000000003,-0.0035746676,-0.022476268,-0.013166652,6.959,0,0
0.008567878,0.015558450000000001,-0.0032061475999999997,-0.011211958000000001,-0.007557293999999998,6.96,0,0
0.009692342,0.00946867,-0.00354871,-0.0019148579999999998,-0.0025822939999999997,6.961,0,0
0.008575112,0.00802215,-0.004812356,0.007406242,0.002858326000000001,6.962,0,0
0.007057086000000001,0.007174333999999999,-0.004400206,0.016549122000000003,0.008367526,6.963,0,0
0.0056781240000000005,0.006917567999999999,-0.004652684000000001,0.02513369,0.012797478,6.964,0,0
0.0035291578000000005,0.010171862,-0.0028243520000000005,0.033473060000000006,0.01621604,6.965,0,0
0.0017710818,0.014682442,0.0028292119999999994,0.040598640000000005,0.019361780000000002,6.966,0,0
0.00017028379999999997,0.014978322000000002,0.007521969999999999,0.045674120000000006,0.02171464,6.967,0,0
-0.0021737742000000003,0.010689758,0.010764679999999999,0.0499819,0.02319202,6.968,0,0
-0.0045552782,0.0040349800000000005,0.013817962000000001,0.05256266,0.024196420000000003,6.969,0,0
-0.006672652000000001,-0.00513408,0.012087426,0.05062512,0.024025620000000004,6.97,0,0
-0.008527258,-0.01651298,0.00628062,0.04539492,0.021920160000000005,6.971,0,0
-0.009839086,-0.022349292,0.001623472,0.037193779999999996,0.017942838000000003,6.972,0,0
-0.011024442,-0.020296908,-0.0013611080000000002,0.02403528,0.013391001999999999,6.973,0,0
-0.012838442000000002,-0.018225508,-0.0020719126,0.0075716,0.008201558,6.974,0,0
-0.015353222000000001,-0.018014627999999998,-0.0023656706,-0.00742294,0.0021506779999999996,6.975,0,0
-0.017225996,-0.012841794,-0.0046716046,-0.018746860000000004,-0.0032275620000000007,6.976,0,0
-0.015956522,-0.0012581620000000002,-0.0083695166,-0.025174500000000002,-0.006990700000000002,6.977,0,0
-0.012497598000000002,0.010862294,-0.0127961366,-0.024498594000000005,-0.009273580000000002,6.978,0,0
-0.007629394000000001,0.024063054,-0.017035654,-0.018629012000000004,-0.010168542000000001,6.979,0,0
-0.0007121940000000002,0.034837854,-0.01820084,-0.012217302000000001,-0.010246922,6.98,0,0
0.005190546,0.0319705,-0.0152740672,-0.008276566,-0.010949942,6.981,0,0
0.008347568,0.0161738,-0.0106409492,-0.007933706,-0.012038462,6.982,0,0
0.010855584,-0.0017062399999999995,-0.0042613792,-0.011007552,-0.012607366,6.983,0,0
0.01243774,-0.01483196,0.0038375608,-0.016451114,-0.01332768,6.984,0,0
0.01258134,-0.02243006,0.0095403208,-0.021793404000000002,-0.013534299999999999,6.985,0,0
0.012923440000000001,-0.02277368,0.01069484,-0.025421980000000004,-0.012033611999999999,6.986,0,0
0.012459060000000001,-0.01752776,0.010218296,-0.026605300000000002,-0.009542987999999999,6.987,0,0
0.010470468,-0.010736701999999997,0.009435609999999999,-0.02519106,-0.006887260399999999,6.988,0,0
0.007635234000000001,-0.004644276000000001,0.006934216000000002,-0.02250356,-0.0046824224,6.989,0,0
0.00454595,0.0005690940000000002,0.0033600456,-0.0190502,-0.0032906864000000003,6.99,0,0
0.001458958,0.008314454,0.00034677960000000017,-0.014774238000000002,-0.0025598844000000003,6.991,0,0
-0.0009838019999999998,0.016950934,-0.0016243144000000003,-0.009765922000000003,-0.0020253748,6.992,0,0
-0.0019920962,0.022747816,-0.0012815484000000003,-0.0031734020000000005,-0.0011110444000000002,6.993,0,0
-0.00171945648,0.027147130000000002,7.978559999999996e-05,0.006844758000000001,0.0012085375999999995,6.994,0,0
-0.0005716344799999999,0.030236020000000002,0.0002553738,0.019709938000000003,0.0055069216,6.995,0,0
0.0004194475200000001,0.027327840000000003,-0.0007592522000000003,0.032976756,0.010638351599999998,6.996,0,0
0.00128813352,0.01665968,-0.0026569522,0.04446294,0.015120978,6.997,0,0
0.00186272172,-0.00252196,-0.0035574481999999996,0.051831020000000005,0.01843964,6.998,0,0
0.0017423135999999999,-0.0323615,7.591800000000641e-06,0.0531832,0.02069352,6.999,0,0
0.0008568356000000001,-0.060036540000000006,0.010675114,0.04791646000000001,0.02087166,7.0,0,0
-0.0006664184000000001,-0.06802674,0.023827494,0.037613938,0.019070280000000002,7.001,0,0
-0.0028485124000000002,-0.05781738,0.034687754,0.024268410000000004,0.01712618,7.002,0,0
-0.0051984084,-0.035918560000000016,0.03878176,0.009296650000000004,0.014766000000000001,7.003,0,0
-0.007947926000000001,-0.0032190399999999994,0.030920864000000003,-0.0055888299999999995,0.010269378,7.004,0,0
-0.012128166000000001,0.025668700000000003,0.014558203999999998,-0.019606949999999998,0.0031049380000000002,7.005,0,0
-0.014667402000000001,0.02859316,-0.0038692760000000022,-0.033072628,-0.006544161999999999,7.006,0,0
-0.01440012,0.013581780000000002,-0.019988276000000003,-0.04471352000000001,-0.017292481999999998,7.007,0,0
-0.0125959818,0.006141134000000001,-0.030480056000000002,-0.05142024,-0.025953241999999998,7.008,0,0
-0.008160691799999998,0.008899954,-0.03323798,-0.05229892,-0.03055982,7.009,0,0
-0.0015444858000000002,0.006524933999999998,-0.030590380000000004,-0.0484914,-0.03093394,7.01,0,0
0.003996774200000001,-0.0014610660000000004,-0.024307284000000002,-0.03871572,-0.02667478,7.011,0,0
0.0069526142,-0.004495666000000002,-0.016594512,-0.023944864,-0.018954790000000003,7.012,0,0
0.00895119,-0.007237510000000001,-0.012101328000000001,-0.008801104,-0.011177694,7.013,0,0
0.009897280000000001,-0.012740309999999998,-0.009849352,0.004975596,-0.0043006139999999995,7.014,0,0
0.009201054,-0.008535889999999997,-0.009736372,0.016977316,0.002403426,7.015,0,0
0.007299494,0.00974477,-0.011803888000000002,0.025151536,0.008261306000000001,7.016,0,0
0.004983128000000001,0.02594369,-0.0136204,0.02915576,0.011911576,7.017,0,0
0.002265126,0.028079618,-0.01384141,0.0303514,0.01323112,7.018,0,0
-0.0017712200000000002,0.019709198,-0.010116046,0.028770539999999997,0.013557660000000001,7.019,0,0
-0.00510132,0.008158997999999999,-0.0031637259999999987,0.02559938,0.013339100000000001,7.02,0,0
-0.0065591140000000004,-0.002126262,0.0038144340000000015,0.0220124,0.01289256,7.021,0,0
-0.0077496940000000005,-0.009646462,0.010352074000000003,0.016636124000000002,0.011797408000000002,7.022,0,0
-0.008947742000000002,-0.012301082000000001,0.016424660000000004,0.010116874,0.009901500000000002,7.023,0,0
-0.00882121,-0.010059159600000001,0.018286700000000003,0.004862599999999999,0.007787502000000001,7.024,0,0
-0.0074487040000000004,-0.0052413416,0.016719280000000003,-0.0007745199999999999,0.00442966,7.025,0,0
-0.005172796,-0.0005345055999999996,0.01579024,-0.007213520000000001,-0.0008853400000000001,7.026,0,0
-0.0006553840000000002,0.0046150744,0.013895074,-0.011996044,-0.006072848,7.027,0,0
0.004480706,0.010382296400000001,0.0096640082,-0.015780074,-0.0094393,7.028,0,0
0.0086578,0.016041554,0.0056654902000000005,-0.01899152,-0.011723781999999999,7.029,0,0
0.012899233999999999,0.022036196,0.0041578422,-0.01900718,-0.011915015999999999,7.03,0,0
0.0163265,0.026747080000000003,0.0047290422,-0.015443730000000001,-0.009746149999999999,7.031,0,0
0.01755572,0.02843812,0.0085765082,-0.012123536,-0.00712899,7.032,0,0
0.01773458,0.02650562,0.013215074,-0.009919396,-0.005043604,7.033,0,0
0.016923994,0.022303907999999997,0.014143926000000001,-0.00707566,-0.00371462,7.034,0,0
0.013084332000000002,0.014306642000000001,0.010839574000000001,-0.00360232,-0.002983668,7.035,0,0
0.007000368000000002,-0.0030462379999999997,0.004020394,-0.0005348499999999999,-0.0023285538000000004,7.036,0,0
-0.0005305120000000003,-0.026270398,-0.003197186,0.0045528159999999995,-0.0011550338000000005,7.037,0,0
-0.008717612,-0.041549398,-0.007257679999999999,0.013273976,0.0009691522,7.038,0,0
-0.014400726,-0.046875066,-0.007516271999999999,0.0215434,0.0045032482000000006,7.039,0,0
-0.016952604,-0.04856698000000001,-0.005440787999999999,0.02707014,0.0082536522,7.04,0,0
-0.01794008,-0.04131586,-0.0034736080000000004,0.029733420000000003,0.010894672000000001,7.041,0,0
-0.016713440000000003,-0.025375,-0.005582428,0.02988492,0.013216152000000002,7.042,0,0
-0.012785964000000002,-0.014569340000000004,-0.009282714000000001,0.0271147,0.014791,7.043,0,0
-0.008181812000000002,-0.012061872000000001,-0.011782296000000001,0.021396426,0.014077280000000001,7.044,0,0
-0.004089118,-0.010624310000000001,-0.01455018,0.013698736000000001,0.011165278,7.045,0,0
0.0006421980000000001,-0.008106722,-0.01371562,0.004106196,0.006921966,7.046,0,0
0.005986338000000001,-0.004889008,-0.009190326,-0.005787324,0.0023488559999999994,7.047,0,0
0.009307842000000002,8.649200000000008e-05,-0.004714552,-0.014700024,-0.001795894,7.048,0,0
0.01097263,0.006997244000000001,0.00032002799999999955,-0.02274467,-0.005322824,7.049,0,0
0.012873876000000001,0.014571422,0.005759488,-0.028261940000000003,-0.008110962,7.05,0,0
0.01335146,0.022829714,0.010341628,-0.03027598,-0.00983731,7.051,0,0
0.011434538000000001,0.029183340000000002,0.014694294,-0.03213426,-0.0115332,7.052,0,0
0.009563936,0.029589800000000003,0.0180411,-0.03465712,-0.01431773,7.053,0,0
0.00793226,0.025872996000000006,0.017077388,-0.03483642,-0.016325440000000004,7.054,0,0
0.0046646678,0.021436756,0.014280614000000002,-0.03203627999999999,-0.015055130000000002,7.055,0,0
0.0017008218000000004,0.015127144,0.015060694000000003,-0.027000846000000002,-0.011064810000000001,7.056,0,0
0.0001849038000000001,0.008415076,0.013446674,-0.019312586000000003,-0.006127558000000002,7.057,0,0
-0.0018134842000000003,0.006380122,0.004343274,-0.00965839,-0.0005071180000000004,7.058,0,0
-0.0038912342000000004,0.008405066000000001,-0.004212034000000001,-0.0015002379999999994,0.00413084,7.059,0,0
-0.003909518200000001,0.012054666,-0.01009328,0.0037811040000000004,0.006206714000000001,7.06,0,0
-0.0032364472,0.016913678,-0.02048618,0.008226810000000001,0.006982262,7.061,0,0
-0.0032598932000000003,0.021466006000000003,-0.029229380000000003,0.012706170000000001,0.00756275,7.062,0,0
-0.0027128852,0.01766872,-0.028260180000000006,0.016206594,0.00791439,7.063,0,0
-0.0030273452,0.004089740000000001,-0.024346180000000002,0.019666862,0.007845856,7.064,0,0
-0.004718853,-0.00869914,-0.021169060000000003,0.0231834,0.007547442,7.065,0,0
-0.006702346,-0.0169416,-0.016586772,0.02539798,0.007491460000000001,7.066,0,0
-0.00994352,-0.02554382,-0.010827777460000002,0.026938260000000002,0.007240310000000001,7.067,0,0
-0.014313958000000002,-0.03186814,-0.00686408746,0.02732858,0.006247895999999999,7.068,0,0
-0.017727452,-0.02938572,-0.004459889460000001,0.025825600000000004,0.005203891600000001,7.069,0,0
-0.019241028,-0.02757358,-0.00240845546,0.022364104,0.0038867876000000003,7.07,0,0
-0.019063478000000002,-0.028851300000000003,-0.00150506346,0.017300634000000002,0.0016218235999999999,7.071,0,0
-0.015595972000000001,-0.020665040000000006,-0.0006577079999999999,0.010585256000000001,-0.0007202103999999999,7.072,0,0
-0.010100732000000001,-0.00488666,0.002472342,0.0036351960000000003,-0.0020577404000000003,7.073,0,0
-0.0057472700000000005,0.00554758,0.008889023999999999,-0.0009914019999999997,-0.0021220782,7.074,0,0
-0.0015266400000000001,0.009280654,0.01665441,-0.004207018,-0.0019049682000000002,7.075,0,0
0.0034301380000000005,0.009706494000000001,0.025667310000000006,-0.008155268,-0.0030788302000000003,7.076,0,0
0.008265392,0.005017,0.03153632,-0.01334445,-0.006028746200000001,7.077,0,0
0.013664092000000003,0.00015886199999999963,0.03203276,-0.01762615,-0.0095912422,7.078,0,0
0.019476610000000002,2.5602000000000003e-05,0.03191534,-0.021831472,-0.013223084,7.079,0,0
0.02311242,0.006469728000000001,0.02994286,-0.02638048,-0.01633218,7.08,0,0
0.02397356,0.016757728,0.022819316000000003,-0.02626532,-0.0165131,7.081,0,0
0.021732760000000004,0.023382622000000002,0.014066056000000004,-0.020817334000000003,-0.0132202466,7.082,0,0
0.016641055999999998,0.022814024000000002,0.005019036000000003,-0.013560572000000002,-0.0083107586,7.083,0,0
0.0113783128,0.014135904000000001,-0.005964524,-0.004473791999999999,-0.001966458600000001,7.084,0,0
0.0057128468,0.0019477440000000021,-0.015874144,0.006995108000000002,0.0053489414,7.085,0,0
-0.0015895731999999998,-0.010415496,-0.02238452,0.016669928,0.011477181400000001,7.086,0,0
-0.0080637932,-0.019669556,-0.022080254,0.022675302,0.015912568000000002,7.087,0,0
-0.013005269199999999,-0.021408412,-0.0173221034,0.026342700000000004,0.018797100000000004,7.088,0,0
-0.017866646,-0.018279952000000002,-0.012868999400000001,0.027661540000000002,0.02044082,7.089,0,0
-0.019435620000000004,-0.013123672000000001,-0.007709353200000001,0.02885372,0.02235846,7.09,0,0
-0.016944466000000002,-0.006985708,-0.004475933200000001,0.03086932,0.0233001,7.091,0,0
-0.013151632,-0.0013435680000000003,-0.0073355192,0.03130362,0.02204868,7.092,0,0
-0.007165435999999999,0.0029467440000000007,-0.012929769800000001,0.02838152,0.019264213999999998,7.093,0,0
0.00014176400000000039,0.0046599860000000005,-0.0177796138,0.022199246000000006,0.012954394000000003,7.094,0,0
0.0048241840000000005,0.0010805659999999998,-0.02384392,0.013137506000000002,0.0030750340000000017,7.095,0,0
0.007381694000000001,-0.004236798,-0.025386520000000003,0.0011176459999999995,-0.007052486000000001,7.096,0,0
0.009652540000000001,-0.008412936,-0.017986180000000004,-0.011822374,-0.015487306000000003,7.097,0,0
0.009679738000000002,-0.010944468,-0.00789726,-0.022836693999999998,-0.021339900000000002,7.098,0,0
0.0070789974,-0.0038854300000000005,0.0012258199999999999,-0.03228804,-0.024157520000000002,7.099,0,0
0.0031024574,0.010450949999999999,0.00954732,-0.043026720000000004,-0.025297080000000003,7.1,0,0
-0.0015331266000000003,0.02153447,0.01691294,-0.05272698,-0.02548784,7.101,0,0
-0.005217962600000001,0.028665147999999998,0.02133266,-0.05682726,-0.024388260000000002,7.102,0,0
-0.0067614966,0.03191496,0.02297108,-0.05592860000000001,-0.02238668,7.103,0,0
-0.005611582,0.025241268,0.025830040000000002,-0.05144456,-0.01990418,7.104,0,0
-0.0012468419999999997,0.013395188,0.029161720000000002,-0.04323604,-0.016835620000000003,7.105,0,0
0.005170918,-0.0003052920000000013,0.029204440000000005,-0.03217228,-0.012594630000000002,7.106,0,0
0.011001394000000001,-0.019407292000000003,0.020134354000000004,-0.020317902000000002,-0.007808316000000002,7.107,0,0
0.014497554,-0.033596772000000004,0.005421474000000001,-0.007981622,-0.002844096,7.108,0,0
0.015866659999999998,-0.0375654,-0.006902626000000001,0.0034953580000000005,0.002437584,7.109,0,0
0.0169867,-0.034127478,-0.016297366,0.012247918,0.007115504,7.11,0,0
0.01840224,-0.019305998000000005,-0.021281828000000003,0.019242138000000002,0.010665554,7.111,0,0
0.018092840000000002,0.004894281999999998,-0.016869722000000004,0.024871360000000002,0.0137592,7.112,0,0
0.015179812,0.023188942000000004,-0.008259685999999999,0.028512080000000002,0.01586076,7.113,0,0
0.010362312,0.031458062,-0.009483926,0.03214268,0.01675232,7.114,0,0
0.003647412000000001,0.0346659,-0.014807566,0.03754988,0.0179206,7.115,0,0
-0.004535988,0.030208920000000004,-0.019627204000000002,0.04182752,0.01882,7.116,0,0
-0.012356728,0.019659792000000002,-0.025222064,0.042700440000000006,0.01835688,7.117,0,0
-0.018778339999999998,0.007264932,-0.022871880000000004,0.041025,0.017142,7.118,0,0
-0.02415728,-0.005443368000000002,-0.007894680000000001,0.036931820000000004,0.01613558,7.119,0,0
-0.02906636,-0.020778408000000005,0.008006860000000001,0.030232480000000003,0.01526094,7.12,0,0
-0.03172744,-0.032920888,0.020876540000000002,0.022319444,0.014134180000000003,7.121,0,0
-0.03139518,-0.03693322,0.04222658,0.013728702,0.011804676000000002,7.122,0,0
-0.026863458000000003,-0.037643260000000005,0.06269048,0.004598462,0.007824354000000002,7.123,0,0
-0.015685058,-0.03250452,0.06525792000000001,-0.0036679980000000004,0.0027224739999999995,7.124,0,0
-0.0020053380000000006,-0.0183878,0.05043712000000001,-0.011618218000000001,-0.004597066,7.125,0,0
0.008161082,-0.004738000000000003,0.02256160000000001,-0.020530262,-0.013255146,7.126,0,0
0.013779978,0.001868439999999999,-0.0200453,-0.02659226,-0.018424402000000003,7.127,0,0
0.017373656,0.015606360000000001,-0.05747092,-0.027176440000000003,-0.018826884000000002,7.128,0,0
0.018408036,0.0393546,-0.069791694,-0.02621238,-0.018320678,7.129,0,0
0.016806796,0.06405858,-0.059360834,-0.02374118,-0.016768418,7.13,0,0
0.010920507999999999,0.0895602,-0.033962554000000006,-0.016841196000000003,-0.012378178,7.131,0,0
7.319999999998161e-07,0.10533000000000001,-0.0018553940000000015,-0.009296045999999999,-0.008652738,7.132,0,0
-0.013673428,0.08960412000000001,0.026458526000000003,-0.006475748,-0.007577810399999999,7.133,0,0
-0.028395108,0.047331120000000004,0.04250434,-0.006417068,-0.0066521003999999995,7.134,0,0
-0.033530958,0.002696499999999994,0.05782356000000001,-0.006431208000000001,-0.0045987544,7.135,0,0
-0.018982970000000002,-0.03884386,0.06780124000000001,-0.008262952,-0.0029002704,7.136,0,0
0.011023869999999996,-0.07149878,0.048347640000000004,-0.011979222000000001,-0.0023752794,7.137,0,0
0.03876923,-0.08211796000000002,0.004356539999999999,-0.014500560000000003,-0.0022597026,7.138,0,0
0.05478485000000001,-0.06784992000000001,-0.038259440000000006,-0.013441694,-0.0014218313999999998,7.139,0,0
0.05791045400000001,-0.04692902000000001,-0.07553256,-0.009433826,0.0004826446,7.14,0,0
0.04414842,-0.03364960000000001,-0.09950740000000001,-0.0022734060000000004,0.0030557606000000005,7.141,0,0
0.01866948,-0.026666960000000003,-0.08930640000000001,0.008149814,0.006517469600000001,7.142,0,0
-0.005586560000000001,-0.029453060000000003,-0.05759592400000001,0.018803194000000002,0.0102253892,7.143,0,0
-0.02107448,-0.0430161,-0.025753004000000003,0.028584808000000003,0.014032042000000002,7.144,0,0
-0.028880733999999998,-0.05765138,-0.0008365040000000009,0.03724936,0.01782548,7.145,0,0
-0.03045162,-0.061967720000000004,0.017338976,0.04142150000000001,0.0201997,7.146,0,0
-0.027783053999999998,-0.050536260000000006,0.023618836,0.040276900000000004,0.020471960000000004,7.147,0,0
-0.020880084,-0.022921820000000002,0.0201168,0.03733106,0.019461660000000002,7.148,0,0
-0.011977661999999998,0.006402399999999999,0.014238660000000002,0.03279024,0.017720660000000003,7.149,0,0
-0.00698662,0.0258113,0.0023283799999999997,0.024541246,0.014286948000000002,7.15,0,0
