bandpass 1,bandpass 2,bandpass 3,bandpass 4,bandpass 5,time,onset,mark
-0.000736801,-0.0005495034,-0.006539384000000001,-0.000901325,0.0013850260000000001,4.927,0,0
-0.0009164654000000001,0.0005379046,-0.0070369080000000014,7.201500000000003e-05,0.0015375492,4.928,0,0
-0.0005282454,0.0009917405999999998,-0.004583168000000001,0.001011773,0.0014715928000000001,4.929,0,0
0.0005619046,0.0011440359999999998,-0.003081510000000001,0.002030777,0.0012081816,4.93,0,0
0.0012885016,0.002879108,0.0005333039999999996,0.003101293,0.0004424476,4.931,0,0
0.0017823536000000002,0.004795052000000001,0.005766342,0.00392977,-0.0004834624,4.932,0,0
0.002246324,0.006112684,0.0070299740000000005,0.003055468,-0.0010123076,4.933,0,0
0.0024776579999999998,0.008239408000000002,0.004324492,0.0021600089999999996,-0.0015317472,4.934,0,0
0.002269782,0.009661082000000001,0.0014277099999999998,0.002722227,-0.001837404,4.935,0,0
0.0016432144000000002,0.008229782000000001,-0.00024212200000000021,0.003958115,-0.0014627614,4.936,0,0
0.001010404,0.0033628020000000007,-0.001469578,0.0054992010000000004,-0.0013661174000000002,4.937,0,0
0.00047481600000000003,-0.004103598000000001,-0.003121914,0.007497162999999999,-0.0015396374000000003,4.938,0,0
-0.0003726659999999999,-0.011195298000000001,-0.003962142,0.008364236,-0.0012547454,4.939,0,0
-0.0009026189999999999,-0.014929978000000002,-0.003848626,0.007341555600000001,-0.0016349514,4.94,0,0
-0.0012307134,-0.014217034,-0.003516286,0.005682275600000001,-0.0024539920000000003,4.941,0,0
-0.001294779,-0.010009268,-0.002486032,0.0035224304,-0.0026116140000000004,4.942,0,0
-0.0009477378,-0.0030866540000000007,0.00014885400000000035,0.0013122004000000003,-0.0021357120000000005,4.943,0,0
-0.0012822558000000002,0.005295486,0.003144074,0.00018588640000000002,-0.001442946,4.944,0,0
-0.0018020288,0.011242866,0.005651412000000001,-0.0008022851999999999,-0.000188888,4.945,0,0
-0.0016309248000000002,0.012630484,0.006912272000000001,-0.0030334311999999997,0.001481946,4.946,0,0
-0.0013173412000000004,0.011820550000000003,0.005029330000000001,-0.00513952,0.0023929460000000004,4.947,0,0
-0.0009711124000000003,0.010131697600000001,0.001809886000000001,-0.006205952000000001,0.0029885040000000003,4.948,0,0
9.289159999999999e-05,0.0055043336,-3.2451999999999424e-05,-0.00673374,0.0036675820000000004,4.949,0,0
0.0009802162,-9.093839999999953e-05,-0.00190673,-0.006672694000000002,0.0034366080000000003,4.95,0,0
0.0008279982,-0.0041126424,-0.00476643,-0.006153432,0.0021328420000000002,4.951,0,0
0.00033168260000000007,-0.007354914400000001,-0.005580904,-0.00581133,0.0011959040000000002,4.952,0,0
5.435980000000003e-05,-0.009501974,-0.004694862,-0.005651038000000001,0.0004519000000000001,4.953,0,0
-0.00014881020000000005,-0.009689876,-0.005180538,-0.004767797,-0.000797881,4.954,0,0
-0.0002951442000000001,-0.008223744000000002,-0.005668448,-0.0034226890000000005,-0.0012660927999999998,4.955,0,0
0.0001386078,-0.006396800000000001,-0.0041852320000000005,-0.0021148860000000003,-0.0008348818,4.956,0,0
0.0003207438,-0.004389446,-0.002438446,-0.0006052936,-0.000503539,4.957,0,0
-0.0002629794,-0.002805848,-0.002303554,0.0004904456,-0.00046763580000000005,4.958,0,0
-0.0005725074,-0.002359528,-0.001558426,0.00013553059999999999,-0.00027209294,4.959,0,0
-0.000311956,-0.0021177452000000004,0.0002264900000000002,-0.0006060314000000001,-0.00012703394000000004,4.96,0,0
-0.00018774200000000002,-0.00039777919999999987,0.0008092544000000002,-0.00012579240000000003,-0.00041564574000000005,4.961,0,0
-0.00019819199999999998,0.0026144068,0.0013752144000000002,0.0006828811999999999,1.029545999999996e-05,4.962,0,0
0.00015292560000000006,0.0048208388,0.0026123144000000003,0.0012606219999999999,0.00103980826,4.963,0,0
0.0004297176,0.0061259508,0.0030663204,0.0025130480000000004,0.0015519424000000003,4.964,0,0
0.00023863300000000003,0.006575936,0.0033323484,0.003757786,0.0018740352000000003,4.965,0,0
0.0003918830000000001,0.00556624,0.00457909,0.003562108,0.0021703446,4.966,0,0
0.001173941,0.004034966000000001,0.004751932,0.0028951484000000003,0.0015792506000000001,4.967,0,0
0.0013153321999999999,0.0030772020000000002,0.0033198600000000004,0.0024776264,2.862860000000004e-05,4.968,0,0
0.0009969264000000001,0.00250387,0.00176392,0.0015991624000000002,-0.0015578394,4.969,0,0
0.0006501530000000002,0.0020614826,-1.0951999999999837e-05,0.0011073284,-0.0028727514,4.97,0,0
-7.699699999999998e-05,0.0020989446000000004,-0.0017989340000000003,0.0015614184,-0.0034720780000000004,4.971,0,0
-0.0006702774000000001,0.0023754506,-0.002684146,0.002346196,-0.0031878605999999996,4.972,0,0
-0.0010236042,0.0028303906,-0.002073137,0.002931406,-0.0019478545999999995,4.973,0,0
-0.0013826844,0.0039380826,-0.0015198030000000001,0.002750798,-0.00045464660000000005,4.974,0,0
-0.0017456084000000002,0.004817458,-0.0017710770000000002,0.0017918080000000002,0.00031384740000000005,4.975,0,0
-0.0019314364,0.0037971880000000004,-0.0013542308000000002,0.0002421019999999998,0.0006288530000000002,4.976,0,0
-0.0020603306,0.0008975960000000001,-0.0005763108000000003,-0.001658522,0.00035963960000000007,4.977,0,0
-0.0019518124000000002,-0.0024914720000000002,-0.0005252240000000001,-0.003156382,-0.0005533044,4.978,0,0
-0.0013550512,-0.005813250000000001,0.00020776599999999985,-0.004009466,-0.0012409924000000001,4.979,0,0
1.7238799999999988e-05,-0.008214962000000001,0.001563194,-0.0044213180000000005,-0.0010939044,4.98,0,0
0.0017516508000000003,-0.009561368,0.0019695238,-0.0034926704,-0.0006331360000000002,4.981,0,0
0.0028231674000000003,-0.009907908,0.0024796178,-0.0013846103999999998,0.00038235599999999993,4.982,0,0
0.0035795212,-0.007323728,0.0033278500000000003,0.0005808955999999999,0.0016416360000000001,4.983,0,0
0.0035915400000000003,-0.0035210299999999996,0.0029372340000000004,0.0030670396,0.002358886,4.984,0,0
0.0025504440000000002,-0.0013856779999999991,0.0017626940000000004,0.0054620676,0.0029639160000000005,4.985,0,0
0.0013417224,7.987000000000033e-05,0.0009680680000000001,0.005720774,0.0028050392,4.986,0,0
0.00027552800000000004,0.0011699200000000005,-0.0005509500000000001,0.0045277922,0.0015559832000000002,4.987,0,0
-0.00071739,0.00023086400000000038,-0.002560674,0.0030405392,0.0002982492,4.988,0,0
-0.0009954130000000001,-0.001130832,-0.0036727020000000008,0.0005751012,-0.0006140608,4.989,0,0
-0.0005932280000000001,-0.000799258,-0.004162034000000001,-0.0020441628000000002,-0.0016812968000000004,4.99,0,0
-0.0007662284,0.000535064,-0.005100492000000001,-0.0035646528,-0.00237751,4.991,0,0
-0.001068944,0.002568574,-0.00526885,-0.0050494089999999995,-0.0023635600000000002,4.992,0,0
-0.000948188,0.00427656,-0.0035010840000000007,-0.0054907440000000005,-0.0022676780000000004,4.993,0,0
-0.000933288,0.005283314000000001,-0.0013249800000000001,-0.0037098780000000007,-0.0021059660000000003,4.994,0,0
-0.0009021699999999999,0.006259706,0.0017929280000000003,-0.0013334979999999998,-0.001887886,4.995,0,0
-0.00017614999999999992,0.006990098000000001,0.005833854,0.00143701,-0.0013233305200000003,4.996,0,0
0.000641316,0.006743884,0.00975582,0.00522662,-0.0004449425200000002,4.997,0,0
0.0006972,0.0059022860000000005,0.011733014,0.008095864,0.00017833747999999985,4.998,0,0
0.0009117512,0.003917814,0.011057870000000001,0.008420288,0.00066191568,4.999,0,0
0.0014293182,0.000517188,0.010694526000000001,0.007817095999999999,0.0009610516800000001,5.0,0,0
0.0012742622,-0.0025747640000000002,0.012033346,0.006889374000000001,0.0006920062000000001,5.001,0,0
0.0010011796,-0.004282392,0.011282386,0.003989344000000001,0.0001805168000000001,5.002,0,0
0.0009879976,-0.0043176759999999995,0.004088846000000001,5.866199999999991e-05,-0.0001826762,5.003,0,0
0.00019455139999999998,-0.003451786,-0.004220424000000001,-0.0027930600000000004,-0.0005665358,5.004,0,0
-0.0010680006000000001,-0.0017397438000000005,-0.009256620000000002,-0.005778282000000001,-0.0006664734,5.005,0,0
-0.0018003946,0.0004908542000000002,-0.015359690000000002,-0.009237532000000001,-0.0006214394,5.006,0,0
-0.002365276,0.0025064022,-0.023213150000000002,-0.010440104000000002,-0.0003286806,5.007,0,0
-0.003120204,0.0028114262,-0.02501427,-0.009742936,0.0006533764000000002,5.008,0,0
-0.003157332,0.0019218562,-0.02004561,-0.009207484,0.0016111198,5.009,0,0
-0.0024957302,0.0019219594000000003,-0.017548320000000003,-0.007708506000000001,0.0022584394000000002,5.01,0,0
-0.0020926504,0.0019264394000000002,-0.01613919,-0.00547514,0.0023602170000000004,5.011,0,0
-0.0013787064,0.00024193740000000004,-0.009819214,-0.004671444,0.0019904924,5.012,0,0
0.0001941356,-0.0023224166,-0.00046673400000000033,-0.004656172,0.0015976964000000001,5.013,0,0
0.0011947816,-0.0036676746000000003,0.007031906000000001,-0.003774399,0.0010127726,5.014,0,0
0.0011050057999999999,-0.00474545,0.012359216000000001,-0.002382239,0.00043292300000000004,5.015,0,0
0.001063564,-0.005235762200000001,0.016708356,-0.0011382710000000002,0.00048233,5.016,0,0
0.000631444,-0.0037492702000000004,0.017759332,0.0008895250000000001,0.0004686528,5.017,0,0
-0.0003644860000000001,-0.0010582842000000001,0.015783454000000002,0.0035187029999999998,-0.000201513,5.018,0,0
-0.000450806,0.00048629179999999997,0.012729276000000001,0.0056549320000000005,-0.000458324,5.019,0,0
0.00020447200000000003,-0.00021965419999999997,0.009432696,0.0072567940000000004,-2.290240000000002e-05,5.02,0,0
0.0002473718,-0.0020258279999999995,0.006416506,0.008569408,0.000539859,5.021,0,0
0.0003251924,-0.0049972639999999995,0.0045004896,0.009528448,0.0008440794,5.022,0,0
0.0011585984,-0.008848848000000001,0.0035293967,0.009630684,0.0008015496,5.023,0,0
0.0009261264,-0.011773278000000002,0.0022125467,0.00937683,0.00017610239999999995,5.024,0,0
-5.817760000000001e-05,-0.013554198,0.0014101167000000001,0.008741131999999999,-0.0005994976,5.025,0,0
0.00037609460000000004,-0.01461976,0.0020579407,0.0076598379999999995,-0.0009892344000000002,5.026,0,0
0.001148102,-0.013954278,0.0027791991000000005,0.006540178,-0.0007911064000000001,5.027,0,0
0.000990178,-0.009627104000000001,0.0022641500000000004,0.0047383514,3.3183200000000174e-05,5.028,0,0
0.0007283299999999999,0.0011317359999999995,0.0014859580000000008,0.0022851494000000003,0.0010976192000000003,5.029,0,0
0.000589014,0.015076596000000001,0.00042447000000000014,-0.0007034566000000002,0.0016767812,5.03,0,0
-0.00012060800000000002,0.025407736,-0.0019839080000000004,-0.0038330506000000004,0.0011940300000000002,5.031,0,0
-0.0007327448,0.031023014,-0.003718696,-0.006544916600000001,0.0001851060000000001,5.032,0,0
-0.0004226267999999998,0.03206982,-0.004308954,-0.007864958000000002,-0.0007767360000000001,5.033,0,0
0.00029400120000000013,0.025591460000000003,-0.00538032,-0.007449612000000001,-0.0013408726,5.034,0,0
0.0006473854,0.01304186,-0.006452986,-0.005668234000000001,-0.0017008806000000003,5.035,0,0
0.0008138678000000001,0.00030864000000000065,-0.006524566000000001,-0.0029861320000000003,-0.00131882114,5.036,0,0
0.0007339378000000002,-0.00795232,-0.006218236,-0.0011120274000000002,-0.0006661943400000001,5.037,0,0
2.209420000000005e-05,-0.0103706796,-0.005906232000000001,-0.0004556734000000001,-0.00056049374,5.038,0,0
-9.467179999999995e-05,-0.009783553599999998,-0.004813332,-0.0015206594,-0.0007938891400000001,5.039,0,0
0.00029247800000000004,-0.0066574336,-0.0031754862000000004,-0.0038467934000000004,-0.00148505314,5.04,0,0
0.00014508560000000003,-0.0006382675999999994,-0.0018335742000000002,-0.0054508354,-0.0018625206,5.041,0,0
-0.00010227160000000001,0.0044475664,-0.0005759122000000001,-0.006250678,-0.0018373334000000004,5.042,0,0
-0.00034063400000000003,0.0047930740000000005,0.0009216938000000001,-0.006840202,-0.001739971,5.043,0,0
-0.0009650419999999999,0.002016596,0.0009691618000000001,-0.006091644,-0.001054897,5.044,0,0
-0.001614152,-0.001811384,-0.0003181099999999999,-0.004105442,0.00014499100000000008,5.045,0,0
-0.001540269,-0.00675817,-0.000931092,-0.0026323579999999996,0.000761393,5.046,0,0
-0.0009849209999999997,-0.010624744,-0.0011185979999999997,-0.0005269859999999995,0.001276447,5.047,0,0
-0.0006251001999999999,-0.011940104,-0.0017112181999999999,0.0026228280000000002,0.002000648,5.048,0,0
-0.00019680719999999997,-0.011599438,-0.0012843102399999998,0.005278592,0.002079978,5.049,0,0
0.00037440800000000006,-0.009935986,-0.00021826624000000002,0.007016868,0.002007852,5.05,0,0
0.00027774500000000003,-0.006760106,-0.0007307422400000002,0.007585938000000001,0.002073128,5.051,0,0
3.9937e-05,-0.004486508,-0.0011846276400000002,0.006619700000000001,0.0014505289999999999,5.052,0,0
0.0008851821999999999,-0.004021572,-0.00042331744000000007,0.004413272,0.00032566699999999997,5.053,0,0
0.0013463212,-0.002857388,0.00038156659999999995,0.001913318,-0.00035659300000000005,5.054,0,0
0.0009782162,-0.0004974140000000001,0.0017004586,-8.688599999999983e-05,-0.0011103570000000002,5.055,0,0
0.0013301264,0.0022397579999999997,0.004769048600000001,-0.0016305360000000001,-0.001706919,5.056,0,0
0.0014611976,0.00536032,0.007856542000000001,-0.0023429600000000003,-0.0014562638,5.057,0,0
0.00032497159999999995,0.008428236,0.00983674,-0.0022608940000000003,-0.0013430198000000003,5.058,0,0
-0.00041783580000000003,0.010376338,0.011898766000000002,-0.0025769940000000004,-0.0016447278000000002,5.059,0,0
3.3739999999999714e-06,0.010639504000000001,0.012705394000000002,-0.0028274920000000005,-0.0014970398,5.06,0,0
-0.00012758840000000004,0.008905363000000001,0.008977572,-0.0024115900000000003,-0.0013336448,5.061,0,0
-0.0003084846,0.003959002999999999,0.002120292000000001,-0.0023104020000000005,-0.001464575,5.062,0,0
1.328063999999999e-05,-0.002128517,-0.004574887999999999,-0.0025264820000000005,-0.0009224476000000001,5.063,0,0
3.623263999999998e-05,-0.005626293,-0.011533688,-0.00190871,-8.921339999999999e-05,5.064,0,0
-0.00030031896,-0.007285741,-0.015385382,-0.0009768700000000003,0.00023114460000000004,5.065,0,0
-0.0007424587600000001,-0.0075310334000000005,-0.013114556000000001,-0.00015770200000000012,0.0006254176000000001,5.066,0,0
-0.0006660001599999999,-0.004480837400000001,-0.008282502,0.0017460219999999999,0.0011962436,5.067,0,0
-0.0006497599200000001,-0.0004956614000000002,-0.0035215019999999993,0.004070392000000001,0.0013474482,5.068,0,0
-0.00058493932,0.00017487060000000003,0.001434992,0.00584932,0.0012287560000000001,5.069,0,0
-0.0001998877200000001,-0.0008214154,0.004718511999999999,0.007787444000000001,0.0011317772000000001,5.07,0,0
3.180227999999996e-05,-0.001466372,0.005005942,0.009579830000000001,0.0006243972,5.071,0,0
-4.610252000000004e-05,-0.002715884,0.004377442,0.00992894,-0.0005096867999999999,5.072,0,0
0.00011089439999999995,-0.00419878,0.002246238,0.008995724000000002,-0.0012051848,5.073,0,0
0.0004963871999999999,-0.00438422,-0.003328616,0.007455135600000001,-0.0011657961999999998,5.074,0,0
0.0005222132,-0.004014972,-0.008097916,0.004917907600000001,-0.0008816703999999999,5.075,0,0
0.0008083022,-0.0037956520000000005,-0.007725304000000001,0.0023097136000000003,-7.683839999999989e-05,5.076,0,0
0.0004896854,-0.0011391840000000001,-0.006307900000000001,0.0005951518000000002,0.0015288016,5.077,0,0
-0.00034940500000000017,0.0031132359999999997,-0.0047907520000000006,-0.0008334282000000001,0.0029790516,5.078,0,0
-0.0006133104000000001,0.005850060000000001,0.000115354,-0.0030147858,0.003448293,5.079,0,0
-0.00041273640000000016,0.007782168,0.0034286536000000005,-0.0056419378,0.003383223,5.08,0,0
-5.357540000000023e-05,0.009300158000000001,0.0017147716000000006,-0.0083892238,0.0027131706,5.081,0,0
0.00041507999999999985,0.008221016,2.4318920000000044e-05,-0.012402300000000002,0.0013890986,5.082,0,0
0.0014432919999999999,0.0056972559999999995,-4.3335079999999874e-05,-0.015728940000000004,-2.5439399999999904e-05,5.083,0,0
0.0018221393999999999,0.00495397,4.133692000000012e-05,-0.016342719999999998,-0.0009390314,5.084,0,0
0.0013156674,0.005744736,0.0012027933200000002,-0.01572968,-0.0015167144,5.085,0,0
0.0010589612,0.006655790000000001,0.0031035813200000002,-0.014505572000000001,-0.002015514,5.086,0,0
0.000897942,0.007409426,0.003635222,-0.011496848000000002,-0.002733712,5.087,0,0
0.00013747400000000006,0.007333656000000001,0.0024805799999999996,-0.007368596000000001,-0.0035234020000000006,5.088,0,0
-0.000633422,0.005483356000000001,0.0008308859999999999,-0.0031587100000000003,-0.0033553588,5.089,0,0
-0.0008290240000000001,0.002818862,-0.0014853520000000003,0.0017208100000000001,-0.0023043748000000004,5.09,0,0
-0.0015280078000000001,0.00018951599999999982,-0.004069804,0.006692462,-0.0010846728,5.091,0,0
-0.0020552780000000002,-0.00349657,-0.004659178000000001,0.010211438,0.0001354232000000001,5.092,0,0
-0.0017102862,-0.00703324,-0.0024973459999999997,0.012591165999999999,0.0012696226000000002,5.093,0,0
-0.0016300482000000001,-0.008523154000000002,0.00095429,0.01491448,0.0016132386000000001,5.094,0,0
-0.0020108982,-0.008944344,0.004687092,0.01637464,0.0012352646,5.095,0,0
-0.0016835082000000003,-0.009361882,0.008459012,0.0170864,0.0009423986000000001,5.096,0,0
-0.0006353322,-0.008694554,0.011197580000000002,0.01797788,0.0012460986,5.097,0,0
-0.0001594580000000003,-0.006158290000000001,0.010958744,0.0177935,0.0016887132000000002,5.098,0,0
0.00040185199999999996,-0.004376262000000001,0.009168308,0.014553988,0.001902244,5.099,0,0
0.001617388,-0.004048478,0.008119059999999999,0.009356626,0.00214371,5.1,0,0
0.00240856,-0.00354154,0.0063144640000000005,0.004043135999999999,0.0020015230000000003,5.101,0,0
0.0022906140000000003,-0.002654116,0.0043181899999999995,-0.002070344,0.001508005,5.102,0,0
0.0021236120000000004,-0.0020322326000000003,0.00416151,-0.007832844,0.0008515829999999999,5.103,0,0
0.0018740242000000002,-0.00022443660000000015,0.003928627,-0.010980852000000001,0.0006104774,5.104,0,0
0.0010982816000000002,0.0039060034,0.001739885,-0.01199451,0.0006774134,5.105,0,0
0.0003124096,0.0075187834,-0.000498963,-0.012035898000000001,0.0006908384000000001,5.106,0,0
-0.0006177424,0.010415171400000001,-0.002956947,-0.010277462000000001,0.0009383824000000001,5.107,0,0
-0.0015852984000000003,0.011243286000000002,-0.006699491,-0.007905954,0.0009098184000000001,5.108,0,0
-0.0019976526,0.006263202000000001,-0.009285992,-0.007106076,0.0004946620000000001,5.109,0,0
-0.0017988562000000002,-0.0017031180000000009,-0.009945768,-0.006805798,-0.00041815,5.11,0,0
-0.0012453502000000002,-0.007692338,-0.009893408000000001,-0.006909098,-0.001877798,5.111,0,0
0.00011500980000000007,-0.013211038000000001,-0.008543575999999999,-0.007913824,-0.0032461820000000002,5.112,0,0
0.0014829898000000002,-0.01699538,-0.00527419,-0.008735114000000002,-0.0035529739999999995,5.113,0,0
0.0019495687999999999,-0.014055122000000003,-0.0022570760000000002,-0.008478746,-0.003297462,5.114,0,0
0.0017116188,-0.008531984000000001,-0.00095484,-0.00826186,-0.0029372792,5.115,0,0
0.0011629028000000002,-0.004809316000000001,-0.0003041379999999999,-0.008436364,-0.0017713608000000003,5.116,0,0
0.00046091759999999997,-0.0006398420000000005,-0.00052634,-0.0070789600000000005,-0.0006082466,5.117,0,0
-0.0008386124,0.004356478,-0.002299148,-0.004600058000000001,6.92862e-05,5.118,0,0
-0.0014062754000000002,0.00733722,-0.004001318,-0.0024186960000000006,0.00039796620000000005,5.119,0,0
-0.0013226684,0.009348402,-0.004374078,0.00018635799999999997,0.0004094494,5.12,0,0
-0.0018473344,0.012879874,-0.00410219,0.00412654,0.00028469300000000003,5.121,0,0
-0.0018763026000000003,0.01616232,-0.0027721220000000006,0.008081465999999999,-6.798519999999997e-05,5.122,0,0
-0.00048674660000000013,0.01747278,0.00031756799999999984,0.011297746000000001,-0.000518056,5.123,0,0
0.00035915739999999995,0.017462039999999998,0.003308666,0.014839758,-0.00081375124,5.124,0,0
0.0005028204,0.016000556,0.005518158,0.01803464,-0.00043036924000000007,5.125,0,0
0.001387349,0.010953697999999998,0.007892812,0.019158500000000002,0.00031999075999999987,5.126,0,0
0.0015670784,0.002944578,0.008540602,0.017933220000000003,0.0008241867599999999,5.127,0,0
0.0010205224000000002,-0.004594162000000001,0.005632506,0.015201560000000001,0.00119952016,5.128,0,0
0.0008697664,-0.010545802000000002,0.0015546240000000005,0.010884903400000001,0.0010603014,5.129,0,0
0.0009402534,-0.014162818000000002,-0.0012704020000000001,0.0053624274,0.0007991941999999998,5.13,0,0
0.0007953586,-0.013565416000000002,-0.0037767100000000004,4.3899399999999724e-05,0.0005287102,5.131,0,0
0.0006966594,-0.009837365800000001,-0.005361826,-0.004728560600000001,0.00011760439999999997,5.132,0,0
0.0008465094,-0.005539349799999999,-0.003918276,-0.008481100600000001,6.115077999999997e-05,5.133,0,0
0.0010242354,-0.0010127518000000004,-0.0015376752,-0.010486484,0.00024881678,5.134,0,0
0.0010569598000000002,0.0025613142000000004,-0.0002476418,-0.010873336,0.00010677577999999998,5.135,0,0
0.001302652,0.0035269842,0.0007184202000000001,-0.010367096000000001,-0.00031256982000000004,5.136,0,0
0.0010934468000000001,0.00226582,0.0009334212,-0.00865606,-0.00026811322000000004,5.137,0,0
-0.0006316551999999999,-0.0014912760000000001,0.00045804920000000005,-0.006031466,-0.00044849200000000004,5.138,0,0
-0.0023509412,-0.005903014,0.0005998584000000001,-0.00413699,-0.0008218740000000001,5.139,0,0
-0.0032320824000000004,-0.008340124,0.0013704330000000001,-0.0031361440000000004,-0.00088995,5.14,0,0
-0.004257830400000001,-0.009050019542,-0.00028799300000000006,-0.00224945,-0.0008022242,5.141,0,0
-0.004970538,-0.007709867742,-0.0034029880000000005,-0.0018474900000000002,-0.0007541700000000001,5.142,0,0
-0.0038616660000000006,-0.004237290002,-0.0031077138000000005,-0.0021193252,-0.0007335848000000001,5.143,0,0
-0.0027202880000000004,-0.0007324060019999999,-0.0006343038000000004,-0.0014052972,-0.00035335520000000004,5.144,0,0
-0.0022886600000000005,0.000720527998,0.0013437521999999998,0.00021912280000000004,-0.0001796354,5.145,0,0
-0.0009751280000000002,0.00032260154,0.0054633642,0.0017290428000000004,-8.895500000000003e-05,5.146,0,0
0.0003630539999999999,-0.00045045425999999997,0.0113022242,0.0029830408000000004,-5.322000000000011e-06,5.147,0,0
0.00129628,0.0001865560000000001,0.012703134000000001,0.004046480000000001,-3.662460000000001e-05,5.148,0,0
0.002265516,0.0010036620000000002,0.009914069000000003,0.004093254,-3.326680000000002e-05,5.149,0,0
0.002894692,0.0006894080000000003,0.003401769,0.0027525180000000002,-8.879832000000002e-05,5.15,0,0
0.0025374846000000006,0.0015956180000000003,-0.005664271,0.00157182,-6.218772000000002e-05,5.151,0,0
0.0021060784,0.0030398980000000005,-0.010323460999999999,0.0005819222,0.00014713547999999999,5.152,0,0
0.0018898584,0.00278207,-0.010808523,-0.0001535227999999999,0.00079664988,5.153,0,0
0.000991818,0.0018329152000000001,-0.011037986,0.00018871920000000013,0.00114746048,5.154,0,0
0.00032923999999999996,0.0013389672,-0.009678186,0.0014826852000000001,0.0011024716,5.155,0,0
0.00034587139999999996,0.0002795491999999999,-0.006169786,0.0021032052,0.001088304,5.156,0,0
-8.886840000000006e-05,-0.0011305108,-0.005482398,0.001997323,0.0010096102,5.157,0,0
-0.0010593084000000003,-0.0018679188000000002,-0.007589164,0.0017485322000000002,0.00055804824,5.158,0,0
-0.000889426,-0.0020645520000000003,-0.007527468,0.0007442681999999999,4.041464e-05,5.159,0,0
-0.00025231999999999994,-0.0009656720000000002,-0.0043108239999999996,-0.00010791940000000002,0.0005061954400000001,5.16,0,0
-0.0003937836,0.001522228,-0.0005761259999999997,-8.175940000000002e-05,0.0010041378400000001,5.161,0,0
0.0001266478,0.0032921520000000004,0.0026212780000000003,0.00045847860000000005,0.00095334504,5.162,0,0
0.0009488538,0.0030562600000000003,0.0069870520000000005,0.0004269794000000001,0.0008785943999999999,5.163,0,0
0.0008596945,0.002454908,0.010674644,8.803140000000005e-05,0.0008848206,5.164,0,0
0.0006120921000000001,0.001309384,0.012721660000000001,-0.0007697790000000001,0.0004163606,5.165,0,0
0.0009325017,-0.001617294,0.014810222000000001,-0.002655157,-0.00017183980000000002,5.166,0,0
0.0013027183000000001,-0.00373405,0.01625058,-0.004040115,-0.00010072180000000002,5.167,0,0
0.0012374403000000001,-0.0033589180000000002,0.014766794,-0.004126152,3.7363599999999975e-05,5.168,0,0
0.0010834738,-0.0025963460000000002,0.009350378,-0.0034176880000000008,0.000101363,5.169,0,0
0.0010648826000000003,-0.0016717100000000003,0.001217217999999999,-0.002089636,-1.1611200000000008e-05,5.17,0,0
0.0002713606,0.0013151919999999998,-0.007855922000000001,-0.00028495600000000016,-0.0005266028,5.171,0,0
-0.0008047854000000001,0.0046841619999999995,-0.014276242000000001,0.00076271,-0.0013933694000000001,5.172,0,0
-0.0008098633999999999,0.006626476,-0.015497786000000001,0.0007310440000000001,-0.0019496962000000002,5.173,0,0
-0.0009310595999999999,0.008017212,-0.01201037,0.0002773499999999999,-0.0021448002,5.174,0,0
-0.001840482,0.007928952000000001,-0.0052831679999999995,-0.00043681000000000004,-0.002312596,5.175,0,0
-0.001877954,0.005485968,0.002094916,-0.001510558,-0.001903004,5.176,0,0
-0.0013328024,0.0029861420000000002,0.006685816,-0.00232312,-0.0010962778000000002,5.177,0,0
-0.0017609322000000003,0.0012704352000000004,0.007312942000000001,-0.002561814,-0.0007051338,5.178,0,0
-0.0016601852000000003,-0.0007195788000000001,0.0070953660000000005,-0.002871444,-0.0004128934000000001,5.179,0,0
-0.0005901130000000001,-0.0006935208,0.006525012000000001,-0.00325296,0.0001105786,5.18,0,0
-5.8506e-05,0.0018126751999999998,0.003359818000000001,-0.002744938,0.00042853500000000007,5.181,0,0
6.10512e-05,0.0028134251999999997,-0.0010772420000000004,-0.0016516500000000002,0.0010158288000000001,5.182,0,0
0.0005716810000000001,0.002051626,-0.003852482,-0.0007593140000000001,0.0019213047999999998,5.183,0,0
0.000947254,0.001642856,-0.005340981000000001,0.0006984660000000002,0.0025486364,5.184,0,0
0.0006072752000000001,0.0001976459999999999,-0.006174247,0.0026599600000000003,0.0032236824000000004,5.185,0,0
0.0006657450000000001,-0.003338848,-0.0041912650000000004,0.004665850000000001,0.0036946520000000005,5.186,0,0
0.0005779494,-0.005928888,-0.0006212090000000001,0.00639406,0.0034659380000000004,5.187,0,0
-0.00028280259999999995,-0.0052466526,0.00100721632,0.007787754000000001,0.0031599080000000008,5.188,0,0
-0.0005782411999999999,-0.0026762206,0.00031557131999999997,0.00829142,0.0025903976,5.189,0,0
-0.0007532826,0.0007777913999999998,-0.0013091506800000001,0.007297988,0.0015109052,5.19,0,0
-0.0014117974,0.0040697614,-0.0033561966800000004,0.005357124400000001,0.0005827012000000001,5.191,0,0
-0.0011182645999999999,0.004831021400000001,-0.004747174680000001,0.0022096524000000005,-0.0002937987999999999,5.192,0,0
5.222540000000017e-05,0.0025747260000000007,-0.004328272000000001,-0.0022721836,-0.0015904328000000002,5.193,0,0
0.0003681340000000001,-0.0017117399999999998,-0.002722542,-0.0064320176,-0.0026187304000000002,5.194,0,0
0.0007452880000000001,-0.0070298800000000005,-0.0002370660000000004,-0.0092078456,-0.002795758,5.195,0,0
0.001921276,-0.011510995999999999,0.0026978339999999996,-0.011536216000000002,-0.002847894,5.196,0,0
0.0023488600000000004,-0.01338258,0.00416578,-0.011897318,-0.002922346,5.197,0,0
0.0018422152000000002,-0.012341366000000001,0.0038833534,-0.009613802000000001,-0.0025939939999999996,5.198,0,0
0.0015568326,-0.00816567,0.0034726614000000003,-0.007042083000000001,-0.0017564885999999998,5.199,0,0
0.0017082466,-0.002658890000000001,0.002543049000000001,-0.003480117,-0.0010377926,5.2,0,0
0.0008961536000000001,0.00231851,0.000875703,0.0019726030000000003,-0.0005424648,5.201,0,0
-0.0003584164,0.006875324,-0.00022600700000000002,0.006864261,6.696919999999998e-05,5.202,0,0
-0.0007459816,0.009538454,-0.0003515866000000001,0.010062065,0.0005972308000000001,5.203,0,0
-0.001070123,0.009700272,-0.0003352466000000001,0.012455346,0.0005001972,5.204,0,0
-0.001602167,0.008533028,-0.0001158962,0.012959482000000001,-1.4932400000000054e-05,5.205,0,0
-0.0016303220000000002,0.0065018820000000005,0.0014708078,0.010716962,0.00027323980000000005,5.206,0,0
-0.001544018,0.003693768,0.0035638018000000004,0.007713702000000001,0.0008213138000000001,5.207,0,0
-0.001941692,0.000943978,0.0048445680000000005,0.00528048,0.0009554702000000001,5.208,0,0
-0.00183249,-0.0018345659999999997,0.006377182,0.0026105840000000004,0.0007852784000000001,5.209,0,0
-0.001117382,-0.003343202,0.008440028000000002,0.00038005799999999996,0.00032068000000000027,5.21,0,0
-0.0005190660000000001,-0.0017307839999999998,0.008370446,-0.000943146,-0.0006800099999999999,5.211,0,0
0.00048333400000000003,0.0009490780000000003,0.0061567160000000004,-0.0026208900000000003,-0.0015649899999999998,5.212,0,0
0.0018753320000000002,0.0031696780000000004,0.00047931200000000083,-0.004492688000000001,-0.001537032,5.213,0,0
0.002773218,0.004822272000000001,-0.009877239999999999,-0.005450158,-0.000980466,5.214,0,0
0.002876098,0.0046232,-0.01804448,-0.006040394,-0.0001823146000000001,5.215,0,0
0.0025527588000000003,0.000793204,-0.022006922,-0.006927540000000001,0.00045072319999999995,5.216,0,0
0.0017019628,-0.005962178,-0.02400284,-0.006674586,0.0008204704,5.217,0,0
0.0003463928000000001,-0.012938812000000001,-0.019555579400000002,-0.004906946000000001,0.000388764,5.218,0,0
-0.0006087652000000001,-0.017667536000000005,-0.008927979400000001,-0.003230904,-0.000479314,5.219,0,0
-0.0007977092000000002,-0.019133494,-0.0006085193999999998,-0.0021718218000000003,-0.0013151074,5.22,0,0
-0.0008015240000000001,-0.017278956199999997,0.0043439406,-0.0005935136,-0.0019835592000000003,5.221,0,0
-0.0010168260000000002,-0.0103704422,0.0091644406,0.0003081862000000001,-0.0020939737400000004,5.222,0,0
-0.0010505180000000003,-0.0007141022000000008,0.011992440000000002,-0.0006993498000000001,-0.00183879614,5.223,0,0
-0.0014573740000000002,0.0069801578,0.012229640000000002,-0.0015964238,-0.00127122814,5.224,0,0
-0.0022195540000000003,0.012025867800000001,0.011567862000000002,-0.0016882286000000002,-0.0005110275400000001,5.225,0,0
-0.0022509150000000005,0.015180494,0.010403666,-0.0019944748000000003,0.00015000246,5.226,0,0
-0.002086379,0.01628162,0.007945691000000001,-0.0017424376,-3.7549e-05,5.227,0,0
-0.0019035950000000003,0.015270460000000001,0.005262569000000001,6.946040000000006e-05,-0.00019154019999999999,5.228,0,0
-0.0005908790000000001,0.012933122,0.003309479,0.0022163904,0.0004388518,5.229,0,0
0.0008858090000000001,0.009169392,0.0016574740000000001,0.004109085,0.0012352732,5.23,0,0
0.001069016,0.004664488000000001,0.0014072420000000002,0.005950169,0.0018895332,5.231,0,0
0.0015318810000000001,0.00026277799999999997,0.0016469834,0.0068833440000000004,0.002452062,5.232,0,0
0.0026341150000000002,-0.003295938,0.0005916054,0.006222116000000001,0.0028845380000000007,5.233,0,0
0.0023999430000000003,-0.004549814,-0.0010987406,0.004631553,0.0023405578000000003,5.234,0,0
0.0014058686000000002,-0.003824618,-0.0026528415999999997,0.0028844156,0.0012714215999999998,5.235,0,0
0.0013154116000000003,-0.0022138182,-0.0037097056,0.0009845635999999997,0.0006995064,5.236,0,0
0.0011981044000000003,-0.0007598281999999999,-0.0038746336,-0.0010401204,0.0004178486,5.237,0,0
0.00042535299999999995,-7.383019999999995e-05,-0.0035393696,-0.0027619224,0.0002699422,5.238,0,0
-0.000127605,-0.00047730219999999994,-0.0028884296,-0.0044393414,0.0006986744,5.239,0,0
-4.52914e-05,-0.0018555882,-0.0021747196,-0.006303816000000001,0.0009483206,5.24,0,0
-0.0002752954,-0.003203018,-0.0023850976000000003,-0.006579714,0.00036752579999999995,5.241,0,0
-0.0010125072,-0.004816738000000001,-0.0024040822,-0.004814136,7.394959999999998e-05,5.242,0,0
-0.0009040668000000001,-0.00650714,-0.0012397522000000003,-0.0018821780000000004,-4.340780000000004e-05,5.243,0,0
-0.0006515938000000001,-0.006885748,9.893779999999974e-05,0.001993272,-0.00041138420000000006,5.244,0,0
-0.0009561742000000001,-0.00629974,0.0010041998,0.005589246000000001,-0.0005215726,5.245,0,0
-0.0004977472000000001,-0.005674078000000001,0.0018224118000000002,0.006959531999999999,-0.0004716446000000001,5.246,0,0
0.0006327128000000001,-0.00369715,0.002359036,0.005932887999999999,-0.0009745706000000001,5.247,0,0
0.0009052138,-0.000519736,0.0016178536000000002,0.003759899999999999,-0.0019196148000000003,5.248,0,0
0.0010360252,0.001040814,0.0011756975999999998,0.0009709920000000001,-0.0024523544000000005,5.249,0,0
0.0015086924,0.00213743,0.0020358296,-0.0014426320000000001,-0.0026168940000000003,5.25,0,0
0.0011082206,0.0040164039999999995,0.0018989284,-0.0026247040000000003,-0.0023143556000000003,5.251,0,0
0.0005654805999999999,0.004380378,0.0006425803999999999,-0.0025565318,-0.0011969736000000003,5.252,0,0
0.0003328286,0.0027969320000000002,-0.00028173520000000004,-0.0020560704000000003,0.00023006440000000012,5.253,0,0
-4.027780000000002e-05,0.0012052900000000001,-0.0020717932000000002,-0.0018109924000000001,0.0011469504,5.254,0,0
-0.0003383678,-0.0001907260000000001,-0.0046931912,-0.0018363984,0.0017303684,5.255,0,0
-0.0004762056,-0.001889196,-0.005469550000000001,-0.0024671824,0.0019358002000000002,5.256,0,0
-0.0004893394,-0.00137601,-0.004832815600000001,-0.0032120066,0.0013911122,5.257,0,0
-0.0005724704,0.0013000019999999998,-0.0036214936000000006,-0.003700434,0.0007959387999999999,5.258,0,0
-0.0007853984,0.002304188,-0.00019801560000000016,-0.0036302239999999996,0.0006598947999999999,5.259,0,0
-0.0013204364,0.00037972000000000006,0.0034171024000000006,-0.00270929,0.0006713048,5.26,0,0
-0.0015531088,-0.0027442520000000004,0.004257221400000001,-0.001192522,0.0005396426000000001,5.261,0,0
-0.0012655892000000002,-0.004808162,0.004089873000000001,0.00029394600000000017,0.0006471686000000001,5.262,0,0
-0.0008844241999999998,-0.0033593420000000004,0.0042304970000000015,0.0014735100000000001,0.00109766,5.263,0,0
-0.00038466620000000005,0.0020854179999999995,0.0029514010000000006,0.0027250500000000006,0.0013743300000000002,5.264,0,0
-5.6552199999999956e-05,0.008581818,0.0013456090000000002,0.0037021140000000003,0.0012201220000000001,5.265,0,0
0.00032667579999999996,0.013254649999999998,0.0019241900000000003,0.004330845999999999,0.0010816816000000001,5.266,0,0
0.00025084360000000004,0.014071144199999998,0.0029143540000000005,0.004610698,0.0008964786000000002,5.267,0,0
-0.0004541424,0.010467297999999998,0.0026543572,0.004862896,0.0002795366000000001,5.268,0,0
-0.0007138868,0.0049479462,0.0019977808000000005,0.004902424000000001,-0.000326337622,5.269,0,0
-0.000292651,0.0014894122000000004,0.0009180568000000002,0.004411738,-0.000405753222,5.27,0,0
-0.000292891,0.0013112622,-0.0015635612000000003,0.003832276,-0.000556220822,5.271,0,0
-0.00043389319999999993,0.002168532,-0.004505841200000001,0.002784024,-0.001010657822,5.272,0,0
0.00011992380000000001,0.0023168402,-0.006342410400000001,0.0011859560000000002,-0.001254585822,5.273,0,0
0.0001322876,0.001705658,-0.007491804000000001,-0.00042455200000000013,-0.0014315028000000001,5.274,0,0
-0.0001531754,-0.00014896400000000034,-0.007537054000000001,-0.001816148,-0.0012937272000000002,5.275,0,0
0.0004454846,-0.003746766,-0.005703991400000001,-0.0030843140000000003,-0.0005928751999999999,5.276,0,0
0.0010565232,-0.007488668,-0.0035292352000000004,-0.0031854860000000004,0.00044371480000000006,5.277,0,0
0.0011458762,-0.010049289999999999,-0.0024224052000000004,-0.0024572860000000004,0.0010279724,5.278,0,0
0.0018626807999999996,-0.011637176,-0.0010629816,-0.0021084740000000004,0.0010946976,5.279,0,0
0.002818434,-0.01277224,0.0010565204,-0.0018353440000000003,0.0007649994,5.28,0,0
0.002669322,-0.01223232,0.0025804238,-0.0020955740000000002,-0.00015506060000000004,5.281,0,0
0.0020111418,-0.009558814,0.0041378196,-0.0035731060000000004,-0.0008056766,5.282,0,0
0.0015602978,-0.00700351,0.0056863676000000005,-0.005647156,-0.0007913754000000001,5.283,0,0
0.0006184558,-0.004748075599999999,0.004999856,-0.006704856,-0.0006753630800000001,5.284,0,0
-0.0006833302,-0.0018828456,0.002840462,-0.006591657999999999,-0.00093545688,5.285,0,0
-0.0010985370000000001,0.0005291564,0.0019261660000000002,-0.0054704702,-0.00101770488,5.286,0,0
-0.0009724267999999998,0.0026157884,0.0029804140000000002,-0.0029678042,-0.0009871348800000001,5.287,0,0
-0.0012302348,0.0069149244,0.00563462,0.00020597779999999993,-0.0011530136800000001,5.288,0,0
-0.0013769488,0.01267043,0.009756296000000001,0.0030502318000000003,-0.0009463920000000002,5.289,0,0
-0.0010780336,0.017547160000000003,0.014025514000000001,0.005109155800000001,-0.00024726400000000013,5.29,0,0
-0.0011877082,0.021639277999999998,0.01563118,0.006859490000000001,0.000558082,5.291,0,0
-0.0013394374,0.02229988,0.013389884000000001,0.007683454000000001,0.000747658,5.292,0,0
-0.0007461426000000001,0.017489996,0.0047958440000000005,0.007087886000000001,0.001053972,5.293,0,0
-0.00044687260000000006,0.010545324000000002,-0.010077556000000001,0.006298866000000001,0.0013256220000000003,5.294,0,0
-0.0006542098,0.0026880440000000005,-0.021674555999999998,0.0047518962,0.001074059,5.295,0,0
-0.00037839700000000004,-0.007720416,-0.024672167999999998,0.0014403621999999998,0.001179201,5.296,0,0
-0.00019903719999999996,-0.017694915999999998,-0.023710256,-0.0017650258000000004,0.0010450122,5.297,0,0
-0.0008114379999999999,-0.023169732,-0.018267052,-0.0031970078000000002,0.00029791420000000005,5.298,0,0
-0.0007045389999999999,-0.024872640000000005,-0.0068927037999999986,-0.004784971800000001,-0.0006887578000000002,5.299,0,0
-0.00014043099999999997,-0.02306719,0.0012301476,-0.006202816000000001,-0.0014390788000000002,5.3,0,0
-0.0007341903999999999,-0.016932436800000002,0.0021536036000000002,-0.005302804,-0.0020638148,5.301,0,0
-0.0009112882,-0.009534240000000003,0.0026592976000000003,-0.0035132118000000003,-0.0021385280000000002,5.302,0,0
8.945779999999998e-05,-0.004520120000000001,0.005796773600000001,-0.0019821758000000004,-0.0015574366000000004,5.303,0,0
0.0005400608,-0.0018702620000000001,0.0094096654,-0.0006663438,-0.0009749550000000002,5.304,0,0
0.0005558768000000001,3.256199999999998e-05,0.012567414000000002,0.00047229899999999997,-0.0006155730000000001,5.305,0,0
0.0013827088000000001,0.0025070688,0.015315130000000003,0.0009115722000000003,-0.0005441090000000001,5.306,0,0
0.0017029980000000003,0.006352112,0.015015986,0.00029961000000000007,-0.0003278488,5.307,0,0
0.000579956,0.011239712,0.010295562000000001,-0.000990268,-0.0006258802,5.308,0,0
-0.00031480600000000005,0.01313888,0.0031582420000000003,-0.0022624000000000003,-0.0010697918,5.309,0,0
-0.00039712480000000006,0.008286266,-0.004590238,-0.0028005208,-0.0009185758,5.31,0,0
-0.0007492008,0.0005891259999999997,-0.010552938000000001,-0.0026424802,-0.0004304277999999999,5.311,0,0
-0.0010052341999999999,-0.0060523140000000005,-0.012313445999999999,-0.0017603462000000002,0.0002880240000000001,5.312,0,0
2.9215800000000026e-05,-0.010973368000000002,-0.0112387842,-0.00033707820000000006,0.0013020420000000002,5.313,0,0
0.0009968818,-0.010218014000000001,-0.009505318200000001,0.0015537658000000002,0.00238221,5.314,0,0
0.0013858846000000002,-0.003650774000000002,-0.006093372200000001,0.0037593138000000005,0.0030220420000000004,5.315,0,0
0.0018849286000000003,0.002869676,-0.0026366282000000003,0.006165062000000001,0.0033228280000000003,5.316,0,0
0.0016812200000000002,0.008090496,-0.0025953522,0.009006512000000001,0.0031053540000000007,5.317,0,0
0.0004699140000000001,0.010764362,-0.0038490679999999998,0.011794494,0.0022851302200000002,5.318,0,0
-0.0007289120000000001,0.008872004,-0.0032406120000000004,0.013468207999999999,0.0014380310200000001,5.319,0,0
-0.0016086000000000002,0.006693004000000001,-0.0023919886,0.013462614000000001,0.0010264082200000001,5.32,0,0
-0.00249706,0.006122566000000001,-0.0024141066,0.011839648000000001,0.00051914042,5.321,0,0
-0.0024712800000000006,0.004731858,-0.0011241206,0.0086494364,4.766219999999969e-06,5.322,0,0
-0.001686158,0.002838914,0.0015378434,0.003866382399999999,-7.617400000000003e-05,5.323,0,0
-0.0009789316000000001,0.0018124460000000001,0.0036936914,-0.0014125975999999998,-0.0003029988,5.324,0,0
-0.0003824615999999999,0.000839056,0.0049233440000000005,-0.0061979316000000005,-0.00097112,5.325,0,0
0.0002927444000000001,-0.000806328,0.006230806,-0.0106730856,-0.0016737842000000003,5.326,0,0
0.0006329944,-0.0020846700000000003,0.007446746,-0.014130454,-0.0021535340000000004,5.327,0,0
0.000794875,-0.0014963400000000003,0.008118594,-0.01578032,-0.002548402,5.328,0,0
0.0015143226,-1.7452000000000266e-05,0.009328124,-0.01569162,-0.0023237068,5.329,0,0
0.0020222146,0.001906662,0.010489402,-0.014035588000000002,-0.0014331588000000002,5.33,0,0
0.0019756946000000003,0.005040074,0.01020563,-0.010949743999999999,-0.00043090680000000005,5.331,0,0
0.0015724506,0.006552274,0.009031582000000002,-0.008202596000000001,0.0004909332,5.332,0,0
0.0010582179999999999,0.005063786,0.007348744000000001,-0.00659971,0.0011042994000000001,5.333,0,0
0.0004333320000000001,0.003040572,0.0032082640000000006,-0.004615810000000001,0.0008968382000000001,5.334,0,0
-0.00047422139999999996,0.0006210760000000001,-0.0035726160000000002,-0.0032556399999999997,0.00015024420000000002,5.335,0,0
-0.0010626654,-0.003053908,-0.009738412000000002,-0.0031636959999999997,-0.0005824038000000001,5.336,0,0
-0.0010249334000000001,-0.005165124,-0.013026624,-0.001906922,-0.0011551544000000002,5.337,0,0
-0.0010584734,-0.00448562,-0.014536236000000001,0.00093377,-0.0011462676,5.338,0,0
-0.0012838434,-0.003839316,-0.014258648,0.0034185280000000005,-0.0010755495999999999,5.339,0,0
-0.0010227268,-0.0044678700000000005,-0.010600941999999999,0.005869386000000001,-0.0008057957999999999,5.34,0,0
-0.0009911108,-0.004381266,-0.006410076,0.008479398,-0.0001816158,5.341,0,0
-0.0012848948,-0.0031896780000000005,-0.0034961799999999998,0.009798446,0.00016444440000000005,5.342,0,0
-0.0009470231999999999,-0.0018420400000000003,-6.662400000000037e-05,0.010427128,0.00031147940000000006,5.343,0,0
-0.0006747798,0.0005065299999999998,0.004068468,0.01077959,0.0007122280000000001,5.344,0,0
-0.0007143018,0.00356271,0.007737322,0.010230174000000002,0.0011102862,5.345,0,0
-2.917179999999993e-05,0.004748990000000001,0.011196336000000001,0.008829198000000002,0.0011763062,5.346,0,0
0.0011594862,0.0029229620000000003,0.01314738,0.0065865260000000005,0.0014375246000000001,5.347,0,0
0.0018204386000000002,-0.0009816700000000002,0.011941596,0.0035262760000000005,0.0014558346000000002,5.348,0,0
0.0020857772000000005,-0.006877492000000001,0.008982406,-0.00019270400000000036,0.0012164012000000003,5.349,0,0
0.0023668860000000003,-0.012721526,0.003613366,-0.0032898580000000005,0.0009321212000000001,5.35,0,0
0.002205612,-0.015688506,-0.003576294,-0.004763580000000001,0.0006169544000000001,5.351,0,0
0.0016384018000000003,-0.015755458000000003,-0.009303734000000001,-0.005626970000000001,0.00038461140000000006,5.352,0,0
0.0014132598,-0.013458992000000001,-0.012164154,-0.00666029,0.00024595060000000003,5.353,0,0
0.001206745,-0.008107989999999999,-0.012464452,-0.006799774000000001,0.000426589,5.354,0,0
0.000741322,-0.0008548700000000002,-0.009408406,-0.006316630000000001,0.0003533564,5.355,0,0
0.00046741518000000004,0.00526613,-0.004298798,-0.006753958000000001,-9.221080000000002e-05,5.356,0,0
-8.453462e-05,0.010223108000000002,-0.000835232,-0.006496794000000001,-0.0011078658,5.357,0,0
-0.00149701462,0.014250422,0.000682382,-0.0043733591999999995,-0.0020897190000000003,5.358,0,0
-0.00263023782,0.016104880000000002,0.0019427280000000003,-0.0016706811999999999,-0.0022659082,5.359,0,0
-0.00271233142,0.01594034,0.0027610580000000003,0.0009196268,-0.0021383734,5.36,0,0
-0.0026743134,0.014861720000000002,0.0026020920000000003,0.0038906268,-0.0013822894000000002,5.361,0,0
-0.0021575616,0.012460520000000001,0.0029561620000000005,0.0066428508,-0.00016354940000000017,5.362,0,0
-0.0007053935999999999,0.008496591999999999,0.0034138808000000005,0.007686208,0.0011021806,5.363,0,0
0.0009285264000000001,0.004556824000000001,0.0022959848000000003,0.00758285,0.0019783662,5.364,0,0
0.0014478330000000001,0.001863904,0.0004983608000000002,0.006816282,0.002390178,5.365,0,0
0.0013744966,-0.00012222179999999991,0.0002138048000000001,0.0053263780000000005,0.00275324,5.366,0,0
0.0016241088,-0.0015476997999999999,0.00024182479999999991,0.003916442,0.002590902,5.367,0,0
0.0008892008000000002,-0.0017334398,2.2176399999999878e-05,0.0026167970000000006,0.0017459060000000002,5.368,0,0
-0.00016258720000000002,-0.0022947078,0.0007948464,0.0006024550000000001,0.0007117600000000002,5.369,0,0
-0.00021981720000000004,-0.0034120878,0.0012008770000000002,-0.0013217609999999999,-0.00010936600000000001,5.37,0,0
-0.00042546000000000006,-0.004000058,0.00023078300000000003,-0.002320187,-0.00135614,5.371,0,0
-0.0009672300000000001,-0.004536972,-0.000730131,-0.0032890669999999997,-0.0021874900000000003,5.372,0,0
-0.0006903752000000001,-0.005448392000000001,-0.00029761739999999994,-0.00416239,-0.00210421,5.373,0,0
-0.0011441912,-0.006008468000000001,-4.6207399999999906e-05,-0.004181224,-0.00234054,5.374,0,0
-0.0023386972,-0.005799808000000001,1.0918000000000088e-05,-0.0037828040000000003,-0.002519934,5.375,0,0
-0.0020113547999999998,-0.006284350000000001,0.0009006260000000001,-0.00417995,-0.002610444,5.376,0,0
-0.0013861187999999998,-0.006471332000000001,0.0017476880000000003,-0.00505713,-0.0025727720000000005,5.377,0,0
-0.0013534836,-0.004547010000000001,0.002012602,-0.004945679999999999,-0.0024427470000000003,5.378,0,0
-9.979599999999954e-06,-0.0025104160000000006,0.00269172,-0.0042313260000000005,-0.0020073440000000003,5.379,0,0
0.0016137984,-0.0014817022000000004,0.003676998,-0.003551525,-0.0007669039999999999,5.38,0,0
0.0013346976,0.0021049158,0.003645902,-0.001859019,0.000591786,5.381,0,0
0.0007829218000000001,0.0075479698,0.003858478,0.000492557,0.001620374,5.382,0,0
0.0007715818,0.0104436758,0.00529683,0.002060791,0.002286673,5.383,0,0
0.00036565959999999994,0.0114962698,0.00621065,0.0033244290000000003,0.0024878838,5.384,0,0
-0.00010760040000000004,0.010749747999999998,0.006457902,0.004869508000000001,0.0017828298,5.385,0,0
0.000379144,0.006810892000000001,0.006927384,0.006430364000000001,0.0007579377999999996,5.386,0,0
0.0013959898,0.0018050380000000001,0.0053509560000000005,0.007709448000000001,-0.00015669620000000002,5.387,0,0
0.0021385698,-0.0017619460000000001,-0.00029320400000000003,0.008663636,-0.0009637342000000001,5.388,0,0
0.002415348,-0.0045396740000000005,-0.011107664,0.009222416,-0.0010218795999999998,5.389,0,0
0.0022688532,-0.007418166,-0.021536862,0.009226916000000002,-0.00030655160000000016,5.39,0,0
0.0019030402000000002,-0.00974987,-0.02411257,0.009024486000000002,0.0006381264,5.391,0,0
0.0005126641999999999,-0.011666716,-0.021187362,0.008170990000000001,0.0012942444,5.392,0,0
-0.0007116578000000001,-0.01298052,-0.015306522,0.006246794000000001,0.0018964964,5.393,0,0
-0.0008605354000000003,-0.011508195,-0.0049340899999999995,0.0037632900000000003,0.00205863,5.394,0,0
-0.0008879502000000003,-0.007224721,0.0061316980000000005,0.0004239900000000004,0.0012175336000000002,5.395,0,0
-0.0004468792,-0.0031053110000000004,0.01068754,-0.004416700000000001,0.00010038960000000009,5.396,0,0
0.00043224480000000003,-0.0007604770000000003,0.010425072,-0.008885704000000001,-0.0007126764000000001,5.397,0,0
0.0004730628000000001,-0.0006726029999999999,0.008977180000000001,-0.010977034,-0.0014024204000000003,5.398,0,0
-0.00029623359999999996,-0.000852622,0.0072475484,-0.011653976000000002,-0.0016731762,5.399,0,0
-0.0005287661999999999,0.000560184,0.0056047169999999995,-0.011102488,-0.0012744678,5.4,1,1
-0.0010339776,0.002371694,0.0027834770000000003,-0.0093785,-0.0006887792,5.401,0,0
-0.0018459976000000003,0.00409417,0.00023402500000000012,-0.00785287,-0.000257953,5.402,0,0
-0.0016906496,0.005848578000000001,-0.001139575,-0.007076784,-0.000148083,5.403,0,0
-0.0015197856,0.0059639556,-0.0017857694000000001,-0.00664822,-0.0003216352,5.404,0,0
-0.0018966594000000003,0.0037741956,-0.002495572,-0.006325992,-0.0006918936,5.405,0,0
-0.001970634,0.0013619746,-0.0027748420000000005,-0.005874536,-0.0005399862,5.406,0,0
-0.00149314004,-0.00019827060000000003,-0.002312016,-0.0040347080000000006,1.5699599999999974e-05,5.407,0,0
-0.00108111824,-0.0006641766,-0.002013786,-0.0005193159999999997,0.0004988736,5.408,0,0
-0.00052255404,-0.0011576582,-0.0011072672,0.0027916540000000006,0.0014270656000000001,5.409,0,0
0.00028729195999999997,-0.0010889982000000002,0.0008039268,0.005275012000000001,0.0024533740000000004,5.41,0,0
0.00050287068,0.0012695027999999999,0.0030178388000000004,0.008077268000000002,0.0027486760000000002,5.411,0,0
0.0005234571199999999,0.003517558,0.0054402528,0.010020270000000001,0.0024232392,5.412,0,0
0.00103880532,0.003966694,0.0087911348,0.009927186000000001,0.002107955,5.413,0,0
0.00154895912,0.003525358,0.01142859,0.008999236,0.0014538078,5.414,0,0
0.00163648912,0.0022986359999999997,0.011799396,0.008422558,0.0003921622,5.415,0,0
0.0020091044,-0.0010186019999999997,0.009804898400000001,0.007388840000000001,-0.00037033780000000004,5.416,0,0
0.0026214520000000002,-0.004001,0.005139498400000001,0.0058415640000000005,-0.0007578370000000001,5.417,0,0
0.002379732,-0.0029425320000000003,-0.0003952815999999997,0.00449237,-0.0008789168,5.418,0,0
0.0017611274800000002,0.0007456940000000003,-0.0051419316,0.002329800000000001,-0.0008240024,5.419,0,0
0.0012586102800000002,0.005009576000000001,-0.0095549056,-0.0008635139999999997,-0.0008848714000000002,5.42,0,0
0.00012433028000000015,0.009028094,-0.01247583,-0.004163495999999999,-0.0011162874,5.421,0,0
-0.0013206517199999999,0.010781112,-0.01218295,-0.007131279999999999,-0.0011298894,5.422,0,0
-0.00216585172,0.008458416,-0.0096017442,-0.01033914,-0.0012754394,5.423,0,0
-0.0028179491999999998,0.003826852000000001,-0.007461497199999999,-0.011569900000000001,-0.0018237006000000001,5.424,0,0
-0.0032895760000000002,-0.0013328679999999996,-0.0068156371999999995,-0.010029028,-0.0016494118000000002,5.425,0,0
-0.0026674866000000004,-0.006260308,-0.0053503152000000005,-0.008062624000000001,-0.0010193630000000001,5.426,0,0
-0.0016455946,-0.008402960000000001,-0.0035475772,-0.00625307,-0.0008209514000000001,5.427,0,0
-0.001021752,-0.007764812,-0.003615351,-0.004670766000000001,-0.0008446514,5.428,0,0
-0.0001285420000000001,-0.0058698672,-0.002656408,-0.003691044,-0.0007884574,5.429,0,0
0.0009923500000000001,-0.0033195691999999997,0.000567316,-0.004093808,-0.0005801028,5.43,0,0
0.0015540926000000002,-0.0005435552,0.0030031700000000003,-0.004437252,-0.00016599159999999998,5.431,0,0
0.0016657826000000004,0.0014037568000000002,0.004645642,-0.0035175600000000003,0.0006872628,5.432,0,0
0.0019770340000000003,0.0015372228000000003,0.006799030000000001,-0.0016722039999999996,0.0018392768000000002,5.433,0,0
0.001943166,0.000609266,0.00778499,0.000600568,0.0028141028,5.434,0,0
0.0013792188,-0.0009827100000000001,0.00736589,0.0029896740000000003,0.0027733408,5.435,0,0
0.0014058328000000001,-0.0018169590000000002,0.00735534,0.005254216,0.0022461192,5.436,0,0
0.0017935248000000002,-0.000629293,0.0061765056,0.006380232,0.0015153072,5.437,0,0
0.0017744868000000003,0.0024672370000000006,0.0042435476,0.007756692,0.0009292812000000002,5.438,0,0
0.0018526308000000001,0.006588873,0.0017115396,0.007918608,0.0017591492000000003,5.439,0,0
0.002227644,0.009155467,0.0009450255999999998,0.005888002,0.0033361104,5.44,0,0
0.0019018680000000001,0.010004118000000001,0.0046705596,0.004729626,0.004298928,5.441,0,0
0.0010863632000000002,0.0083467642,0.007120184,0.004357280000000001,0.004571016,5.442,0,0
0.0008953692000000001,0.0032447242,0.005208362,0.003827830000000001,0.00369538,5.443,0,0
0.0008997912000000001,-0.0036216558000000004,-0.0005538700000000014,0.00469766,0.0006281699999999995,5.444,0,0
-0.00020507080000000007,-0.0111092518,-0.009649360000000001,0.006824312000000001,-0.0031785480000000007,5.445,0,0
-0.0023289828,-0.0167539278,-0.019194420000000004,0.006897127999999999,-0.006464084,5.446,0,0
-0.004938546,-0.016990127,-0.024121140000000003,0.006147584000000001,-0.008696904000000002,5.447,0,0
-0.008124542,-0.012159487,-0.022890664000000005,0.004803728,-0.008989208,5.448,0,0
-0.010563806,-0.005413866999999999,-0.014494184000000004,0.0018221980000000006,-0.00764985,5.449,0,0
-0.01126448,0.0033601530000000007,-0.0024782240000000015,-0.0007831679999999999,-0.00557245,5.45,0,0
-0.010004840000000001,0.010823193000000002,0.0061140759999999995,-0.0029826979999999998,-0.002873404,5.451,0,0
-0.006426170000000001,0.012415700000000002,0.012990476,-0.00556631,-2.264400000000005e-05,5.452,0,0
-0.0015868920000000003,0.010579208000000001,0.01765614,-0.008551964,0.0018346680000000002,5.453,0,0
0.0031745280000000002,0.007592748000000002,0.017225076000000002,-0.010667574,0.0030244360000000006,5.454,0,0
0.008209264,0.002861926000000001,0.015041814,-0.011901647999999999,0.0040124900000000005,5.455,0,0
0.012662368,-0.002474374,0.014694854,-0.011623904000000001,0.004783194,5.456,0,0
0.014796698,-0.006372834,0.014123534,-0.009115256,0.0050014560000000005,5.457,0,0
0.015321040000000001,-0.008785228,0.012076874,-0.004376876,0.004870724,5.458,0,0
0.014135834000000002,-0.009064652000000001,0.01126087,0.001495124,0.004312704,5.459,0,0
0.010352198,-0.005338582000000001,0.009958275999999999,0.006426364,0.0024952859999999998,5.46,0,0
0.005304922000000001,0.0017762179999999995,0.003965175999999999,0.010318988000000001,-0.00029890400000000044,5.461,0,0
0.00026456200000000074,0.008170458000000002,-0.004260144,0.012671560000000002,-0.0029944940000000003,5.462,0,0
-0.005043638,0.011972304000000001,-0.012030844,0.014177360000000002,-0.005113954,5.463,0,0
-0.009589012000000001,0.01316348,-0.020215576000000002,0.015580680000000001,-0.006678118,5.464,0,0
-0.012170836,0.010856228,-0.026360160000000004,0.01545048,-0.0066852840000000005,5.465,0,0
-0.013176120000000001,0.005891904000000002,-0.027226000000000004,0.013396094,-0.005426396,5.466,0,0
-0.012879984,0.0012848139999999998,-0.023478204000000003,0.010059958,-0.00397009,5.467,0,0
-0.010936462000000001,-0.002303232,-0.016724112,0.004211918,-0.0021038459999999995,5.468,0,0
-0.007774627200000001,-0.006225584,-0.006963192000000002,-0.0037030820000000008,0.00014974399999999983,5.469,0,0
-0.004316911200000001,-0.00953592,0.003423348000000001,-0.010109182000000001,0.002199714,5.47,0,0
-0.00027859520000000004,-0.013558436,0.011241068,-0.014852496000000003,0.0037669039999999997,5.471,0,0
0.0039413488,-0.018745446,0.016002912,-0.018726760000000002,0.005220792,5.472,0,0
0.0070257667999999995,-0.02160716,0.01737156,-0.02026448,0.006131702,5.473,0,0
0.008962088,-0.020365628,0.015241430000000004,-0.019585500000000002,0.006043854,5.474,0,0
0.010352492,-0.016002134,0.011371676000000002,-0.017974860000000002,0.004953091200000001,5.475,0,0
0.010314502,-0.008971294000000001,0.006238364000000001,-0.015204482000000002,0.0030612272000000006,5.476,0,0
0.008521954,0.00026336600000000055,0.00017809400000000017,-0.0105090698,0.0009536152000000004,5.477,0,0
0.005790878,0.008249906000000001,-0.004283838,-0.005140985800000001,-0.0006559508,5.478,0,0
0.0022544279999999993,0.013159254000000002,-0.007093248,-0.00012460580000000013,-0.0014891622000000003,5.479,0,0
-0.0018195720000000006,0.01575178,-0.009611694,0.0046573542,-0.0019575794000000002,5.48,0,0
-0.00547249,0.016200660000000002,-0.010609182,0.0078798862,-0.0019757934,5.481,0,0
-0.007904374,0.015131680000000002,-0.009356158,0.008460436,-0.0020319454,5.482,0,0
-0.00893125,0.012615678000000002,-0.007114656000000001,0.0072466959999999995,-0.0026249234,5.483,0,0
-0.00874809,0.008911312000000001,-0.0036128140000000006,0.004825837999999999,-0.00310769,5.484,0,0
-0.007705758000000001,0.006313318000000002,0.0012289059999999999,0.0015266540000000001,-0.0028305166,5.485,0,0
-0.005837125200000001,0.004686712,0.005812246,-0.000893092,-0.0017651726000000002,5.486,0,0
-0.0034158132000000003,0.0019557000000000008,0.009592792,-0.0014330876000000002,-0.00010911059999999992,5.487,0,0
-0.00033473919999999976,-0.00035799599999999997,0.013637682000000002,0.00025523039999999966,0.0016669014000000003,5.488,0,0
0.0035456148,-0.001040762,0.0169445,0.0039911684,0.0031280194000000002,5.489,0,0
0.0070006428,-0.002125192,0.016549306,0.0086718524,0.003912746,5.49,0,0
0.008839784,-0.0032128974000000007,0.013249234000000002,0.0133748084,0.003863442000000001,5.491,0,0
0.009152732,-0.0027029372000000004,0.008775108000000004,0.016917542,0.0034273520000000003,5.492,0,0
0.0076226078,-0.0009306192000000001,0.0020107079999999995,0.01805098,0.0025905752000000004,5.493,0,0
0.004270881800000001,0.0015737388000000001,-0.005832812000000001,0.016405488000000003,0.001451635,5.494,0,0
0.0010904197999999999,0.0038657768000000003,-0.011167918000000002,0.013016726000000001,0.00042485299999999994,5.495,0,0
-0.0013023542,0.005404924200000001,-0.014455406000000002,0.008701512000000002,-0.000457431,5.496,0,0
-0.0038500702000000006,0.006906842,-0.01688442,0.0038025240000000007,-0.001490937,5.497,0,0
-0.005861528000000001,0.007674032000000001,-0.016845020000000002,-0.0011445520000000007,-0.0025889961999999997,5.498,0,0
-0.006629924000000001,0.005658558,-0.013620516800000003,-0.00541756,-0.0034227460000000004,5.499,0,0
-0.006936664,0.0015080840000000007,-0.009405078800000001,-0.008668238000000002,-0.0037060979999999997,5.5,0,0
-0.006551002,-0.003164112,-0.0051356468,-0.011532104,-0.003492702,5.501,0,0
-0.004246074000000001,-0.008660598,-4.225880000000015e-05,-0.014310636,-0.0029793770000000005,5.502,0,0
-0.0008996680000000002,-0.014090068,0.0047341212,-0.016134080000000002,-0.0016093090000000002,5.503,0,0
0.002194502,-0.017189700000000002,0.008874058,-0.01631142,8.89510000000002e-05,5.504,0,0
0.005188708,-0.01819378,0.012991120000000002,-0.015408999999999999,0.001334845,5.505,0,0
0.007245226,-0.01724604,0.015739827999999997,-0.013596028,0.0026297530000000003,5.506,0,0
0.0077129320000000005,-0.012832836,0.015061070000000001,-0.010584408,0.0036537640000000003,5.507,0,0
0.007197072,-0.006025615999999999,0.012025146,-0.007202758,0.003742068,5.508,0,0
0.006096114,0.0005259640000000003,0.007052238,-0.00410734,0.003257844,5.509,0,0
0.0037570200000000007,0.0059235780000000005,0.0008839839999999996,-0.0010997460000000002,0.0025414448,5.51,0,0
0.0008139499999999999,0.00989971,-0.0035777580000000003,0.001803714,0.0009493768000000003,5.511,0,0
-0.001774178,0.011263164,-0.0057290660000000005,0.004335042,-0.0008662552,5.512,0,0
-0.004385372,0.01015141,-0.00690741,0.006301236,-0.0018907892,5.513,0,0
-0.006477392,0.008433942,-0.007944242,0.00722894,-0.0029220571999999997,5.514,0,0
-0.007512154000000001,0.005501740000000001,-0.007523434000000001,0.006616946,-0.0037169559999999996,5.515,0,0
-0.007260352000000001,0.0005659480000000001,-0.007191388000000002,0.005398728,-0.003523022,5.516,0,0
-0.0062316360000000005,-0.00442349,-0.007824890000000001,0.004429026,-0.0029881519999999996,5.517,0,0
-0.0044004280000000005,-0.0074117720000000005,-0.006611396,0.003205402,-0.0025797324000000005,5.518,0,0
-0.0017180319999999995,-0.006050904000000001,-0.0036343519999999995,0.0020106591999999998,-0.0014938004000000001,5.519,0,0
0.00103309,-0.0010397360000000003,-0.0010554839999999998,0.001504921,-4.591440000000001e-05,5.52,0,0
0.003455576,0.0038887519999999997,0.002118692,0.0012594102000000002,0.0011911235999999999,5.521,0,0
0.005836342,0.007011861999999999,0.0065948920000000015,0.0005876489999999999,0.0025640396,5.522,0,0
0.007855882,0.007422587999999999,0.008920952000000001,-0.000127995,0.003389642,5.523,0,0
0.0077446500000000005,0.004085947999999999,0.008308696,-0.00033011739999999997,0.0031850564,5.524,0,0
0.006274028199999999,-0.0009696620000000003,0.006002260000000001,-0.00025860453999999996,0.0024495606,5.525,0,0
0.0046012504,-0.0034250060000000004,0.002378368,0.00012201826000000004,0.0014056186000000002,5.526,0,0
0.0018902444,-0.001480916,-0.001662974,0.00104438346,-2.4783400000000038e-05,5.527,0,0
-0.0013274316,0.003132074,-0.005056204,0.00196115346,-0.0014403834,5.528,0,0
-0.0034688596000000006,0.008340494,-0.007291444,0.00264468066,-0.0025449358,5.529,0,0
-0.0048957658,0.013236264000000001,-0.00867645,0.003842682,-0.003240326,5.53,0,0
-0.006335902000000001,0.015005706000000002,-0.008808986000000001,0.005057678,-0.0034051060000000006,5.531,0,0
-0.006540036000000001,0.012170282000000001,-0.007588972,0.0050993340000000005,-0.0031210910000000003,5.532,0,0
-0.0060115340000000015,0.007325698000000002,-0.006124546000000001,0.004016550000000001,-0.0030940850000000003,5.533,0,0
-0.005630546000000001,0.001952494,-0.0043250118,0.002627864000000001,-0.002881535,5.534,0,0
-0.004269516,-0.003431562,-0.0013091418,0.0009923940000000008,-0.001818523,5.535,0,0
-0.0019009819999999998,-0.006911268,0.0020958942,-0.0008963231999999998,-0.0007466090000000003,5.536,0,0
8.877999999999989e-05,-0.008089948000000001,0.005789562200000001,-0.0016179012,0.0005459019999999998,5.537,0,0
0.002015808,-0.00858444,0.0103741202,-0.00034076920000000006,0.002710442,5.538,0,0
0.005056013999999999,-0.009324091999999999,0.014509018000000002,0.0017058148000000002,0.004714676,5.539,0,0
0.007085660000000001,-0.010070756,0.015814448000000002,0.0029317748,0.005165284,5.54,0,0
0.0070170779999999995,-0.009985616,0.014184288,0.0035338520000000005,0.0046418716,5.541,0,0
0.006370547999999999,-0.009672152,0.009050794,0.0032144462000000006,0.0038113216,5.542,0,0
0.0050395336,-0.008854909999999999,-0.0005636259999999985,0.0015909822000000002,0.0026169776,5.543,0,0
0.0023568736,-0.0057176499999999995,-0.008507726,4.288619999999986e-05,0.001433713,5.544,0,0
-0.0002079384,-0.0009739300000000005,-0.0107854476,-0.0011125458,0.00078819338,5.545,0,0
-0.0016598064,0.002759244,-0.011633145599999999,-0.0020235478,0.00050600158,5.546,0,0
-0.0027874184,0.0039540040000000005,-0.0118420316,-0.0018095955999999998,-0.00016695842,5.547,0,0
-0.003445086,0.002610878,-0.008197857600000002,-0.0010602656,-0.00109980242,5.548,0,0
-0.003608858,-0.001259826,-0.004608887600000001,-0.0019345216,-0.00197438382,5.549,0,0
-0.00349814,-0.006686266,-0.004552097800000001,-0.0035724716,-0.0024444282000000003,5.55,0,0
-0.003340258,-0.010929659999999999,-0.0033314778000000005,-0.004683843599999999,-0.0024210328000000003,5.551,0,0
-0.0025754882,-0.012281358,-8.091800000000057e-06,-0.006352682,-0.0023546068,5.552,0,0
-0.0012967302,-0.011369124000000001,0.0034360902000000002,-0.007654508000000001,-0.0020407208000000005,5.553,0,0
-9.665019999999995e-05,-0.008404224,0.006792340200000001,-0.007091226000000001,-0.0013144570000000002,5.554,0,0
0.0014853358000000002,-0.0038149699999999996,0.009678092000000001,-0.005564842,-0.000587427,5.555,0,0
0.0030488918000000005,0.0012356300000000006,0.011328962000000001,-0.004371750000000001,-5.870220000000001e-05,5.556,0,0
0.0039599100000000005,0.006733228,0.011204420000000001,-0.003379824,0.0001446118,5.557,0,0
0.00415071,0.010897354,0.00971194,-0.0027551420000000004,0.00025521579999999994,5.558,0,0
0.0038897560000000003,0.011507604,0.007005558000000001,-0.0024416740000000004,0.0006453260000000001,5.559,0,0
0.002938966,0.010623592,0.0032376900000000005,-0.0012255640000000006,0.001048682,5.56,0,0
0.0016459540000000003,0.009430889999999999,-0.00124835,0.0007147860000000001,0.0013418079999999999,5.561,0,0
0.0003619519999999999,0.007038218,-0.004896014000000001,0.0028120640000000004,0.0019031680000000002,5.562,0,0
-0.0009234040000000001,0.006410778000000001,-0.00735399,0.00481023,0.0021502484600000003,5.563,0,0
-0.0020997460000000004,0.009151208000000001,-0.009439984,0.00623928,0.00157013046,5.564,0,0
-0.0031380800000000006,0.011975946000000001,-0.009313868000000001,0.006677222,0.0008913664599999999,5.565,0,0
-0.0038286300000000004,0.013446728000000002,-0.0066245259999999995,0.006231067999999999,0.00038834405999999997,5.566,0,0
-0.004415972000000001,0.014046486,-0.003822074,0.005533230000000001,-0.00016564574000000002,5.567,0,0
-0.0039944804,0.012205906,-0.0010803539999999997,0.004440034,-0.0005044402000000001,5.568,0,0
-0.0025063644,0.007532026000000001,0.001981838,0.0028759520000000006,-0.00021549680000000003,5.569,0,0
-0.0010832444000000003,0.0024342720000000003,0.003515186,0.000788272,-5.149240000000007e-05,5.57,0,0
0.0003393455999999999,-0.0028744080000000006,0.003895214,-0.001832536,-7.831900000000003e-05,5.571,0,0
0.0016158456,-0.008325354,0.004970298000000001,-0.004567754,0.0004270708,5.572,0,0
0.0020751879999999995,-0.011517514000000001,0.0053605020000000005,-0.006770062,0.0005981902,5.573,0,0
0.0017564160000000002,-0.012149336000000002,0.0041805206,-0.0073093920000000005,-0.0001607672,5.574,0,0
0.0015523877999999997,-0.010992136000000003,0.0031366486000000008,-0.005976344000000001,-0.0007404076000000001,5.575,0,0
0.0011932886,-0.008150565600000003,0.0013444866000000004,-0.0033945120000000006,-0.0009227380000000001,5.576,0,0
0.00023896659999999995,-0.004932025600000001,-0.0016922874000000001,0.0001350260000000001,-0.0013867768000000002,5.577,0,0
-0.0006275674,-0.0030655556,-0.0033763654000000002,0.003848372,-0.0014419342000000003,5.578,0,0
-0.0010967294000000002,-0.0028242116000000003,-0.0038653040000000004,0.006217334000000001,-0.0010192162000000002,5.579,0,0
-0.0016329752000000001,-0.004290529600000001,-0.0052065900000000005,0.007042632,-0.0006147002,5.58,0,0
-0.0021378680000000002,-0.006012794000000001,-0.005953732,0.007111388000000001,-0.00041978840000000007,5.581,0,0
-0.0013837860000000003,-0.006757108,-0.004638412,0.006207696,-0.0004926906,5.582,0,0
0.00022320999999999994,-0.006295558000000001,-0.004419508000000001,0.004846198,-0.00047114300000000004,5.583,0,0
0.001136818,-0.0043638240000000005,-0.004732812,0.0035135644000000004,-0.00029484620000000004,5.584,0,0
0.0015496942,-0.001833762,-0.0031051594000000007,0.0013727744000000001,-0.0004362276,5.585,0,0
0.0021239018000000004,0.001488732,-0.0015314578,-0.0014922036000000003,-0.0007656018,5.586,0,0
0.0019863374,0.004730366,-0.0007475677999999998,-0.0040951596,-0.0006465806000000001,5.587,0,0
0.0010658938,0.0065594600000000005,0.0009352582000000003,-0.0065397856,-0.0006923362000000001,5.588,0,0
0.0008186538000000001,0.0062044066,0.0039303262000000005,-0.009120312000000002,-0.0007863388000000001,5.589,0,0
0.000910937,0.0039213265999999995,0.006143855600000001,-0.010234162000000002,-0.0005119914,5.59,0,0
0.0009899584000000001,0.00023212659999999937,0.0070450059999999995,-0.009418144,-0.0003821886,5.591,0,0
0.0019005048000000002,-0.0042056534,0.0060146900000000005,-0.008142268,-0.0005638508,5.592,0,0
0.0022336304000000005,-0.0074526074,0.0029520740000000007,-0.0063772640000000005,-0.0005422348,5.593,0,0
0.0013221744000000003,-0.007917728,-0.00044665000000000004,-0.0035566900000000004,-0.000145037,5.594,0,0
0.0010222640000000004,-0.0056048040000000006,-0.0028634180000000004,-0.0007664780000000001,0.0002725589999999999,5.595,0,0
0.0007913812000000002,-0.002158558,-0.00386388,0.0012149139999999999,0.0010541259999999998,5.596,0,0
-0.0005905988,0.002145002,-0.004013274000000001,0.003450004,0.001799336,5.597,0,0
-0.0019823448,0.006279642,-0.002566956,0.00596536,0.0022330019999999996,5.598,0,0
-0.0025156888000000006,0.00916364,-0.0005822140000000002,0.007433014000000001,0.0022181259999999995,5.599,0,0
-0.0030931518000000004,0.010548966,0.00022272199999999985,0.00824855,0.001407284,5.6,0,0
-0.0036993460000000005,0.009558378,0.0004157622,0.008712802,0.0005632079999999999,5.601,0,0
-0.0031941880000000006,0.00698003,0.0015032421999999998,0.007861722000000002,0.000296024,5.602,0,0
-0.0019266800000000003,0.002916544,0.0028000641999999997,0.0058848020000000015,0.00050268,5.603,0,0
-0.0007637610000000003,-0.0028660760000000004,0.0032195462000000003,0.0037988920000000008,0.0009270460000000002,5.604,0,0
0.0006045130000000001,-0.008127676,0.0050615182,0.0014616599999999996,0.00172053,5.605,0,0
0.002157991,-0.010865574,0.008166242,-0.001343648,0.0021706200000000003,5.606,0,0
0.0028453270000000004,-0.0104637616,0.009878300000000001,-0.003601842,0.0015285200000000002,5.607,0,0
0.003076201,-0.0078837636,0.01039308,-0.004748432,0.0005028620000000004,5.608,0,0
0.00315063,-0.004583450199999999,0.009459528000000002,-0.0047066420000000005,-0.0003543880000000001,5.609,0,0
0.0022217160000000003,-0.0010372822000000001,0.005012048000000001,-0.003983724,-0.0011937100000000002,5.61,0,0
0.0008138500000000002,0.0020900878000000003,-0.0041097320000000005,-0.0025063158,-0.0019247560000000003,5.611,0,0
-0.00029665800000000005,0.0035032294,-0.014995872000000002,-0.0003724758000000001,-0.0018455140000000004,5.612,0,0
-0.001320452,0.0044117314000000005,-0.020602772000000005,0.0013379242,-0.0014813460000000001,5.613,0,0
-0.002385248,0.006650758,-0.019637382000000005,0.0025926882,-0.0015698180000000004,5.614,0,0
-0.003040048,0.00848079,-0.015587262000000001,0.0034947142000000004,-0.0014649,5.615,0,0
-0.003398714,0.00963434,-0.007968546,0.00401747,-0.0012341106,5.616,0,0
-0.004098846,0.010110156,0.0013948479999999997,0.004544624000000001,-0.0011264096,5.617,0,0
-0.004393346,0.008401962,0.005700542,0.004561496,-0.0009380692000000001,5.618,0,0
-0.0035437703,0.005159674,0.004910056,0.00357721834,-0.0007294760000000001,5.619,0,0
-0.0025127312999999995,0.00260757,0.003355854,0.0024732403399999998,-0.0005914918000000001,5.62,0,0
-0.0014991977,0.0009196260000000001,0.002255894,0.0012941363400000001,-0.0002299152000000001,5.621,0,0
0.0003260803000000002,-0.000412654,0.002409418,1.6964940000000048e-05,0.0008120477999999999,5.622,0,0
0.0018272783000000002,-0.000502747,0.0024776299999999998,-0.0012468490600000002,0.0019438114,5.623,0,0
0.0020775426,-0.000324287,0.0013785400000000001,-0.0037508834,0.0027264922,5.624,0,0
0.0024121316,-0.001485131,0.0005873020000000003,-0.007326571400000001,0.0032119999999999996,5.625,0,0
0.003273478,-0.0040082469999999995,0.00019704560000000006,-0.009579603400000001,0.0032560960000000004,5.626,0,0
0.0035700820000000005,-0.006487489,-0.00042638239999999997,-0.010137796000000001,0.0026686620000000005,5.627,0,0
0.003392784,-0.008413276,8.991160000000012e-05,-0.008820326000000002,0.0016662822000000001,5.628,0,0
0.0034179640000000003,-0.008810418,0.0019560956,-0.004058386000000001,0.0008352824,5.629,0,0
0.0028233672,-0.005932722,0.0032658056000000003,0.003101974000000001,0.0003904780000000001,5.63,0,0
0.0015053252000000004,-0.0014292419999999994,0.003829502,0.009704394,0.00018823860000000004,5.631,0,0
0.0002521032,0.002004792000000001,0.004097452,0.013400978000000001,-0.0001898202,5.632,0,0
-0.0006075227999999999,0.004420916,0.003805394,0.014504866000000002,-0.0006673324,5.633,0,0
-0.0010522912,0.005476426400000001,0.003682018,0.013878070000000003,-0.0010906866000000002,5.634,0,0
-0.0008754603999999999,0.0035227144000000003,0.004408844,0.011044736000000001,-0.0015056922000000002,5.635,0,0
-2.8212399999999927e-05,-0.0001914715999999999,0.004584800000000001,0.006360502,-0.0018643108,5.636,0,0
0.0003604976000000001,-0.0027011496,0.002558696,0.0014552000000000002,-0.002043998,5.637,0,0
0.0003754556,-0.0031594154,-0.0005632860000000001,-0.003177426,-0.001885032,5.638,0,0
0.000887786,-0.0029246354,-0.002904942,-0.008106470000000001,-0.001470449,5.639,0,0
0.0008041832,-0.0023063170000000004,-0.0073163180000000005,-0.012028796000000001,-0.0015027950000000001,5.64,0,0
-0.0004430527999999999,-0.0009552003999999999,-0.012244790000000002,-0.014223662,-0.0019465630000000001,5.641,0,0
-0.0009400087999999999,-6.788400000000004e-06,-0.010049136000000002,-0.014900360000000001,-0.002210273,5.642,0,0
-0.0005232058,0.00029882340000000006,-0.004151216000000001,-0.013479166,-0.0021365772000000002,5.643,0,0
-0.0010509038000000002,0.000840783,-0.0008959300000000005,-0.010786252000000001,-0.0018964508000000003,5.644,0,0
-0.001277495,0.0004417946,0.0030494679999999996,-0.008233228,-0.0016140168000000003,5.645,0,0
-0.0007124416000000001,-0.0006595479999999998,0.007603266000000001,-0.0056617360000000005,-0.0008590927600000002,5.646,0,0
-0.0009257876000000001,-0.0004907763999999998,0.0071027056,-0.00274457,-0.00018116656000000003,5.647,0,0
-0.0013112306,-0.00021451039999999982,0.0035658696000000004,-0.001013254,-0.00017779556000000003,5.648,0,0
-0.0011013918,-0.0002544143999999998,0.0013305704,-0.00041581673400000005,-0.00052074496,5.649,0,0
-0.0007944378,0.0008263656000000002,-0.00021557560000000004,0.000590690066,-0.0006895429600000001,5.65,0,0
-0.0008946072,0.0017837856000000002,-0.0011050016000000002,0.0011723858659999998,-0.0007369708,5.651,0,0
-0.00042201678,0.0007922839999999999,-0.0013544832000000001,0.0007041276660000001,-0.0005016409999999999,5.652,0,0
0.00032745121999999997,-0.0006986660000000001,-0.0014569072,0.00030844366600000004,6.683019999999994e-05,5.653,0,0
0.00038070882,-0.001946414,-0.00153907,0.0006258364,0.0006650202,5.654,0,0
0.00062481282,-0.00403072,-0.0012719208,0.0009671155999999999,0.0013240802000000001,5.655,0,0
0.0012997928200000001,-0.005725614,-0.0006032048,0.0012704998,0.001585764,5.656,0,0
0.0012965555600000002,-0.005572050000000001,-0.000309293,0.0023564659999999998,0.0013766950000000003,5.657,0,0
0.00100892356,-0.0050223360000000005,0.000512247,0.0038713820000000005,0.0008770226000000001,5.658,0,0
0.0014891731600000001,-0.004827612,0.002151605,0.004616054,0.0003566826,5.659,0,0
0.00127344576,-0.003076576,0.0031862078,0.005063102,-3.073499999999998e-05,5.66,0,0
0.00051841576,0.00016772800000000023,0.0034948398,0.005458324,-0.00012044139999999994,5.661,0,0
0.0005816592,0.002571022,0.004259860000000001,0.004740235999999999,0.0001889676,5.662,0,0
0.0002080664,0.0047271,0.004117576,0.0034621939999999996,0.00044342800000000005,5.663,0,0
-0.0011197736000000001,0.008590468,0.001930756,0.0025821736,0.0006666982,5.664,0,0
-0.0016248262,0.011644952000000002,-0.00031963800000000024,0.0014172862,0.0009874618,5.665,0,0
-0.0014425136,0.01129428,-0.002773642,0.0003812094000000001,0.0008543382000000001,5.666,0,0
-0.0018620722,0.00935788,-0.005251302,0.0008399374,0.00015681219999999995,5.667,0,0
-0.0018798826000000002,0.006694814000000001,-0.0057109328000000004,0.0011642914000000002,-0.0004810438,5.668,0,0
-0.0005917726000000002,0.0023271720000000006,-0.004663796800000001,0.0007379698,-0.00114129,5.669,0,0
0.0004502834,-0.0013856580000000001,-0.0031800948000000003,0.0007915213999999999,-0.001753474,5.67,0,0
0.0008425788000000001,-0.0021524300000000003,-0.0010550660000000001,-0.00014111180000000024,-0.0018614814000000003,5.671,0,0
0.0019093708000000004,-0.0015857294,0.0007241768,-0.0038307258000000004,-0.0019609894,5.672,0,0
0.0026768840000000005,-0.0009748334000000003,0.0008769748000000001,-0.006901159800000001,-0.0018224754,5.673,0,0
0.0021826146,-0.0009722354000000001,-2.506320000000004e-05,-0.0065455546000000005,-0.0011849754000000001,5.674,0,0
0.001428136,-0.0026479494000000003,-0.0011993032000000002,-0.005688448800000001,-0.0007830633599999999,5.675,0,0
0.0007547960000000001,-0.005822063400000001,-0.002914498,-0.0035469887999999995,-0.00037160396,5.676,0,0
-0.0004992379999999999,-0.008650680000000001,-0.004843482800000001,0.0017593312000000003,0.00104314404,5.677,0,0
-0.0015414159999999999,-0.009876590000000001,-0.0054100780000000005,0.006827191200000001,0.0031804460400000002,5.678,0,0
-0.0017704250000000002,-0.009960916000000002,-0.004508874,0.010304972,0.00512232604,5.679,0,0
-0.0014686810000000001,-0.008423912,-0.0031428320000000004,0.013425864000000001,0.00711266,5.68,0,0
-0.0011535096,-0.004670184000000001,-0.00028579400000000046,0.01557058,0.009207848,5.681,0,0
-0.0009055975999999999,-0.0011933659999999997,0.0038129080000000003,0.01646214,0.010619798,5.682,0,0
-0.0008461956000000001,0.00126465,0.0066854,0.01745356,0.0109301,5.683,0,0
-0.0019447592,0.004616200000000001,0.00772103,0.01829802,0.010723838,5.684,0,0
-0.0033245466,0.0063018580000000005,0.008030752,0.01801826,0.009986076,5.685,0,0
-0.004269108000000001,0.004277424,0.007856854,0.01687158,0.008890914,5.686,0,0
-0.005252578000000001,0.0017169840000000002,0.006049977999999999,0.014835294000000002,0.007837483999999999,5.687,0,0
-0.005356192000000001,-0.0007306440000000001,0.004339506,0.011397273000000001,0.0063964220000000006,5.688,0,0
-0.00345334,-0.0031479040000000004,0.004075582,0.005766765,0.00404494,5.689,0,0
-0.0011079000000000002,-0.00246371,0.0027083240000000007,-0.0010397750000000002,-0.0002528779999999998,5.69,0,0
0.0012470440000000003,0.0011059359999999996,-0.0012983460000000006,-0.008602515000000002,-0.006236616,5.691,0,0
0.00402247,0.0054604580000000005,-0.007105650000000001,-0.017000149000000003,-0.012410846,5.692,0,0
0.0054638,0.009354332,-0.011863618,-0.025019008000000002,-0.017669344000000003,5.693,0,0
0.00529922,0.010719224000000001,-0.012173392000000002,-0.03198114,-0.02119778,5.694,0,0
0.004639306000000001,0.008944766,-0.008352869999999998,-0.035865020000000004,-0.02167708,5.695,0,0
0.003875384,0.00559431,-0.003578181999999999,-0.036213480000000006,-0.019668700000000004,5.696,0,0
0.0029870580000000003,0.0019962339999999995,0.0017212350600000004,-0.0337954,-0.01699678,5.697,0,0
0.0024998,-0.00028733600000000007,0.005273105060000001,-0.029069780000000003,-0.013914807999999999,5.698,0,0
0.002782644,-0.0008610639999999999,0.00351892306,-0.022770506000000003,-0.01042634,5.699,0,0
0.0033929640000000005,-0.0010387864,-0.0003567229399999998,-0.015597671600000002,-0.0067652776,5.7,0,0
0.003504948,-0.0007900004,-0.0019354089400000004,-0.008417993600000001,-0.0032901756000000004,5.701,0,0
0.003005000200000001,-0.0015722664000000003,-0.0015184399999999996,-0.0017926016000000009,0.00021244039999999964,5.702,0,0
0.0020640042,-0.0043198764,-0.0002153639999999999,0.0037142384,0.0031778224000000004,5.703,0,0
0.0003736102,-0.006416714400000001,0.0024699120000000003,0.007938484400000001,0.005180942400000001,5.704,0,0
-0.0015098058000000002,-0.006392528600000001,0.005113314000000001,0.010287530000000001,0.006657476000000001,5.705,0,0
-0.0025162678000000003,-0.0047874506,0.005858984,0.011548092000000001,0.007174484,5.706,0,0
-0.0029108060000000006,-0.0008595485999999997,0.0052344272,0.012344980000000002,0.007003792000000001,5.707,0,0
-0.003226488,0.0030074614,0.0042502192,0.012359580000000002,0.007028032000000001,5.708,0,0
-0.00262772,0.0024597093999999997,0.0042543912,0.011888388,0.007223162000000001,5.709,0,0
-0.0018138268,-0.0009751880000000005,0.005853555200000001,0.011169278000000001,0.007076000000000001,5.71,0,0
-0.0017221208000000002,-0.004862656,0.008136003200000002,0.010143182,0.006709686000000001,5.711,0,0
-0.0008689268000000001,-0.009005736,0.009421902,0.008627612,0.006156874000000001,5.712,0,0
0.0009119951999999998,-0.011098997999999999,0.007690964,0.00719421,0.0053795480000000005,5.713,0,0
0.0019576752,-0.008994437999999999,0.003362908000000001,0.00577232,0.0044237700000000005,5.714,0,0
0.0025772119999999997,-0.006038027999999999,-0.0030692320000000007,0.0037841000000000003,0.0033783120000000005,5.715,0,0
0.0033521480000000005,-0.0045518320000000004,-0.009630912,0.0015817420000000006,0.0024589334,5.716,0,0
0.0026555856000000004,-0.0017871180000000003,-0.011895768000000001,0.00028700519999999986,0.0014677694000000002,5.717,0,0
0.0010195596,0.0025081540000000003,-0.010864015999999999,-0.0009018668000000001,0.0007822414000000001,5.718,0,0
-0.00027093440000000015,0.005815580000000001,-0.009123526000000002,-0.0016331948000000002,0.000389954,5.719,0,0
-0.0016763484000000002,0.008361970000000002,-0.006988526,-0.0007042168000000001,-0.0001726218,5.72,0,0
-0.0030182264,0.009536282,-0.006337686,0.0007190052000000002,-0.00036256540000000005,5.721,0,0
-0.0035212220000000005,0.006501448,-0.007399818000000001,0.00171943,0.00015854859999999993,5.722,0,0
-0.003520388,0.0027728400000000004,-0.007633661999999999,0.0027497180000000004,0.0005732226,5.723,0,0
-0.003696174000000001,0.0024319,-0.007569726000000001,0.004173602,0.000710752,5.724,0,0
-0.0034504380000000005,0.0036975000000000007,-0.006577550000000001,0.00473727,0.0009956709999999998,5.725,0,0
-0.0032006300000000003,0.0066477720000000014,-0.003402416,0.004888916,0.0009378211999999999,5.726,0,0
-0.0033315980000000007,0.011208032,-0.0008423340000000001,0.0049056,4.83491999999999e-05,5.727,0,0
-0.0031514680000000006,0.012691534,0.001393014,0.0043013240000000005,-0.0010397848,5.728,0,0
-0.0022926276000000004,0.009558730199999999,0.004323388,0.0031074776000000006,-0.0017137728000000002,5.729,0,0
-0.0011856576000000003,0.0055164362,0.006209872,0.0019175016,-0.00215238,5.73,0,0
-0.00029921560000000007,0.0022379842,0.006931954,0.0009397754,-0.0025670420000000003,5.731,0,0
0.0007369924,-0.0001970568000000001,0.007292745999999999,-0.00032586260000000005,-0.0029325560000000002,5.732,0,0
0.0016750804000000002,-0.0012756366,0.006369568399999999,-0.0005971144000000001,-0.0028965320000000003,5.733,0,0
0.0018997500000000002,-0.0015865108,0.0040566424,-0.0003770752,-0.00281661,5.734,0,0
0.0018491879999999999,-0.0021449828000000004,0.0024678564,-0.0007689152000000001,-0.0026789096000000004,5.735,0,0
0.002204846,-0.0035980508000000005,0.0025282104,-0.0013162490000000002,-0.0017892136000000002,5.736,0,0
0.002252142,-0.0055298498,0.0028297724,-0.001284487,-0.0007183442000000001,5.737,0,0
0.0019822780000000005,-0.007276776000000001,0.0027716568,-0.0013970840000000003,-0.00020826379999999993,5.738,0,0
0.0024274739999999998,-0.008427542000000001,0.0029404354000000005,-0.0023575088,0.0003598742,5.739,0,0
0.00254087,-0.008418754,0.0020611554,-0.0026215788000000005,0.0008197918,5.74,0,0
0.0017204178000000004,-0.007261818000000001,8.954139999999987e-05,-0.0020622736000000005,0.0008226478,5.741,0,0
0.0013091446000000001,-0.005923658000000001,-0.0010181608,-0.0020820136000000004,0.0014055024,5.742,0,0
0.0010992805,-0.004479018,-0.0014013536000000001,-0.0023071868000000004,0.001988558,5.743,0,0
-5.131500000000078e-06,-0.0024087500000000003,-0.0019898742,-0.0018707268000000003,0.0018373346,5.744,0,0
-0.0010056775000000001,-0.0009252680000000001,-0.0020056642,-0.0025049668000000002,0.001378335,5.745,0,0
-0.0009704851000000001,-0.0003110040000000001,-0.0015064960000000002,-0.0039103,0.0008860729999999998,5.746,0,0
-0.0010261379000000002,0.0004478073999999999,-0.0016894918,-0.0038503120000000003,0.0003352936,5.747,0,0
-0.0010440538000000001,0.0008186130000000002,-0.0015540584,-0.002760218,-0.000172561,5.748,0,0
1.5681999999999285e-06,0.00033723620000000005,-0.0004191024,-0.0001352800000000002,-0.0003244716,5.749,0,0
0.0008244642000000001,0.0011299682,0.00032570559999999996,0.00506911,-0.000445776,5.75,0,0
0.0008918356,0.0032578202,0.0009321234000000001,0.010501963999999999,-0.00045520200000000004,5.751,0,0
0.0015321336,0.0041506428,0.0029123474,0.01407469,-0.0003267306,5.752,0,0
0.0021201876,0.0048599172,0.005015212,0.016630739999999998,-6.2056e-05,5.753,0,0
0.0016722816,0.005881128,0.006410134,0.018156159999999998,0.000338758,5.754,0,0
0.0013340048,0.005345456,0.008129582000000002,0.01788462,0.0007892398,5.755,0,0
0.0015504257999999999,0.00418398,0.0074146578,0.016276719999999998,0.0013922257999999998,5.756,0,0
0.0008769931999999999,0.003785938,0.0013827158,0.0128978354,0.0015007377999999999,5.757,0,0
-0.0003743268000000001,0.0024331780000000003,-0.0063241722,0.006476635399999999,0.0011106258,5.758,0,0
-0.0011349908,-8.250599999999999e-05,-0.0106034222,-0.002106744600000001,0.0005987106,5.759,0,0
-0.0018263720000000002,-0.001548976,-0.011456456200000001,-0.0108275646,0.0002764582,5.76,0,0
-0.0027464566,-0.0021436424,-0.00982123,-0.0175432646,0.0002879422,5.761,0,0
-0.002802522,-0.002842738,-0.004660274000000001,-0.02091996,0.0008865122,5.762,0,0
-0.0019522134,-0.0035984380000000002,0.0016261399999999999,-0.021789180000000002,0.0022193162,5.763,0,0
-0.0017343894,-0.004140666,0.0039955746,-0.02095168,0.0034593674,5.764,0,0
-0.0010018788,-0.004682772,0.0027731120000000003,-0.018976200000000002,0.004456098,5.765,0,0
0.00024731320000000005,-0.005776537599999999,0.0013599012000000002,-0.01772074,0.00429067,5.766,0,0
0.0003572264,-0.007030354,1.0823199999999825e-05,-0.01754224,0.0025083179999999994,5.767,0,0
3.103319999999996e-05,-0.007560816000000001,-0.0009083608,-0.016816360000000002,0.00018331599999999912,5.768,0,0
0.00026535199999999995,-0.007636246000000001,-0.0003373474,-0.01672756,-0.0023602480000000006,5.769,0,0
-2.0702600000000035e-05,-0.007343886,0.00025333919999999995,-0.017675180000000002,-0.004805414000000001,5.77,0,0
-0.0010146666000000002,-0.0065316276,1.7895999999999993e-05,-0.016446682000000004,-0.006515868,5.771,0,0
-0.0010245374000000002,-0.0060226916,0.00026977600000000005,-0.01250103,-0.0071564160000000005,5.772,0,0
-0.0004606628,-0.0050435096,0.000508735,-0.00805293,-0.0073995580000000005,5.773,0,0
-0.00032910459999999997,-0.0019043716000000004,-0.0001817958,-0.0035860220000000003,-0.007773916000000001,5.774,0,0
1.7646800000000043e-05,0.0025902604000000006,-0.00038115379999999996,0.00030006219999999977,-0.007881308000000002,5.775,0,0
0.0013144288000000001,0.007059898000000001,3.034020000000008e-05,0.0015217702,-0.007925216,5.776,0,0
0.0020708464,0.012159642000000002,-0.0004416938,4.2530199999999676e-05,-0.008055998000000002,5.777,0,0
0.0019549444,0.016162554000000003,-0.0005820727999999999,-0.0015957118000000004,-0.0073244980000000005,5.778,0,0
0.0024561454,0.016242038000000004,0.000436708,-0.0019146238000000003,-0.00552795546,5.779,0,0
0.003113454,0.013629154,0.0009633200000000001,0.00042919200000000033,-0.0032324154600000005,5.78,0,0
0.00310988,0.010214192,0.0009011350000000001,0.007467146000000001,0.00015789653999999983,5.781,0,0
0.0027833280000000003,0.00644891,0.001665131,0.018388014,0.00532530454,5.782,0,0
0.0019095040000000002,0.00259409,0.0017011089999999997,0.031185896000000005,0.01055603654,5.783,0,0
-2.2402000000000142e-05,-0.0013172680000000003,-0.000847857,0.04423088,0.014645926,5.784,0,0
-0.0020143360000000003,-0.006682684,-0.0032763189999999998,0.05468038000000001,0.017849878000000003,5.785,0,0
-0.0037377100000000004,-0.012944702,-0.003738134,0.05981016,0.019253680000000002,5.786,0,0
-0.005433430000000001,-0.017114280000000003,-0.004161598,0.059990100000000005,0.018519120000000003,5.787,0,0
-0.005984186,-0.01872338,-0.004433907999999999,0.05614186,0.01719642,5.788,0,0
-0.005216168,-0.017820382,-0.002389818,0.04878236000000001,0.01672636,5.789,0,0
-0.0049468360000000005,-0.013123309800000002,-0.0005637619999999998,0.03993196,0.0165783,5.79,0,0
-0.005135614,-0.005499969800000001,-0.0002268677999999999,0.029447758000000008,0.016418620000000002,5.791,0,0
-0.004637902000000001,0.0011647902000000007,0.0006485122,0.016383538000000007,0.015416830000000001,5.792,0,0
-0.0046478479999999996,0.0060618702000000005,0.0011051708000000002,0.0022619580000000014,0.012175410360000001,5.793,0,0
-0.004785028,0.010490532200000001,0.0005145828,-0.012827802000000001,0.006167110360000002,5.794,0,0
-0.0037970017999999998,0.012126670000000003,0.0008430568000000001,-0.029976542000000002,-0.002363989640000001,5.795,0,0
-0.0024341498000000003,0.011056286,0.0019666266,-0.04726418,-0.01246666964,5.796,0,0
-0.0007010678000000002,0.010950465999999999,0.0025405825999999998,-0.06246946000000001,-0.022760399639999998,5.797,0,0
0.0015768402,0.011409186,0.003976124,-0.07474444,-0.03093038,5.798,0,0
0.0042853822,0.010754866,0.005144546,-0.08156358,-0.035918359999999996,5.799,0,0
0.007289086,0.010589684,0.00385142,-0.08113110000000001,-0.03693958,5.8,0,0
0.009463656,0.010295762,0.001984542,-0.07373477999999999,-0.03383246,5.801,0,0
0.010081058,0.0071635019999999995,0.0016091840000000005,-0.06026282,-0.028085840000000004,5.802,0,0
0.01031836,0.002605878,0.001234084,-0.04413966400000001,-0.021126164000000003,5.803,0,0
0.009818930000000002,-0.0010232440000000004,0.0014710240000000002,-0.028093452199999997,-0.013780583599999998,5.804,0,0
0.007944264000000001,-0.0042352760000000005,0.004644838,-0.013184982200000002,-0.0073538536000000015,5.805,0,0
0.006773036000000001,-0.007339190000000001,0.008984308,-0.0014583421999999997,-0.0026630516,5.806,0,0
0.006067308000000001,-0.00880755,0.010823594000000002,0.007669277800000001,0.0009620824,5.807,0,0
0.004633010200000001,-0.008354486000000001,0.009751245000000002,0.0156573218,0.003999060400000001,5.808,0,0
0.0030817912000000005,-0.006769016000000001,0.008941375000000001,0.021874690000000002,0.00667246,5.809,0,0
0.0013674252000000003,-0.0032966140000000007,0.007667031,0.027003200000000005,0.00830479,5.81,0,0
-0.0012784108,0.0013866260000000002,0.0029133310000000008,0.0314889,0.009951308,5.811,0,0
-0.0035429908000000005,0.005587386000000001,-0.0041792489999999995,0.033800760000000006,0.011985834,5.812,0,0
-0.004700283,0.007983422,-0.010076498,0.03428626,0.012672700000000002,5.813,0,0
-0.006064028000000001,0.008057453000000001,-0.015108104,0.034194220000000004,0.012363160000000002,5.814,0,0
-0.006652964000000001,0.0061638332,-0.0189138,0.03176734,0.012075244,5.815,0,0
-0.005686924,0.0024555172,-0.018268071999999996,0.026834180000000006,0.011445380000000002,5.816,0,0
-0.004543774,-0.0005891248,-0.013867174,0.021587678,0.009880214,5.817,0,0
-0.0037652260000000004,-0.0019111766,-0.007809527,0.015681044,0.007924884000000002,5.818,0,0
-0.002469305,-0.004250475599999999,-0.0020730870000000004,0.009098088,0.005981768000000001,5.819,0,0
-0.0012459997999999999,-0.0071097538,0.000986691,0.003217447999999999,0.0039575198,5.82,0,0
-0.0010630017999999999,-0.0083049178,0.0012664380000000002,-0.001703772,0.0012780738000000005,5.821,0,0
-0.0010694918000000002,-0.0099777158,0.00150053,-0.00661109,-0.0013494342000000001,5.822,0,0
-0.0006449758,-0.011057766,0.0015789621999999998,-0.010929735999999999,-0.0035013122,5.823,0,0
-0.0002100688000000001,-0.008618677600000001,2.0178199999999888e-05,-0.01381686,-0.0057759322,5.824,0,0
7.860199999999988e-05,-0.0054114716,-0.0010845398,-0.015476859999999999,-0.006617952,5.825,0,0
0.00084113,-0.002910362,-0.0012259888000000002,-0.014530552,-0.005475058,5.826,0,0
0.001540586,-0.001144614,-0.0015288068000000002,-0.010928740000000001,-0.0036484739999999996,5.827,0,0
0.001630924,-0.001735054,-0.00045085200000000007,-0.0066546899999999996,-0.0015051139999999997,5.828,0,0
0.001703054,-0.0038013784000000004,0.0020770320000000004,-0.00327573,0.000854762,5.829,0,0
0.0017953140000000001,-0.0040664528,0.0034497220000000006,-0.000729056,0.0019472868000000002,5.83,0,0
0.0016823380000000002,-0.0015416623999999993,0.0033775680000000005,0.0010849240000000001,0.0011548127999999997,5.831,0,0
0.002164464,0.0022436096000000003,0.0014410760000000003,0.0018694260000000004,0.00034435279999999976,5.832,0,0
0.0031238560000000004,0.006934295600000001,-0.0015472379999999998,0.0031872960000000005,0.00031131879999999994,5.833,0,0
0.0026289570000000003,0.0120144116,-0.00192508,0.006464776,0.0007418847999999999,5.834,0,0
0.0016045769999999998,0.01464902,-0.00017029000000000002,0.010515422000000002,0.0019555099999999997,5.835,0,0
0.0012058244399999998,0.012394458000000002,0.0018293039999999995,0.013437854,0.003415642,5.836,0,0
-5.259559999999956e-06,0.006192478000000001,0.004771862,0.01536794,0.003967616,5.837,0,0
-0.0018414775600000001,-0.0012184619999999996,0.006271306,0.015652020000000003,0.003699936,5.838,0,0
-0.0030272145600000002,-0.008034481999999999,0.0044947853999999995,0.01483758,0.003627284,5.839,0,0
-0.00437142056,-0.011737846000000001,0.0020222665999999998,0.01547876,0.004053366,5.84,0,0
-0.006815093999999999,-0.01022943,0.0002260522000000001,0.0174963,0.005628664,5.841,0,0
-0.008944654,-0.00501149,9.640420000000009e-05,0.01995326,0.00898956,5.842,0,0
-0.009769166000000001,0.0011529379999999996,0.0013680062,0.02282088,0.012739262000000001,5.843,0,0
-0.00904637,0.0069359980000000005,0.0024562588,0.02500434,0.014825328,5.844,0,0
-0.007412452,0.010147902,0.0040649756,0.024253260000000002,0.0152779,5.845,0,0
-0.005529401999999999,0.00942931,0.006507284,0.020899202,0.014877600000000001,5.846,0,0
-0.0033694080000000004,0.007295970400000001,0.007225892,0.016430678,0.012693378,5.847,0,0
-0.0019459026,0.0031850424000000005,0.006478876000000001,0.011033732,0.009139884000000001,5.848,0,0
-0.0016527986,-0.0047971976,0.0057100480000000006,0.003654732000000001,0.0060610674,5.849,0,0
-0.0013899900000000002,-0.012607077599999999,0.0016183299999999999,-0.005356508,0.0033389234,5.85,0,0
-0.0008069812000000001,-0.0166638596,-0.00434823,-0.01412279,-1.9124600000000125e-05,5.851,0,0
-0.0010328812,-0.018078848,-0.007273586,-0.022488126,-0.0038635826,5.852,0,0
-0.0013257926,-0.015969554599999998,-0.008399692,-0.031035940000000005,-0.0084586486,5.853,0,0
-0.0012643066,-0.008572994600000002,-0.009281352,-0.039582700000000005,-0.014572592000000002,5.854,0,0
-0.0014824858000000002,0.0011341053999999995,-0.0070746306,-0.046441960000000004,-0.021590668,5.855,0,0
-0.0004880726000000002,0.009413465400000001,-0.0029146706,-0.05154368000000001,-0.0276201,5.856,0,0
0.0019909574,0.014531373400000002,-0.0011061825999999998,-0.05375630000000001,-0.031096620000000002,5.857,0,0
0.0048290834,0.017037620000000003,-0.0005084525999999999,-0.051135780000000006,-0.03123812,5.858,0,0
0.0085191054,0.01767158,0.0002775852,-0.043793200000000004,-0.027890280000000003,5.859,0,0
0.012206496,0.014000048000000001,0.00022904780000000002,-0.0313282734,-0.0224549,5.86,0,0
0.014227324000000001,0.006643328000000001,-0.0007654862000000001,-0.015612613400000003,-0.016287532,5.861,0,0
0.015654340000000003,-0.00017141200000000013,-0.0012820882,-7.835340000000076e-05,-0.010102384000000002,5.862,0,0
0.015900860000000003,-0.006517392,-0.0012395542000000002,0.0132817666,-0.0037693640000000003,5.863,0,0
0.013833256000000002,-0.013113772,-0.001644346,0.023957926600000002,0.0025977160000000003,5.864,0,0
0.011120475999999999,-0.01755042,-0.0007455420000000001,0.03073332,0.008605156,5.865,0,0
0.008446706,-0.01869392,0.001308662,0.032994140000000005,0.013928848,5.866,0,0
0.005004278000000001,-0.017086124,0.002270504,0.03265414,0.01792868,5.867,0,0
0.0014916600000000001,-0.013954532,0.0026390668,0.03143186,0.02038876,5.868,0,0
-0.001162476,-0.010195088000000001,0.0031125892,0.02957564,0.02133784,5.869,0,0
-0.00366467,-0.005192174000000001,0.0025621438000000005,0.02661332,0.02184914,5.87,0,0
-0.0067895,0.00025694599999999965,0.001150217,0.022836079999999998,0.0224095,5.871,0,0
-0.009541992000000001,0.0046453499999999995,0.0006054208,0.017633034,0.02298458,5.872,0,0
-0.010721054,0.010681318000000002,0.0006746768,0.0114287,0.022304280000000003,5.873,0,0
-0.011657534,0.020387614000000002,0.0008477943999999999,0.00599718,0.019288046,5.874,0,0
-0.011776872,0.027652200000000002,0.0027705518,-4.7060000000001545e-06,0.013263324000000002,5.875,0,0
-0.009700594,0.02838618,0.0055121886000000005,-0.006849006,0.003671224,5.876,0,0
-0.007269696000000001,0.025058704,0.006554782800000001,-0.01247194,-0.006905336,5.877,0,0
-0.0053471610000000004,0.017199403999999998,0.006370416,-0.017189026000000003,-0.015870916,5.878,0,0
-0.002767329,0.004388224000000001,0.005101382000000001,-0.021906766,-0.022056082000000005,5.879,0,0
0.00010604499999999982,-0.006818656,-0.00023209800000000046,-0.02487384,-0.024730880000000004,5.88,0,0
0.002065357,-0.011099382,-0.010281218,-0.025147360000000004,-0.02398422,5.881,0,0
0.0036445749999999997,-0.0106298976,-0.018559966,-0.02467658,-0.02159314,5.882,0,0
0.005206992,-0.007435203600000001,-0.020200852000000002,-0.02401152,-0.01862308,5.883,0,0
0.006043700000000001,-0.0022838116000000004,-0.016728086,-0.02225246,-0.015424774,5.884,0,0
0.005807432000000001,0.0017319903999999998,-0.009817985999999999,-0.019839360000000004,-0.012545136,5.885,0,0
0.005227186,0.0031154022000000003,3.231399999999987e-05,-0.01701472,-0.009727846000000002,5.886,0,0
0.00502035,0.0061930338,0.008635074000000001,-0.013108142,-0.007489954,5.887,0,0
0.0046017060000000005,0.0115331998,0.010973416000000001,-0.009262830000000001,-0.005900498000000001,5.888,0,0
0.00419341,0.016168547800000002,0.007917960000000002,-0.006692412000000001,-0.0039282480000000005,5.889,0,0
0.00439636,0.0210417458,0.0013842400000000006,-0.003978137800000001,-0.0015937960000000002,5.89,0,0
0.004729608000000001,0.023047480000000002,-0.00529942,-0.0008007558000000001,0.0004155280000000002,5.891,0,0
0.005825228,0.01684888,-0.007320468000000001,0.0022984062000000003,0.003286914,5.892,0,0
0.00701738,0.004544259999999999,-0.006528260000000001,0.0077384742000000005,0.006898918,5.893,0,0
0.0061387916,-0.00939466,-0.0038012439999999996,0.0149305362,0.009168422,5.894,0,0
0.0037033496,-0.02425576,0.005035536,0.020163442000000004,0.010655312000000002,5.895,0,0
0.0008649195999999998,-0.03629756,0.016774396,0.025143780000000004,0.012979018000000002,5.896,0,0
-0.0036815404000000006,-0.040741780000000005,0.024105244,0.031102280000000003,0.015107680000000002,5.897,0,0
-0.0086814004,-0.03741258,0.0276692,0.03491204,0.016113020000000002,5.898,0,0
-0.010752176,-0.028644704,0.02869744,0.036845800000000005,0.016802900000000003,5.899,0,0
-0.011250398,-0.014079904,0.0226734814,0.039625320000000006,0.01735748,5.9,0,0
-0.01220832,0.0038794959999999988,0.010434181400000003,0.04179994,0.01747762,5.901,0,0
-0.01312088,0.015777116,-0.0047438986,0.041113620000000003,0.01674986,5.902,0,0
-0.01404744,0.015262656000000001,-0.0202720786,0.038432839999999996,0.0156321,5.903,0,0
-0.0157361,0.00487422,-0.0295870186,0.03529802,0.015014020000000001,5.904,0,0
-0.01673328,-0.0070909200000000006,-0.030615402,0.030780460000000003,0.014271920000000002,5.905,0,0
-0.01624424,-0.016140576,-0.0259592466,0.022213800000000006,0.011844768000000002,5.906,0,0
-0.01609936,-0.018093096000000003,-0.0167432626,0.011325680000000005,0.008157812000000002,5.907,0,0
-0.01623478,-0.008061495999999998,-0.0052288526,-0.0006715799999999997,0.003804188000000001,5.908,0,0
-0.014513480000000002,0.010540644000000002,0.0021527734000000003,-0.01478956,-0.0016505519999999998,5.909,0,0
-0.011254858000000001,0.027664924,0.0042160714,-0.027979920000000002,-0.0074514920000000005,5.91,0,0
-0.007911314,0.035689160000000004,0.005178218,-0.037373960000000005,-0.0129122,5.911,0,0
-0.0025586339999999997,0.033775478000000005,0.00577154,-0.04385618000000001,-0.017641064,5.912,0,0
0.004732666,0.024713358,0.006120574,-0.046967440000000006,-0.021062140000000003,5.913,0,0
0.010834346000000002,0.012513917999999997,0.006222588,-0.04634984000000001,-0.02354398,5.914,0,0
0.014748664000000002,-0.0004754620000000016,0.006103834,-0.044959160000000005,-0.02496806,5.915,0,0
0.01690348,-0.012352002,0.0050470490000000005,-0.04269822,-0.023918500000000002,5.916,0,0
0.017322620000000004,-0.02039912,0.002259535,-0.03973414,-0.022110559999999998,5.917,0,0
0.017232960000000002,-0.023772020000000005,-0.0007406670000000002,-0.037940440000000006,-0.02116848,5.918,0,0
0.017979580000000002,-0.024387480000000003,-0.0022999022000000004,-0.03679518,-0.01967778,5.919,0,0
0.01949056,-0.023559576000000002,-0.0029665702,-0.03515898,-0.0179002,5.92,0,0
0.021975440000000002,-0.0186392826,-0.0035195852000000005,-0.03207978,-0.016010398000000002,5.921,0,0
0.024679480000000004,-0.0111259788,-0.002073505,-0.02603709,-0.013087834000000003,5.922,0,0
0.026313800000000002,-0.0065998188000000015,0.00028608100000000004,-0.01570207,-0.008986955000000003,5.923,0,0
0.025179140000000003,-0.0052586188,0.0010100982000000001,-0.001419730000000001,-0.0030461750000000004,5.924,0,0
0.021129284,-0.0054523408,0.0014032502,0.01587389,0.0049415050000000005,5.925,0,0
0.016982434,-0.0046338242,0.0017099762,0.03333873,0.013306563,5.926,0,0
0.01286232,-0.0009310480000000003,0.0007043659999999999,0.047359120000000005,0.021328779,5.927,0,0
0.007101362,0.003459012,-0.00041095000000000004,0.05664566000000001,0.028796359999999997,5.928,0,0
0.0011240020000000002,0.0069536960000000005,-0.0005522280000000001,0.06085190000000001,0.033727499999999994,5.929,0,0
-0.004334702,0.009926355999999999,-0.0004153459999999999,0.0602929,0.03589324,5.93,0,0
-0.010373552000000001,0.011494806,4.0320000000000156e-05,0.05682808,0.03602384,5.931,0,0
-0.015607258000000002,0.010792826,0.000849878,0.05105688,0.03353012,5.932,0,0
-0.019344820000000002,0.010589226,0.0004835700000000002,0.043330780000000006,0.02906136,5.933,0,0
-0.0222093,0.011935122000000001,-0.0012594439999999998,0.0341676,0.023026018000000002,5.934,0,0
-0.02357062,0.012281132000000002,-0.002429924,0.02223791,0.01519086,5.935,0,0
-0.023763500000000003,0.010539384,-0.0024732696,0.00800199,0.0068117559999999995,5.936,0,0
-0.023414460000000005,0.008272768000000002,-0.0025644576000000002,-0.006128550000000001,-0.0012457240000000001,5.937,0,0
-0.021276640000000006,0.006311364000000001,-0.0023663016,-0.019938110000000002,-0.009825604000000002,5.938,0,0
-0.016617796000000004,0.0037243286,-0.0007960395999999999,-0.03328905,-0.018381442,5.939,0,0
-0.010847216,0.0013413726,0.00028330240000000006,-0.042351120000000006,-0.024955444,5.94,0,0
-0.004427830000000001,-0.00024057340000000014,0.000789972,-0.04671684,-0.03002108,5.941,0,0
0.00184725,-0.0017370874000000001,0.002823336,-0.05001632,-0.0343452,5.942,0,0
0.00628381,-0.0029509754,0.00459518,-0.05039542,-0.035631659999999996,5.943,0,0
0.009003286,-0.0037483620000000007,0.004065386,-0.045167280000000004,-0.03275626,5.944,0,0
0.010917886,-0.004768882,0.003075044,-0.037815320000000006,-0.02818066,5.945,0,0
0.01189564,-0.00538365,0.002831124,-0.030594846000000002,-0.02246872,5.946,0,0
0.0122232,-0.0047455698,0.0021068379999999998,-0.021641168000000002,-0.014724466000000002,5.947,0,0
0.01241156,-0.0033363838,0.001821132,-0.013019952000000001,-0.007319082000000001,5.948,0,0
0.012110118000000001,-0.0005120378000000002,0.0032263680000000003,-0.007438386,-0.0018207780000000003,5.949,0,0
0.011219390000000001,0.0038731662,0.0029764199999999996,-0.0031708739999999997,0.002598224,5.95,0,0
0.00962347,0.0082723682,-0.0007867580000000002,0.00037823800000000014,0.005973424,5.951,0,0
0.008214028,0.011243398,-0.004250228,0.0042188,0.00825861,5.952,0,0
0.006784726,0.011875779999999999,-0.006015482,0.010502784000000001,0.009679706,5.953,0,0
0.00392752,0.009937776,-0.0074983440000000005,0.018765258,0.010970462,5.954,0,0
-0.00047707200000000026,0.006153820000000001,-0.0066456982,0.027481726000000005,0.012584960000000001,5.955,0,0
-0.006352532000000001,0.0006162599999999996,-0.0025515802,0.035568720000000005,0.01336308,5.956,0,0
-0.013868690000000003,-0.005598120000000001,0.0005994378,0.04211746000000001,0.013508840000000001,5.957,0,0
-0.020695608000000004,-0.009814876,0.0020650958,0.04547180000000001,0.01449218,5.958,0,0
-0.023705080000000003,-0.012493176000000002,0.0031213738,0.044678760000000005,0.01527854,5.959,0,0
-0.023726200000000003,-0.012924692,0.002594836,0.04007956000000001,0.01464736,5.96,0,0
-0.021539480000000003,-0.009723594,0.000968172,0.032210264,0.013474996000000001,5.961,0,0
-0.016217032,-0.004507949999999999,0.00023379920000000012,0.021910872,0.012110330000000002,5.962,0,0
-0.010214078800000002,0.0003621099999999999,-1.5548799999999996e-05,0.010565112000000002,0.010116674,5.963,0,0
-0.0070490208,0.004339906000000001,-0.0005966462000000002,-0.0006873279999999996,0.007456994000000001,5.964,0,0
-0.0043438408,0.007628432000000001,0.0014100238,-0.011796528,0.004589786000000001,5.965,0,0
0.00015716320000000016,0.00781885,0.0056034098000000004,-0.021553452,0.0013634680000000003,5.966,0,0
0.0032155352000000003,0.006206998000000001,0.0083275446,-0.029196680000000003,-0.0031476460000000005,5.967,0,0
0.005154484000000001,0.005723238,0.0101251706,-0.03497654,-0.007719729999999999,5.968,0,0
0.008946726000000002,0.006034792000000001,0.011913742,-0.037884940000000006,-0.01085357,5.969,0,0
0.012147366000000003,0.005116014,0.00853042,-0.038170300000000004,-0.013827502,5.97,0,0
0.013162242000000001,0.0013987979999999997,-0.0027616200000000002,-0.03639582000000001,-0.01699914,5.971,0,0
0.015172382000000002,-0.005188794000000001,-0.01751606,-0.033084840000000004,-0.018155460000000002,5.972,0,0
0.01798648,-0.014443474000000001,-0.028198400000000002,-0.029321580000000007,-0.01747928,5.973,0,0
0.01947764,-0.023313964000000003,-0.030604050000000004,-0.024958720000000004,-0.016397986,5.974,0,0
0.020644819999999998,-0.026117060000000004,-0.026161966000000005,-0.01997336,-0.013893974,5.975,0,0
0.02097714,-0.019690580000000003,-0.013590946000000003,-0.013703044000000001,-0.009645678000000001,5.976,0,0
0.01853479,-0.008871260000000002,0.003721573999999999,-0.003381124000000001,-0.004045104000000001,5.977,0,0
0.014257293999999998,0.001032459999999998,0.015413794,0.011364136,0.0025223360000000005,5.978,0,0
0.00869763,0.009293178000000001,0.018526019999999997,0.027731936000000002,0.009273382,5.979,0,0
0.00045669000000000005,0.014027478000000001,0.017658034,0.045201636,0.01529281,5.98,0,0
-0.00929891,0.013773858,0.013725822,0.062464080000000005,0.020529194,5.981,0,0
-0.018158760000000003,0.010202234000000001,0.008955078,0.07395466,0.0245966,5.982,0,0
-0.025811704,0.007997522000000002,0.006613198,0.07737088,0.02615744,5.983,0,0
-0.03279676,0.008570930000000001,0.004412986,0.07475,0.02556972,5.984,0,0
-0.03672514,0.008383110000000001,0.003011448,0.06630394,0.02429954,5.985,0,0
-0.03579926,0.0074151700000000004,0.0027504940000000005,0.05226776000000001,0.02356834,5.986,0,0
-0.032809160000000004,0.008286650000000001,0.0013824860000000003,0.03543318,0.02321496,5.987,0,0
-0.02837692,0.009796534000000003,-0.0006701919999999998,0.01793782,0.022927740000000002,5.988,0,0
-0.020021826,0.008643866,-0.001624324,-7.715999999999973e-05,0.02151708,5.989,0,0
-0.009194586,0.004263024000000001,-0.002432826,-0.01685342,0.01729062,5.99,0,0
-0.00023920600000000005,-0.0022386360000000004,-0.0034869360000000004,-0.03208602,0.009005639999999999,5.991,0,0
0.0074428540000000005,-0.009882832000000001,-0.0025122933999999998,-0.0478721,-0.0042684199999999985,5.992,0,0
0.015310514,-0.016151844,-0.0007391854000000001,-0.06215126,-0.02051576,5.993,0,0
0.021137700000000002,-0.01811717,-0.00034426939999999994,-0.07225848,-0.03533862,5.994,0,0
0.024207080000000002,-0.015795990000000003,-0.0015519353999999999,-0.07739314,-0.045039659999999995,5.995,0,0
0.02683062,-0.010314982,-0.0029073334,-0.07597309999999999,-0.0486563,5.996,0,0
0.02953758,-0.002788736,-0.003087704,-0.06745558,-0.04660364,5.997,0,0
0.03072548,0.003972504,-0.0029791419999999997,-0.055083679999999996,-0.03982535999999999,5.998,0,0
0.03042804,0.008054012000000001,-0.002863014,-0.04208618000000001,-0.029706338,5.999,0,0
0.02827132,0.010383714,-0.001585422,-0.029969020000000002,-0.018926695999999996,6.0,0,0
0.02424094,0.011958506,0.0001430640000000001,-0.020108394000000005,-0.009565798000000002,6.001,0,0
0.019302838,0.009821606,0.00036667400000000016,-0.011061498000000001,-0.0010090379999999999,6.002,0,0
0.013511295999999999,0.0018963859999999982,-2.5173999999999986e-05,-0.0011324580000000002,0.006332862,6.003,0,0
0.0070212420000000005,-0.007923394,-0.00033101399999999997,0.008477062,0.01021994,6.004,0,0
0.0013804880000000005,-0.015084054000000003,-0.000557256,0.016923622,0.010962963999999999,6.005,0,0
-0.0023627860000000004,-0.018259276,3.7442e-05,0.024171656,0.010887488,6.006,0,0
-0.005054892,-0.016209226,0.0010868660000000001,0.029491120000000003,0.009929322,6.007,0,0
-0.00800763,-0.007318986000000003,0.00273001,0.0345844,0.00836534,6.008,0,0
-0.011351256,0.004466194,0.004605186,0.04126932,0.008074704,6.009,0,0
-0.014584222000000004,0.010356816,0.005470296,0.0472069,0.009021518,6.01,0,0
-0.017712688000000004,0.008192038,0.006146544,0.050063,0.010001956,6.011,0,0
-0.019764560000000004,0.005344887999999999,0.007165970000000001,0.04898894,0.010804402,6.012,0,0
-0.019853020000000006,0.005104568,0.006496526000000001,0.040821812,0.010559218000000002,6.013,0,0
-0.017704772,0.006665448000000001,0.003492032000000001,0.025908832000000003,0.0087322458,6.014,0,0
-0.013386130000000001,0.011741326000000002,0.0001321039999999992,0.009009112,0.0061144732,6.015,0,0
-0.0084523896,0.018626586,-0.0020843080000000004,-0.006455348,0.0033033878,6.016,0,0
-0.0052458788,0.024535480000000002,-0.003118144000000001,-0.018246128,0.0005079197999999997,6.017,0,0
-0.0031539928000000007,0.0267697,-0.003836942000000001,-0.02741512,-0.0030180942000000003,6.018,0,0
-0.00032967679999999994,0.021813615999999997,-0.0038217660000000007,-0.034131260000000004,-0.006990186000000001,6.019,0,0
0.0016135072,0.012184536,-0.002736622,-0.03721426,-0.010252853400000001,6.02,0,0
0.0018703548,-0.00036754400000000263,-0.003401172,-0.03876188,-0.012799508000000001,6.021,0,0
0.002804224,-0.018947504000000004,-0.006231386,-0.04098982,-0.0150399,6.022,0,0
0.00458664,-0.036424364,-0.007752122,-0.04136866,-0.0159237,6.023,0,0
0.00525731,-0.042362220000000006,-0.006991134,-0.03798366,-0.01459266,6.024,0,0
0.006148743999999999,-0.04037694,-0.005408418,-0.03311798,-0.012020323999999999,6.025,0,0
0.008269636,-0.032200362,-0.003872704,-0.026591566,-0.008975324,6.026,0,0
0.009866856,-0.016392622,-0.003915907999999999,-0.017785296,-0.005399046,6.027,0,0
0.010034982000000001,-0.0043099919999999995,-0.005663378,-0.007768247999999999,-0.0009827400000000004,6.028,0,0
0.009177948000000002,-0.0025896519999999996,-0.007164924,0.002180472,0.003503968,6.029,0,0
0.0070554212,-0.0048893719999999995,-0.008441032000000001,0.012702152000000001,0.007377832,6.03,0,0
0.002756957200000001,-0.00740463,-0.008431442,0.024228398,0.010718152,6.031,0,0
-0.0026723428000000006,-0.009198724799999999,-0.004239488,0.033862788000000005,0.013211834,6.032,0,0
-0.006991330800000001,-0.006128974799999998,0.0029806319999999996,0.040940859999999996,0.014770687999999999,6.033,0,0
-0.0100002908,0.0025687252,0.009983932000000001,0.045695160000000005,0.015819279999999998,6.034,0,0
-0.012206464,0.0152322852,0.01696028,0.045825920000000006,0.016881260000000002,6.035,0,0
-0.012463660000000001,0.030344585200000003,0.02260382,0.04177990000000001,0.01849604,6.036,0,0
-0.01134501,0.0444527,0.02311106,0.037737639999999996,0.01991874,6.037,0,0
-0.00910795,0.05383338,0.018150904,0.03380724,0.01963414,6.038,0,0
-0.005899906,0.0505585,0.011025784,0.027746140000000006,0.017523726,6.039,0,0
-0.0035155380000000008,0.03184438,0.006441988000000001,0.020463604000000003,0.012964214000000002,6.04,0,0
-0.0017028300000000002,0.008309839999999995,0.002607664,0.011615544000000002,0.005489594,6.041,0,0
0.00040660199999999994,-0.009000080000000002,-0.003931396,0.0009254840000000007,-0.0019887060000000002,6.042,0,0
0.0019055759999999998,-0.0182724,-0.00642788,-0.009222876000000001,-0.0063825340000000005,6.043,0,0
0.0025000400000000002,-0.01724736,-0.004522232,-0.015645336000000003,-0.007895290000000001,6.044,0,0
0.003232198,-0.007084406,-0.008226576,-0.01682839,-0.0070348879999999996,6.045,0,0
0.003146178,-2.104599999999939e-05,-0.014958251999999998,-0.014036248000000001,-0.0047783114000000005,6.046,0,0
0.0019240179999999998,-0.004967186,-0.016247652,-0.008736954000000002,-0.0024825214000000003,6.047,0,0
0.00046365399999999954,-0.018776045999999998,-0.015482772,-0.0033032008000000003,-0.0010710794,6.048,0,0
-0.0012877280000000004,-0.031188046000000004,-0.01510652,0.0004507896000000001,-0.0013421334,6.049,0,0
-0.001868756,-0.03898482,-0.011592568,0.0026105536,-0.0023988734000000003,6.05,0,0
-0.00020842000000000018,-0.043552980000000005,-0.004753418000000001,0.0028294416000000005,-0.003387856,6.051,0,0
0.001969124,-0.040942360000000004,0.0031232820000000007,0.0015291736000000002,-0.003919816,6.052,0,0
0.003436982,-0.030297252,0.007673962000000001,0.0018156964000000002,-0.0028311099999999995,6.053,0,0
0.002817398,-0.018324812000000003,0.008330808000000002,0.004093426,7.099400000000044e-05,6.054,0,0
-0.0004939000000000002,-0.005640911999999998,0.0076526730000000005,0.0070612520000000005,0.0034543240000000004,6.055,0,0
-0.004808964000000001,0.010508708000000002,0.005719761000000001,0.012985362,0.00745871,6.056,0,0
-0.01004991,0.025347868000000003,0.0020435230000000006,0.020752456000000002,0.010579860000000002,6.057,0,0
-0.015115778000000002,0.035766980000000004,-0.001605393,0.025175680000000002,0.01005516078,6.058,0,0
-0.01708568,0.03974076000000001,-0.0027305429999999998,0.0230519666,0.005265840779999999,6.059,0,0
-0.01636986,0.03739158,-0.0024833043999999997,0.0147718666,-0.00304039922,6.06,0,0
-0.013628126000000003,0.031750940000000005,-0.0024554664,0.0015915866,-0.01176129922,6.061,0,0
-0.007504432000000002,0.01929822,-0.0022087304,-0.0143227734,-0.01781111922,6.062,0,0
0.00048006799999999886,0.0009579000000000011,-0.0006214104,-0.0284699734,-0.020332560000000003,6.063,0,0
0.008321928,-0.01245856,0.0008958536,-0.03858882,-0.019372754000000002,6.064,0,0
0.015959347999999998,-0.018428140000000003,0.002188268,-0.04647924,-0.016195453999999998,6.065,0,0
0.022504114000000002,-0.02013892,0.003689416,-0.0530191,-0.014041014000000001,6.066,0,0
0.02634192,-0.01348444,0.004173560000000001,-0.057307079999999996,-0.014985714,6.067,0,0
0.027414559999999998,0.0008838799999999992,0.004393496,-0.06012046,-0.017925614,6.068,0,0
0.02681104,0.01297736,0.0041692660000000005,-0.0599712,-0.02007244,6.069,0,0
0.024541439999999998,0.01946184,0.00297809,-0.05368192000000001,-0.019563427999999997,6.07,0,0
0.020605480000000002,0.0216728,0.002581724,-0.042422092,-0.016585621999999998,6.071,0,0
0.016207116,0.016735919999999998,0.004601602,-0.029512816600000002,-0.011531542,6.072,0,0
0.012884936,0.005870180000000001,0.0050676620000000006,-0.0157874346,-0.004524538,6.073,0,0
0.011433036,-0.00566238,0.00247392,-0.0018592346000000006,0.0019657620000000002,6.074,0,0
0.010970836000000001,-0.016700040000000003,0.0012006560000000011,0.009520965400000001,0.006975330000000001,6.075,0,0
0.01054918,-0.02616618,0.0001351440000000003,0.0180845174,0.011636304,6.076,0,0
0.009926682000000001,-0.02932848,-0.0034167060000000003,0.026732082,0.015538104,6.077,0,0
0.008061726,-0.025643198000000002,-0.005245066,0.03466042,0.01796646,6.078,0,0
0.004077466,-0.018526574,-0.0019138039999999999,0.04151992,0.01965434,6.079,0,0
-0.002999134,-0.009402888000000002,0.0014544860000000005,0.0502995,0.02103614,6.08,0,0
-0.013469098,0.0010097320000000002,0.0006071980000000004,0.058980979999999995,0.02098684,6.081,0,0
-0.024729076000000003,0.011873812000000001,-0.0012717319999999994,0.06416996,0.01984696,6.082,0,0
-0.03512636,0.02055117,-0.0016415679999999997,0.06729534000000001,0.01791778,6.083,0,0
-0.04407582,0.024205986,-0.0029728419999999994,0.06747674,0.015243458,6.084,0,0
-0.047867780000000006,0.022702644,-0.0051625328,0.06038086,0.011228168,6.085,0,0
-0.045269540000000004,0.016852144,-0.0030194928000000006,0.04859184,0.00644768,6.086,0,0
-0.039246380000000004,0.007718203999999999,0.0019730152000000003,0.036000752000000004,0.0022608000000000003,6.087,0,0
-0.031726960000000005,-0.0008333980000000003,0.004833125200000001,0.021219472000000003,-0.0014044239999999998,6.088,0,0
-0.023416852,-0.0035014379999999995,0.0071541892,0.003664332000000001,-0.004344192,6.089,0,0
-0.0152108814,0.0008336980000000008,0.009724720000000001,-0.014140908,-0.0067022,6.09,0,0
-0.0073702054000000005,0.010917078,0.010619816,-0.031629808,-0.009136792000000001,6.091,0,0
0.0006979945999999997,0.022181977999999998,0.010083284,-0.05049242,-0.011761252000000002,6.092,0,0
0.0083120346,0.02649024,0.007913566,-0.06882452,-0.014160628000000001,6.093,0,0
0.014992166599999999,0.021212260000000004,0.002066746,-0.0842498,-0.017650278,6.094,0,0
0.021156416,0.01025156,-0.004486634000000001,-0.09325638,-0.020953339999999997,6.095,0,0
0.02649616,-0.0019440999999999998,-0.010113448,-0.09265198000000001,-0.02100666,6.096,0,0
0.03032502,-0.0147491,-0.018163844,-0.08181464,-0.018451756,6.097,0,0
0.03342358,-0.026024859999999997,-0.02303384,-0.059974596,-0.0145696466,6.098,0,0
0.03555138,-0.029258560000000003,-0.0195818542,-0.031434395999999996,-0.0088670486,6.099,0,0
0.034302900000000004,-0.023175008200000003,-0.014474132199999998,-0.0036011559999999995,-0.0020373386000000007,6.1,0,0
0.028995468000000003,-0.016287268200000003,-0.0102762142,0.019898364,0.0031142614000000002,6.101,0,0
0.020974266000000002,-0.012304914200000001,-0.0035381852000000006,0.036190384000000006,0.006834717400000001,6.102,0,0
0.012542778000000003,-0.0064261802,0.0020556408000000003,0.04299784,0.010464808,6.103,0,0
0.00447413,-0.0020479802,0.003491637,0.04507324,0.013652309999999999,6.104,0,0
-0.00234218,-0.003689162,0.004810195,0.0471839,0.017834080000000002,6.105,0,0
-0.005495804,-0.00729199,0.007674857,0.04891670000000001,0.024135339999999998,6.106,0,0
-0.0048457759999999996,-0.008803002,0.011483428,0.053110300000000006,0.03125510000000001,6.107,0,0
-0.002920835999999999,-0.00831815,0.015344522,0.05986532000000001,0.038119520000000004,6.108,0,0
-0.001369968,-0.00389063,0.017424460000000003,0.06271646,0.04344924000000001,6.109,0,0
-0.0015398180000000005,0.004933300000000001,0.017424759999999997,0.05948206000000001,0.0432249,6.11,0,0
-0.005164582000000001,0.011897308000000002,0.015032944,0.05324380000000001,0.036804596,6.111,0,0
-0.010534388000000002,0.012502228,0.010342826,0.04322796,0.0273026772,6.112,0,0
-0.015720400000000002,0.006587522000000002,0.0025017660000000008,0.027782662000000003,0.015426425199999998,6.113,0,0
-0.019592040000000005,-0.0022745779999999967,-0.006084114,0.013485582000000001,0.003231945200000001,6.114,0,0
-0.020573540000000005,-0.012368857999999998,-0.008564140199999999,0.004130382000000002,-0.0053950548,6.115,0,0
-0.02039098,-0.01873983,-0.005281244199999998,-0.0024470399999999997,-0.0097602308,6.116,0,0
-0.022425260000000002,-0.010954931999999999,-0.0024569421999999985,-0.005959702400000001,-0.013133412,6.117,0,0
-0.02631484,0.005183728,0.0003543658000000004,-0.0081499644,-0.01828936,6.118,0,0
-0.029721019999999997,0.014679608000000002,0.0033260078,-0.0126395844,-0.02491662,6.119,0,0
-0.03241402,0.0173097,-0.0014096260000000006,-0.020279884400000003,-0.03235774,6.12,0,0
-0.03248526,0.017066622000000004,-0.011632946000000002,-0.030856002400000002,-0.0402938,6.121,0,0
-0.027837700000000003,0.009054462,-0.018653150000000004,-0.043060980000000006,-0.04631168,6.122,0,0
-0.020851166,-0.005056838000000001,-0.021469498000000004,-0.053091980000000004,-0.047914240000000004,6.123,0,0
-0.013907944000000002,-0.015224318,-0.021534120000000004,-0.05743912,-0.04408508,6.124,0,0
-0.005756344,-0.01813011,-0.017638550000000003,-0.056181440000000006,-0.03562478000000001,6.125,0,0
0.003998156,-0.016179252,-0.010252318000000002,-0.052370820000000005,-0.026273794000000003,6.126,0,0
0.013835816,-0.009649011999999998,-0.0029235780000000005,-0.048097900000000006,-0.018621730000000003,6.127,0,0
0.024406982,0.0041169280000000015,0.0034116019999999997,-0.0448105,-0.01262541,6.128,0,0
0.03530756,0.020375348,0.008301922,-0.04485185999999999,-0.00883076,6.129,0,0
0.043362960000000006,0.027931868000000002,0.011112372,-0.04717026,-0.007634434000000002,6.13,0,0
0.04729226,0.025004436000000005,0.01180718,-0.04785968,-0.005933410000000001,6.131,0,0
0.04807616000000001,0.016820556000000004,0.012202240000000001,-0.04517514,-0.001314454000000001,6.132,0,0
0.04604330000000001,0.002627216,0.011722500000000002,-0.03743918400000001,0.004964446,6.133,0,0
0.041955400000000004,-0.015345644,0.009167828000000001,-0.024973576000000004,0.010959836,6.134,0,0
0.037869940000000005,-0.025703444000000002,0.007514674000000001,-0.010415296000000001,0.01599205,6.135,0,0
0.03372796,-0.0262028,0.007028602,0.005564144000000001,0.019775300000000003,6.136,0,0
0.0278172,-0.023071332,0.0059866680000000005,0.022071404000000003,0.021344000000000002,6.137,0,0
