bandpass 1,bandpass 2,bandpass 3,bandpass 4,bandpass 5,time,onset,mark
0.0014286306,0.004183516,-0.001297789,0.0006951294,-0.0031959700000000002,8.28,0,0
0.0012197025999999998,0.005448456,-0.0013952454,0.0009229114,-0.0019516840000000004,8.281,0,0
0.0009686225999999997,0.0067526800000000005,-0.0015720202,0.0013948974,0.000293436,8.282,0,0
0.0002454032,0.007378676,-0.0010016142000000001,0.001590044,0.005583576,8.283,0,0
-0.00022418580000000007,0.006206456000000001,-0.0011839712,0.0015029208,0.009257144,8.284,0,0
-0.00033375220000000005,0.0042933474,-7.708919999999998e-05,0.0014482408,0.01088455,8.285,0,0
-0.0005287022,0.0017468814000000004,0.0019515292,0.0017306808000000001,0.011304074,8.286,0,0
-0.0006890621999999999,-0.0019452425999999998,0.002800124,0.0015137108000000002,0.009788980000000001,8.287,0,0
-0.0008598988,-0.0057519446,0.0030055274,0.0010676712000000001,0.0064831640000000005,8.288,0,0
-0.0011213038,-0.009083218600000002,0.0029923814000000003,0.0009629925200000002,0.0032194380000000002,8.289,0,0
-0.0012714835999999999,-0.010518552,0.0015299934,0.0007706879200000002,-0.0002056340000000001,8.29,0,0
-0.0011062316,-0.009501898,-0.0010471526,0.00019330592,-0.004176144,8.291,0,0
-0.0009962656,-0.007337852000000001,-0.0021288086000000005,-0.00024000368,-0.00731615,8.292,0,0
-0.0010908774000000002,-0.0047125506000000005,-0.0016729080000000003,1.0848920000000012e-05,-0.009097654,8.293,0,0
-0.0007093856000000001,-0.0021528644,-0.000441724,4.519740000000001e-05,-0.010152548,8.294,0,0
1.2675999999999985e-05,-0.0003964944,0.0015775520000000003,-0.00011413372,-0.009625426000000001,8.295,0,0
0.000694176,0.0003643216,0.003422556,0.00019531428,-0.007250987200000001,8.296,0,0
0.001234966,0.0010652096,0.0035584260000000004,0.00048551328000000004,-0.004198749200000001,8.297,0,0
0.0013395368000000002,0.0025532482,0.001529452,0.00054507328,-0.0007465691999999997,8.298,0,0
0.000392023,0.005626982000000001,-0.002642226,0.00053879628,0.0033937708000000002,8.299,0,0
-0.001273915,0.009328298000000002,-0.010108068000000001,0.0002529899999999999,0.0070369968000000005,8.3,0,0
-0.0024299290000000004,0.011922094000000001,-0.016268368,-7.240060000000004e-05,0.008862312,8.301,0,0
-0.002988707,0.012601488,-0.015193506,-6.73040000000004e-06,0.009778086000000002,8.302,0,0
-0.003135894,0.010686366000000001,-0.010801384,-0.00018965819999999998,0.009886190000000001,8.303,0,0
-0.0023842738160000003,0.006473379999999999,-0.005283804,-0.0005230698000000001,0.007977910000000001,8.304,0,0
-0.001118345416,0.0014909999999999995,0.004125576000000001,-0.0003057282,0.004702288,8.305,0,0
-1.8341416000000024e-05,-0.0018467020000000002,0.013592176000000001,-0.00012955919999999997,0.0017033479999999997,8.306,0,0
0.001367728584,-0.00274091,0.017498720000000002,-0.0004775514,-0.0014140300000000001,8.307,0,0
0.002765994584,-0.0013181719999999998,0.0173759,-0.0005374150000000001,-0.0050241140000000005,8.308,0,0
0.0031796044,0.002829054,0.016854734,-0.0002020686,-0.007324456,8.309,0,0
0.0027276939999999997,0.007776954,0.014383118,-0.00023876300000000002,-0.008004064,8.31,0,0
0.0016465859999999998,0.010216276,0.0068223780000000005,-0.0005286462,-0.008188467999999999,8.311,0,0
-4.191999999999976e-06,0.009129463999999999,-0.0050063220000000005,-0.00024178380000000003,-0.007313442,8.312,0,0
-0.0017228500000000004,0.002703427999999999,-0.013668462000000001,0.00025587460000000005,-0.004955556800000001,8.313,0,0
-0.0025024740000000006,-0.008284712000000003,-0.015131096000000002,0.0003980822000000001,-0.0020231728000000004,8.314,0,0
-0.0019281300000000006,-0.017401292000000002,-0.012807440000000002,0.000866405,0.0008666872,8.315,0,0
-0.0013021178,-0.021289156000000004,-0.006997840000000002,0.0014545118000000002,0.0040134672,8.316,0,0
-0.0011844798,-0.020540856400000005,0.0029390399999999995,0.0015639900000000001,0.0067649471999999995,8.317,0,0
-0.0009944758000000001,-0.014572614400000003,0.01183282,0.0009998920000000003,0.008064915999999998,8.318,0,0
-0.0008742418,-0.005863816400000001,0.01365738,0.0004740060000000001,0.008253398,8.319,0,0
-0.0009089998,-0.0006699994000000001,0.011075982000000002,0.00032793,0.007561814000000001,8.32,0,0
-0.000563228,0.00035851259999999984,0.007497874000000002,-4.904026000000004e-05,0.00594834,8.321,0,0
0.00028102400000000005,-5.771100000000011e-05,0.002532934000000001,-0.00025316566,0.003360182,8.322,0,0
0.0012335520000000002,-0.000702598,-0.004759186,-0.00019915546000000007,0.00029000800000000024,8.323,0,0
0.001726158,-0.0009274580000000001,-0.013483366,-0.00040097346,-0.0029932760000000004,8.324,0,0
0.0015614938,-0.0001325330000000001,-0.017641508,-0.00085918346,-0.006161362,8.325,0,0
0.0014747629999999998,0.0013874690000000001,-0.0169623438,-0.0010685644,-0.008183824000000001,8.326,0,0
0.0012906116,0.0026435549999999997,-0.015543283800000002,-0.0012818958,-0.009147,8.327,0,0
0.0011074676,0.004187738,-0.0110520866,-0.001291254,-0.00891392,8.328,0,0
0.0013945416,0.00647968,-0.0018425266000000004,-0.0005876386000000001,-0.007241934000000001,8.329,0,0
0.0014385522000000001,0.008515418,0.0058648934000000005,-0.0001901152,-0.0049349884000000005,8.33,0,0
0.0013225804,0.009917168,0.0095582172,-0.0001094204,-0.0024857284,8.331,0,0
0.0011532317999999998,0.011108678,0.0120662292,0.00036605839999999997,0.0007400076,8.332,0,0
0.0002830258,0.01039155,0.012065208200000002,0.0009566464,0.0043061476,8.333,0,0
-0.0008391682,0.007124967999999999,0.0078987382,0.0007395962000000001,0.0067922816,8.334,0,0
-0.0013694146,0.0037329539999999993,0.0014095182000000003,0.0001673148,0.008364282,8.335,0,0
-0.0015691204,0.0010550359999999999,-0.0043837618,-3.722080000000003e-05,0.008658136,8.336,0,0
-0.0014382836,-0.0015491020000000001,-0.008129817800000001,-0.00037172320000000003,0.00729863,8.337,0,0
-0.0006865775999999998,-0.0038117380000000003,-0.009660974,-0.0005990392000000002,0.0049886192,8.338,0,0
6.46688000000001e-05,-0.005840696,-0.009609612,-0.0007901964000000002,0.0016575891999999997,8.339,0,0
0.0007063968,-0.007434222000000001,-0.009237132,-0.0012798224,-0.0021916968,8.34,0,0
0.0012077352,-0.008857864,-0.007667542,-0.0015536644,-0.0056213848,8.341,0,0
0.0011106774000000002,-0.009501748,-0.0048714280000000006,-0.0015920704000000003,-0.008046920800000001,8.342,0,0
0.0007929544,-0.00709607,-0.0030852560000000006,-0.0014359984000000003,-0.009082174,8.343,0,0
0.0008624500000000001,-0.0031338320000000013,9.190600000000032e-05,-0.0005691944000000002,-0.008868572,8.344,0,0
0.0011113800000000001,-0.0004093920000000003,0.006485646000000001,0.0007980296,-0.0067996752,8.345,0,0
0.0007873422000000001,0.001791606,0.012343536000000002,0.0019926236,-0.0028956131999999996,8.346,0,0
0.0007159432000000001,0.0032560889999999998,0.016811126000000003,0.00208460898,0.0009572547999999999,8.347,0,0
0.0010089322,0.0022056529999999997,0.021056034,0.0016636265800000001,0.0040231208,8.348,0,0
0.0010419962,0.0010164028,0.022545,0.00163070458,0.007319408800000001,8.349,0,0
0.0009749862,0.0011908988,0.02004038,0.0012332313800000002,0.009741212,8.35,0,0
0.0005459520000000002,0.0014905648,0.015954446,0.00051936618,0.009936744,8.351,0,0
-0.00015887399999999993,0.0018340098000000002,0.010941670000000002,0.0004636826,0.009362752,8.352,0,0
-0.001020028,0.0016431417999999997,0.00517803,0.0002975171999999999,0.007974518,8.353,0,0
-0.001827,9.17279999999999e-05,-0.0008408500000000002,-0.0006432808,0.00515688,8.354,0,0
-0.0023185884,-0.0023321220000000007,-0.005915190000000001,-0.0007495624000000001,0.002239942,8.355,0,0
-0.0017670856000000003,-0.004503768,-0.009716836,-0.00040738320000000005,3.287200000000009e-05,8.356,0,0
-0.0009578512000000001,-0.0055211240000000005,-0.0130714,-0.0004756620000000001,-0.001957194,8.357,0,0
-0.0005396398,-0.004324200000000001,-0.012740662,-0.0004926702,-0.0037293200000000004,8.358,0,0
-0.0003978638,-0.0007666540000000007,-0.008653003999999999,-0.0005065962,-0.004364906,8.359,0,0
-0.0006536754,0.0034807200000000005,-0.005098816,-0.0008067634,-0.004416471999999999,8.36,0,0
-0.000636728,0.006698742000000001,-0.0022668374000000004,-0.0013949394,-0.0044996360000000004,8.361,0,0
-0.0008249092,0.009072110000000001,0.0005380126000000001,-0.001514426,-0.0037906064000000003,8.362,0,0
-0.0009391166,0.010247998000000001,-0.0005256513999999997,-0.001073442,-0.0021402044000000003,8.363,0,0
-0.0004008868,0.009511154,-0.0050169094,-0.0005355703999999999,-0.0007436023999999998,8.364,0,0
-0.00016732560000000006,0.008117214000000001,-0.0081531174,0.0001642296000000001,0.00021778760000000004,8.365,0,0
-0.0005302988000000001,0.007279252,-0.009876402,0.0007381336000000001,0.0011245396000000001,8.366,0,0
-0.0005850516,0.006570830000000001,-0.009882694000000003,0.0007640716000000002,0.000842352,8.367,0,0
-0.00043147620000000004,0.005775518,-0.007007130000000002,0.0005605748,-0.00037334400000000006,8.368,0,0
-0.0004492396000000001,0.004071956000000001,-0.003005106000000001,0.00046735860000000006,-0.0012558340000000002,8.369,0,0
-0.0002393856000000001,0.00018945600000000017,-0.0008202620000000002,0.00028524160000000003,-0.0023607380000000002,8.37,0,0
-6.0271660000000025e-05,-0.004978962,0.0004965359999999999,5.130960000000002e-05,-0.004012838,8.371,0,0
-1.776146e-05,-0.010498198,0.002305346,0.00034625160000000004,-0.004586336,8.372,0,0
-4.100246e-05,-0.015427106000000001,0.0030407160000000006,0.0006141984,-0.004131952,8.373,0,0
-0.00035713986,-0.01802788,0.002680900000000001,0.0005987206,-0.003923136000000001,8.374,0,0
-0.00017331906,-0.017374,0.002905738,0.0006617636,-0.002870192,8.375,0,0
0.0005630820000000001,-0.014492902000000002,0.003262068200000001,0.0005870344,-0.000416114,8.376,0,0
0.0013497054,-0.010929144000000002,0.0021634722000000006,0.00017601839999999998,0.001653994,8.377,0,0
0.001996997,-0.006637134,0.0015371542,-0.0003231836,0.002576038,8.378,0,0
0.0022102372599999997,-0.0015828140000000005,0.0027103882000000003,-0.0003035018,0.00371551,8.379,0,0
0.0018868794599999998,0.002880766,0.0042894301999999995,-0.0004040788,0.0045227999999999996,8.38,0,0
0.0008864494599999999,0.006461007999999999,0.005374534000000001,-0.0005232836,0.003930566,8.381,0,0
6.0669660000000085e-05,0.009311590000000002,0.0063197800000000005,-0.00011365080000000001,0.0031427699999999996,8.382,0,0
-0.00025301854,0.010104868000000001,0.006636326000000001,0.0003285432,0.0026171043999999996,8.383,0,0
-0.00026487902,0.00891114,0.006149964000000001,0.0002766476,0.0012449423999999999,8.384,0,0
-7.243361999999999e-05,0.007560392000000001,0.005119361000000001,6.697639999999998e-05,-0.0008726876000000001,8.385,0,0
0.00016866638000000004,0.0059952980000000005,0.002728535,0.00023810000000000004,-0.0026086916,8.386,0,0
-0.00022694382,0.0032471820000000004,-0.002338883000000001,0.00012191160000000005,-0.004206267600000001,8.387,0,0
-0.00112384962,0.0005087679999999997,-0.007667639,0.0002564976,-0.005405178000000001,8.388,0,0
-0.0017889964000000003,-0.001373712,-0.008604369,0.0008947518000000001,-0.005379940000000001,8.389,0,0
-0.002322022,-0.002852458,-0.007111828000000001,0.0009818894,-0.004479980000000001,8.39,0,0
-0.0021013860000000002,-0.0034752710000000003,-0.0060189964000000006,0.0008828118000000002,-0.003242554000000001,8.391,0,0
-0.0014114364,-0.0024419590000000005,-0.0032354624,0.0008953660000000001,-0.0014857680000000002,8.392,0,0
-0.0006858144000000002,-0.000303619,-2.0858400000000146e-05,0.00046568740000000003,0.000849116,8.393,0,0
0.00030979160000000006,0.0014037890000000001,-0.0018283124,-0.00033140999999999997,0.0031447740000000004,8.394,0,0
0.0010707436,0.002446347,-0.0067589744,-0.00026624379999999994,0.0053273140000000005,8.395,0,0
0.0011640956000000002,0.003221522,-0.009700406,0.0006702762000000001,0.007112144000000001,8.396,0,0
0.0014654520000000001,0.003677068,-0.01088152,0.0010197716,0.007615500000000001,8.397,0,0
0.002016894,0.00406848,-0.011000758000000001,0.0012531002000000001,0.007139556,8.398,0,0
0.002255278,0.00443567,-0.008567610000000002,0.0018582536000000002,0.006095048,8.399,0,0
0.0026135640000000005,0.004386862,-0.004044172,0.00178876234,0.00359209,8.4,0,0
0.002749946,0.004193924,-0.0005325159999999998,0.0005614043400000001,-8.620799999999973e-05,8.401,0,0
0.0023660528,0.003795576,0.002076904,-0.00057724966,-0.0036030800000000003,8.402,0,0
0.0011218448,5.875000000000064e-05,0.005069078,-0.00138260366,-0.006801880000000001,8.403,0,0
-0.0008789051999999998,-0.00474212,0.006828214,-0.00250413366,-0.009597222,8.404,0,0
-0.0023646672,-0.00591406,0.007331672,-0.0030525960000000003,-0.010852776000000001,8.405,0,0
-0.0027714308000000003,-0.0065413582,0.008406696,-0.0031686320000000002,-0.009925368,8.406,0,0
-0.0026073016000000004,-0.0072244502,0.008680524,-0.002927962,-0.007221316,8.407,0,0
-0.0012759096000000004,-0.0040913902,0.007261394000000001,-0.0025280400000000005,-0.003492132,8.408,0,0
0.0011782704,0.0009372138000000003,0.005252066,-0.00222953,0.0004750599999999998,8.409,0,0
0.0025647084,0.0029095678000000003,0.0032249740000000002,-0.0016759348,0.004424506,8.41,0,0
0.0027114406,0.004165862,0.002092604,-0.0010364642000000002,0.007358802000000001,8.411,0,0
0.0025620746000000003,0.007171520000000001,0.0013854334000000003,-0.00026394620000000005,0.008786264,8.412,0,0
0.0018331706,0.00870572,-0.0005785346000000001,0.0005627998,0.009242182000000002,8.413,0,0
0.0005091606000000001,0.004804375999999999,-0.0003371766000000002,0.0013240978,0.008378096,8.414,0,0
-0.0005962234,-0.0028935340000000014,0.0046639994,0.0015621926000000002,0.006693758000000001,8.415,0,0
-0.0012227940000000001,-0.009210140000000002,0.0086515294,0.0014085178000000002,0.005093434000000001,8.416,0,0
-0.001699472,-0.014761580000000003,0.009573206,0.0011621944000000002,0.003013376,8.417,0,0
-0.0020810840000000004,-0.018747366,0.008464904,0.00057033912,0.000526634,8.418,0,0
-0.002248564,-0.01716109,0.004299453999999999,-8.397687999999999e-05,-0.001392676,8.419,0,0
-0.0019612098,-0.0109216346,-0.0008325640000000005,-0.0005661948800000001,-0.003146058,8.42,0,0
-0.0015276778000000001,-0.004730956600000001,-0.003419012,-0.0009083466800000001,-0.00492709,8.421,0,0
-0.0016539378000000001,2.4061400000000054e-05,-0.003107652,-0.00113664128,-0.005594408,8.422,0,0
-0.0018851018000000002,0.0035717714000000006,-0.000303704,-0.0010850144000000002,-0.005243664,8.423,0,0
-0.0017521498000000002,0.0052642194,0.00342961,-0.0005777824000000001,-0.004473986,8.424,0,0
-0.0019356360000000001,0.006190582000000001,0.0034419820000000005,-0.0003033168000000001,-0.0030730828,8.425,0,0
-0.002195456,0.005984528000000001,0.0008340140000000002,0.00011084539999999996,-0.0010374068,8.426,0,0
-0.0019745960000000003,0.0039632444,-0.000843252,0.0010067554,0.0009054952000000003,8.427,0,0
-0.001374073,0.0020586424000000004,-0.002386028,0.0013424758,0.0022692612,8.428,0,0
-0.0006666329999999999,0.0017530564,-0.004931702,0.0015433818,0.0037866332000000003,8.429,0,0
-0.00019079760000000002,0.0021550424000000004,-0.0077395960000000005,0.0019851102,0.0049730420000000004,8.43,0,0
8.038239999999996e-05,0.0033429184000000004,-0.0107536,0.0021250042,0.004985828,8.431,0,0
0.0007734784,0.0057324640000000005,-0.014102388,0.0019091902000000001,0.004305919400000001,8.432,0,0
0.0014904854,0.007806592000000001,-0.01638428,0.0018014202,0.0031274274,8.433,0,0
0.0014308014,0.008444110000000001,-0.01624794,0.0016007222,0.0011360534000000003,8.434,0,0
0.0014711686000000001,0.007642636000000001,-0.014492226,0.0013688622,-0.0014177185999999999,8.435,0,0
0.001558106,0.00609586,-0.014657966,0.00140406,-0.0032575846,8.436,0,0
0.0012322614,0.00432328,-0.013089926,0.000986256,-0.0044597659999999996,8.437,0,0
0.0008612474,0.0023196353999999997,-0.0051130859999999985,0.0005508994,-0.005562696,8.438,0,0
0.0007078080000000001,0.0008380894000000001,0.004350414,0.0004367984,-0.00570318,8.439,0,0
0.0008221354000000001,0.00037964779999999994,0.012417340000000002,4.3082000000000005e-05,-0.004671476,8.44,0,0
0.0009019344000000001,-0.00010016856000000002,0.020559320000000002,-0.00033901140000000004,-0.0033494512,8.441,0,0
0.0009465784000000001,-0.0004024465599999999,0.024837420000000002,-0.0002666224,-0.0017593932,8.442,0,0
0.0008841494000000001,7.749804000000004e-05,0.021514452,-0.0001866934,0.0006077208000000002,8.443,0,0
0.0009104212000000001,-0.00012751996000000005,0.014643868000000003,-0.0005535204000000001,0.0028067168,8.444,0,0
0.0009165692000000001,-0.00121686636,0.009044152,-0.0007895020000000001,0.0045468208,8.445,0,0
0.0007495328000000001,-0.002303558,0.006697418,-0.0008111006,0.006324,8.446,0,0
0.0006115584,-0.003853138,0.006633218000000001,-0.0011181996,0.007059944,8.447,0,0
0.00042760540000000004,-0.00594078,0.006794952000000001,-0.0012382236,0.006260474,8.448,0,0
0.00011694219999999998,-0.008295252,0.0064921096000000005,-0.0010975122,0.004895180659999999,8.449,0,0
-0.0003206226,-0.011087053999999999,0.005569477000000001,-0.0010401102000000002,0.0028830146599999997,8.45,0,0
-0.0005470266,-0.013490009999999998,0.004188501000000001,-0.0010145738000000002,-0.0003327173400000001,8.451,0,0
-0.0004668818,-0.014480551999999999,0.0027538690000000004,-0.000943035,-0.00322370334,8.452,0,0
-0.00031252480000000006,-0.01374682,0.0005885770000000002,-0.0008882672,-0.0049910853400000005,8.453,0,0
-1.1288400000000032e-05,-0.0109732738,-0.0028754965999999997,-0.0010246066000000002,-0.006666706,8.454,0,0
0.0005964303999999999,-0.006214149799999999,-0.007008868,-0.0009637726000000001,-0.00768511,8.455,0,0
0.0010983764,-0.0006878698000000005,-0.011671398,-0.0006694962000000001,-0.007357073999999999,8.456,0,0
0.0010592845600000001,0.0041778302,-0.016499385999999998,-0.0002493350000000001,-0.006038864,8.457,0,0
0.00053219756,0.0086340302,-0.01911536,0.0003396107999999999,-0.004188697999999999,8.458,0,0
-2.2602039999999987e-05,0.013584464000000001,-0.01807388,0.0007698087999999999,-0.001689374,8.459,0,0
-0.00043781644,0.017752419999999998,-0.01599715,0.0009704999999999999,0.0012599780000000001,8.46,0,0
-0.0006964464,0.0192374,-0.012526222000000002,0.0007147645999999999,0.00349805,8.461,0,0
-0.00058095676,0.018840140000000002,-0.00728117,2.8766599999999773e-05,0.004889784,8.462,0,0
0.00027445724,0.01722724,-0.0022775800000000004,-0.0005454062000000001,0.005873946,8.463,0,0
0.00101974124,0.013606970000000001,0.00131657,-0.0008889504,0.006099352,8.464,0,0
0.00096561364,0.00874342,0.00244924,-0.000982442,0.005043072,8.465,0,0
0.0009235345999999999,0.004232806,0.0037769360000000007,-0.0008417034000000001,0.003608508,8.466,0,0
0.0004660589999999999,3.108600000000048e-05,0.004911244,-0.0006609154,0.001878318,8.467,0,0
-0.00043571500000000004,-0.003851414,0.0029130920000000004,-0.0006358348,-0.000555592,8.468,0,0
-0.001250131,-0.00650936,0.0004658580000000002,-0.0005171086,-0.002679768,8.469,0,0
-0.0016573530000000003,-0.007476436,0.0008142619999999998,-0.0002865684,-0.003952448,8.47,0,0
-0.0015132906000000002,-0.006482090859999999,0.0002259014000000001,-0.00036060599999999997,-0.004870846,8.471,0,0
-0.0012755452000000004,-0.0056569748599999995,-0.0002176026000000001,-0.0002797756,-0.0052419680000000005,8.472,0,0
-0.0012744712000000002,-0.006667234860000001,0.0050275194,-0.00032077440000000004,-0.00454983,8.473,0,0
-0.0011212932,-0.00820001886,0.0109779034,-0.000402564,-0.0036749460000000005,8.474,0,0
-0.0005369988,-0.00986585286,0.0134891994,-1.6561800000000008e-05,-0.0025742060000000003,8.475,0,0
-0.00033486820000000006,-0.011677083999999999,0.013917994,0.00042092379999999997,-0.0008851160000000001,8.476,0,0
-0.00031683600000000003,-0.01220646,0.010082838,0.0008432614,0.0006592480000000001,8.477,0,0
0.0003588040000000001,-0.010328514,0.0021773979999999997,0.0013522244,0.0017201100000000002,8.478,0,0
0.0008553260000000001,-0.007014805999999999,-0.0014086320000000004,0.0017513219999999998,0.002347188,8.479,0,0
0.00027048160000000003,-0.0027595939999999993,0.0004819079999999992,0.0014604298,0.00216463638,8.48,0,0
-0.0004115424,0.002186906,0.00228371,0.0010162883999999999,0.00136146438,8.481,0,0
-0.0008760220000000002,0.006925746,0.00516192,0.0005709464,0.00090374978,8.482,0,0
-0.001730578,0.01051864,0.008618316,3.0384999999999988e-05,0.0006530697800000001,8.483,0,0
-0.0020793934000000003,0.011420452000000003,0.007884356,-0.00011645160000000004,-8.062219999999966e-06,8.484,0,0
-0.0013952854,0.009333922000000001,0.004211156000000001,-0.00014807760000000003,-0.00039618659999999997,8.485,0,0
-0.0007680814,0.005660944,0.00160319,-0.00014186620000000005,-0.00021742940000000002,8.486,0,0
1.4036599999999892e-05,0.0025880266,-0.0008554780000000001,-0.00030873019999999997,-0.0005432428,8.487,0,0
0.0009148005999999999,0.0007520766000000002,-0.0038617940000000004,-0.0004446468,-0.0010270554,8.488,0,0
0.0011652912,0.00020914260000000015,-0.007344604000000001,-0.0005811337999999999,-0.00036321540000000015,8.489,0,0
0.0013319392,0.0009516586000000002,-0.010915484,-0.0009032841999999999,0.0010401726,8.49,0,0
0.0014124412,0.0013153856000000003,-0.013326478000000001,-0.0007772947999999998,0.0019231154000000001,8.491,0,0
0.0011878785,0.000817035,-0.01444536,-0.0002320594,0.0024445054,8.492,0,0
0.0007743091,0.00014707320000000005,-0.01456138,0.00046516260000000007,0.003162142,8.493,0,0
0.0003804819,-0.0006297584,-0.013210076000000001,0.0009511682000000001,0.0029066342,8.494,0,0
7.253490000000002e-05,-0.0018137684,-0.010106948999999999,0.0008792708,0.0010897162000000002,8.495,0,0
8.032889999999993e-05,-0.0032539734,-0.005830717000000001,0.0006993422000000001,-0.0008759878000000001,8.496,0,0
0.0005761956,-0.004840425400000001,-5.757700000000006e-05,0.0005845030000000001,-0.0021503038000000004,8.497,0,0
0.001223691,-0.0071654336,0.005693083,-5.352099999999995e-05,-0.0029380786000000004,8.498,0,0
0.001803463,-0.009445628000000001,0.009197919,-9.759100000000006e-05,-0.0027125768000000002,8.499,0,0
0.0020895920000000004,-0.010385904000000001,0.010276076,0.000535529,-0.0010359028000000003,8.5,0,0
0.002027014,-0.008720095800000001,0.009136448,0.0001809222,0.0007033772,8.501,0,0
0.0013492486000000004,-0.0039368558,0.006448838000000001,-0.0002424520000000001,0.0018929152000000003,8.502,0,0
0.0003968306000000002,0.0012197642000000013,0.002934168,-0.0003864280000000001,0.002351754,8.503,0,0
-0.0002242114,0.004945872200000001,-0.00026820200000000015,-0.0014696820000000001,0.0016936120000000004,8.504,0,0
-0.000762465,0.0078982822,-0.0017746220000000002,-0.00243266,0.0009163473999999999,8.505,0,0
-0.0011482246000000002,0.009184922000000002,-0.0011345600000000002,-0.001823214,0.0009698174000000001,8.506,0,0
-0.0012095132,0.007312014000000001,0.0008525099999999999,-0.0008465360000000002,0.0011472954000000001,8.507,0,0
-0.0010361072,0.0046023340000000005,0.00284886,3.438999999999992e-05,0.0008295116000000001,8.508,0,0
-0.0007810724,0.0031033960000000005,0.005266408,0.0009433520000000001,0.0009683970000000001,8.509,0,0
-0.0008452656,0.0011058080000000007,0.00774839,0.0014707164,0.000765626,8.51,0,0
-0.00108274,-0.001163934,0.008165822,0.0013873952,-0.000344868,8.511,0,0
-0.000944603,-0.00238296,0.006831628000000001,0.0010087552000000001,-0.001391336,8.512,0,0
-0.0007218222,-0.00280127,0.0058918600000000005,0.0011351992,-0.0019117102000000001,8.513,0,0
-0.0008508379999999999,-0.0024132245999999996,0.005391402,0.0010327986000000001,-0.0020962076,8.514,0,0
-0.0007170932,-0.0009022486000000001,0.0044698,0.0008707682000000001,-0.0022823440000000004,8.515,0,0
-0.000451678,0.0011750934,0.0037907,0.0010370602,-0.0018721476000000002,8.516,0,0
-0.000603083,0.0029813394000000005,0.0036572560000000002,0.0007966182000000001,-0.0012688036,8.517,0,0
-0.0006664997999999999,0.0043232674000000006,0.002179312,0.00019657860000000003,-0.0009140036,8.518,0,0
-0.00048533880000000004,0.005149506000000001,-0.003542908,7.605160000000001e-05,-0.0002996856,8.519,0,0
-7.349480000000007e-05,0.004771628000000001,-0.013679872,0.00018888800000000004,0.0006984524000000002,8.52,0,0
0.000490642,0.003320744,-0.02598033,-0.00036767280000000004,0.0016174800000000001,8.521,0,0
0.001068262,0.0023920900000000004,-0.037859972,-0.0005564274000000001,0.002342686,8.522,0,0
0.001653834,0.0015126814000000002,-0.045931639999999996,-0.0003207318000000001,0.003501096,8.523,0,0
0.002104336,-8.218660000000003e-05,-0.04834984,-0.0005725564,0.004095088,8.524,0,0
0.002113938,-0.0008784946,-0.04203660000000001,-0.0004440226,0.00305665,8.525,0,0
0.001828578,-0.0012821906,-0.024719780000000004,8.38914e-05,0.0014967100000000005,8.526,0,0
0.001639401,-0.0029618526000000003,-0.0029004600000000005,-5.873999999999951e-06,-3.7076000000000036e-05,8.527,0,0
0.001414359,-0.004860222000000001,0.01722262,-0.000489388,-0.0021628159999999997,8.528,0,0
0.0010629928,-0.006256286,0.03331498,-0.00045673299999999997,-0.0038421840000000002,8.529,0,0
0.00047513480000000005,-0.0076895719999999996,0.041726120000000005,-0.00048183504,-0.004013148,8.53,0,0
-0.0004562132,-0.007356532,0.04051346,-0.00062102384,-0.003622144,8.531,0,0
-0.0015378662,-0.004395796,0.03325094,-2.3061840000000006e-05,-0.0027262928000000007,8.532,0,0
-0.0023110382,-0.0013523520000000002,0.02615986,0.00052481216,-0.0011343587999999999,8.533,0,0
-0.0027539420000000005,0.0007806604000000002,0.022359340000000002,0.00062701436,0.00017663120000000002,8.534,0,0
-0.0028830300000000004,0.0031126623999999997,0.020467620000000002,0.0004714624000000001,0.0011972191999999999,8.535,0,0
-0.002379142,0.0043357684,0.018165520000000004,0.00039676920000000006,0.0025375052,8.536,0,0
-0.001565332,0.0030745764,0.015612036000000001,3.5897600000000034e-05,0.003548404,8.537,0,0
-0.001058467578,0.0016852164,0.011551218,-0.0006063484,0.00355794,8.538,0,0
-0.0008340319779999999,0.0012969040000000002,0.006240966000000001,-0.0004695332,0.00342835,8.539,0,0
-0.000694361978,0.00048519000000000014,0.0018529739999999994,-0.0003302054,0.0029549496,8.54,0,0
-0.00047148204400000005,-0.000926234,-0.0013581420000000003,-0.0006376694,0.0012587236,8.541,0,0
-0.00029614704399999996,-0.002214562,-0.0035226680000000005,-0.0005972198,-0.0004848704,8.542,0,0
-0.00044495946599999996,-0.002795672,-0.00561125,-0.00029898319999999997,-0.0015681704,8.543,0,0
-0.00032684706599999996,-0.002885024,-0.008178878,-0.000486629,-0.0028755764000000005,8.544,0,0
0.00015549293399999998,-0.002952582,-0.010667506,-0.0005532388,-0.0038838080000000003,8.545,0,0
0.0006260770000000001,-0.002343171,-0.01252865,-0.00013509520000000002,-0.0037948660000000005,8.546,0,0
0.001010586,-0.0004814569999999998,-0.0136348,-0.00021131460000000003,-0.0035108520000000005,8.547,0,0
0.001637426,0.002022515,-0.013317800000000001,-0.00025297620000000004,-0.0031171740000000003,8.548,0,0
0.00228388,0.004607685,-0.011734708,0.00013085339999999998,-0.0021976880000000006,8.549,0,0
0.002365034,0.006846377,-0.009590810000000002,0.0004322872,-0.0008672260000000002,8.55,0,0
0.0019271854,0.008140438,-0.00707921,0.0003738955,0.00028029799999999995,8.551,0,0
0.0012061034000000002,0.008511832,-0.00454975,0.00034919730000000003,0.001155308,8.552,0,0
0.00074274292,0.007955144,-0.0020602479999999998,0.0003959863000000001,0.0022526160000000003,8.553,0,0
0.00019670112000000003,0.0058889608,0.000595566,-9.235769999999998e-05,0.003169048,8.554,0,0
-0.0006896048800000001,0.0027350827999999996,0.002681778,-0.00023703169999999998,0.00348371,8.555,0,0
-0.0011619802800000001,-0.0012278232000000004,0.00306585276,9.461840000000001e-05,0.0034078860000000006,8.556,0,0
-0.00125054428,-0.005938723200000001,0.00246048676,0.000346291,0.003203526,8.557,0,0
-0.0015270998,-0.0093403012,0.0014280787600000002,0.0005476888,0.0021868006000000002,8.558,0,0
-0.0017855096,-0.00974207,-0.00040771124000000007,0.0006432686,0.0008986206000000001,8.559,0,0
-0.0015690216,-0.0084516646,-0.0029530632400000005,0.0005016246000000001,4.072360000000004e-05,8.56,0,0
-0.0010591248,-0.0063046126,-0.004688716,0.0003173378,-0.0009518424000000001,8.561,0,0
-0.0006513704000000001,-0.0028183008,-0.005502738000000001,0.0005189668000000001,-0.0019368844000000002,8.562,0,0
-0.00019843220000000003,-0.0004091906000000001,-0.006901834000000001,0.000938413,-0.002160483,8.563,0,0
0.0004406034,-0.00023644980000000004,-0.007300616,0.0015705232,-0.0019981014,8.564,0,0
0.0009687514,-7.36198e-05,-0.0056717886,0.0018722452,-0.0020722064,8.565,0,0
0.0012203546,0.0007334322000000001,-0.0031165526,0.001638609,-0.0016525744000000003,8.566,0,0
0.0017028782000000002,0.0014203144,-0.0005563006,0.0010551749999999998,-0.0015180924,8.567,0,0
0.002177674,0.0024980222,0.0019230974000000003,8.870699999999994e-05,-0.0019432904,8.568,0,0
0.001897037,0.003998297400000001,0.0031724766000000007,-0.0006704310000000001,-0.0018150436000000001,8.569,0,0
0.0016148104,0.0047063420000000005,0.0009925712000000003,-0.000988773,-0.0014330692,8.57,0,0
0.0012697225999999998,0.0045070018,-0.0031097267999999996,-0.0009581682000000002,-0.00132855882,8.571,0,0
2.0742600000000122e-05,0.004025439800000001,-0.0044379076,-0.0005453536,-0.00070877302,8.572,0,0
-0.0013861394,0.0034467738000000005,-0.0014582435999999995,-4.6876600000000045e-05,0.00013904980400000002,8.573,0,0
-0.0019554404000000003,0.0026101338,0.0025283232000000004,-0.0001327666,0.000166580404,8.574,0,0
-0.0022549618,0.0019589858,0.0074437032,-0.00043351059999999995,0.000516144004,8.575,0,0
-0.0022673618,0.0006785960000000003,0.0121537692,-0.00020277139999999997,0.0015878576240000001,8.576,0,0
-0.0015154726000000001,-0.0023582560000000004,0.011689352,-0.0002528614,0.002272957824,8.577,0,0
-0.0008298632,-0.005669728000000001,0.007251733999999999,-0.0010659784000000001,0.0024142828,8.578,0,0
-0.0003067642,-0.008150724,0.002762446,-0.0016699943999999999,0.0023827394,8.579,0,0
0.00023990940000000004,-0.009781982,-0.000919026,-0.0021555584000000003,0.0017988206000000002,8.58,0,0
0.0004998612000000001,-0.009365836000000002,-0.0031062940000000003,-0.0027385034,0.0007017586,8.581,0,0
0.0007459900000000001,-0.006448312000000001,-0.0031661040000000003,-0.0026333860000000006,-9.309400000000016e-06,8.582,0,0
0.0010913846000000001,-0.0029697279999999996,-0.002618364,-0.0019231360000000002,-0.000272621,8.583,0,0
0.0011328914000000002,-0.00032532199999999985,-0.001949426,-0.0009565470000000002,-0.0007712266000000001,8.584,0,0
0.0013869338000000002,0.0018036980000000003,0.00019636799999999993,0.00011711899999999997,-0.0015772658,8.585,0,0
0.0017554558000000002,0.0037462320000000004,0.0036013700000000004,0.0006141474,-0.0022696838,8.586,0,0
0.0016778624000000002,0.004996256,0.007086534,0.0005442404,-0.0029164198000000002,8.587,0,0
0.0017528004,0.005039642,0.009401252,0.0005982254000000001,-0.003507194,8.588,0,0
0.0018062826,0.005049522000000001,0.010249422,0.0008393664000000001,-0.0029273842000000004,8.589,0,0
0.0012542666000000002,0.005053752000000001,0.00954174,0.0011004264,-0.0014641722,8.59,0,0
0.00043029859999999995,0.0043576940000000005,0.006350218,0.001330754,-0.0003493582000000001,8.591,0,0
-0.00014978800000000006,0.00408309,0.0012500179999999999,0.0014492010000000002,0.0012379438,8.592,0,0
-0.000761044,0.003941254,-0.004800242000000001,0.00163682,0.0033023298,8.593,0,0
-0.001199682,0.0032435258000000004,-0.009001882000000001,0.0015494056,0.004476944,8.594,0,0
-0.0009836936,0.0028977018,-0.010838158,0.0010492528000000001,0.0050558700000000005,8.595,0,0
-0.00030826560000000005,0.0025086574000000006,-0.013568656,0.0012335188000000001,0.005738414000000001,8.596,0,0
0.0006089244,0.0011109834,-0.015918476,0.0012855508000000002,0.005435822,8.597,0,0
0.0012526704000000001,0.0006942454,-0.015272896000000001,0.0008108968000000001,0.0040406984,8.598,0,0
0.0017889204,0.0013018456,-0.014592016000000001,0.0003736932000000001,0.0024458143999999994,8.599,0,0
0.001985564,0.0007628576,-0.01624576,-0.0006806260000000001,0.00047533639999999995,8.6,0,0
0.0013166920000000002,-8.943600000000003e-05,-0.014619562000000001,-0.0013714600000000003,-0.0014948836,8.601,0,0
0.000486792,-7.69802e-05,-0.007808342,-0.0008666900000000003,-0.0028311016,8.602,0,0
-0.0005187100000000001,-0.0007575381999999999,0.0008547379999999999,-0.0008542590000000002,-0.004249454000000001,8.603,0,0
-0.002146002,-0.0021260942000000003,0.010110818,-0.001407437,-0.0063774520000000005,8.604,0,0
-0.003553718,-0.0009987962000000002,0.018340578,-0.0007801549999999999,-0.007603432,8.605,0,0
-0.003992818,0.0007932278,0.02330204,-0.000633515,-0.007320418,8.606,0,0
-0.004195492,0.000337548,0.0233984,-0.000998679,-0.005932534,8.607,0,0
-0.00413377,-0.0006414340000000002,0.019212396,-0.00015736600000000004,-0.0026969020000000006,8.608,0,0
-0.003346406,-0.001402706,0.012809238,0.0006544636,0.0012765460000000006,8.609,0,0
-0.0022913424,-0.0029401580000000004,0.006988374,0.0008571956,0.0042703080000000004,8.61,0,0
-0.0009681984000000001,-0.004536388000000001,0.0024204920000000006,0.0010519265999999999,0.005458006,8.611,0,0
0.0002415395999999999,-0.00550287,-0.0014309620000000002,0.0009685066,0.004554981999999999,8.612,0,0
0.0011863296,-0.006641526000000001,-0.004126266000000001,0.0003454264,0.0023257520000000004,8.613,0,0
0.0021511276000000003,-0.007726224,-0.004933708000000001,-9.596920000000002e-05,-0.0001336759999999999,8.614,0,0
0.0024150854,-0.009072398,-0.0037319060000000005,-6.039719999999997e-05,-0.002442142,8.615,0,0
0.0017494254000000001,-0.010354896,-0.002197812,0.00015989980000000002,-0.003928804,8.616,0,0
0.0011582302000000002,-0.01016008,-0.0011844140000000002,-0.0001412238,-0.003986522,8.617,0,0
0.0010824722000000002,-0.008114156,7.724020000000003e-05,-0.0006150816,-0.0038954619999999997,8.618,0,0
0.0010819122,-0.004659890000000001,0.0008081382,-0.00043318360000000006,-0.0029084212000000005,8.619,0,0
0.0012392288,-0.00014415600000000032,0.00016342819999999993,-0.00030088040000000003,-0.0003927752000000002,8.62,0,0
0.0014845568,0.005584210000000001,-0.0003516238000000002,-0.0011114144000000002,0.0014035988,8.621,0,0
0.0012788400000000003,0.010776570000000001,-0.00018065780000000006,-0.0015019108,0.0024308788,8.622,0,0
0.0008819502000000001,0.013761346,-0.00038188800000000004,-0.0007671727999999999,0.0041611548,8.623,0,0
0.0003765022,0.014314788,-0.0010754200000000001,-0.000595867,0.005291842,8.624,0,0
-0.00020006180000000005,0.012225872,-0.0010888934,-0.0006283485999999999,0.004502206,8.625,0,0
-0.0004338675,0.007893148000000001,-0.0010600074,-0.00015115040000000002,0.003873822,8.626,0,0
-0.0004657409,0.0025929919999999997,-0.0020562113999999998,0.000240865,0.003748958,8.627,0,0
-0.0005889933,-0.0013343599999999997,-0.0025428694,0.000251689,0.00307943,8.628,0,0
-0.0007561013,-0.0024930119999999997,-0.0024490714,0.00048756380000000005,0.0026824780000000003,8.629,0,0
-0.0007541113,-0.0019320579999999997,-0.0027117699999999996,0.0007154672000000001,0.0026531260000000004,8.63,0,0
-0.0006164212,-0.000680352,-0.0025616004,0.00031141500000000016,0.002216912,8.631,0,0
-0.00044679159999999997,0.0016132960000000002,-0.0022180184,-7.573839999999986e-05,0.0013724120000000004,8.632,0,0
-0.0006416974,0.003531304,-0.0030295024,-0.00026190059999999996,0.0004795350000000002,8.633,0,0
-0.0007981814,0.00366926,-0.0047206784,-0.00045526599999999996,-0.000821905,8.634,0,0
-0.000683071,0.0031850560000000003,-0.0059253904,-0.0009595929999999999,-0.001947801,8.635,0,0
-0.0009963146,0.0024841466,-0.006200382,-0.001001273,-0.0021890850000000003,8.636,0,0
-0.0009345476,0.0014530246,-0.005545162,-0.0005530076,-0.0023616590000000003,8.637,0,0
0.00015152640000000005,0.0005954806,-0.0038003234,-0.0004874362,-0.0025446460000000002,8.638,0,0
0.0012388784,-0.00026609139999999996,-0.0012817374000000004,-0.00030391179999999997,-0.0018861280000000004,8.639,0,0
0.0018167300000000001,-0.0014238014,0.00021679140000000006,1.4533200000000005e-05,-0.000680782,8.64,0,0
0.0023036112,-0.002258126,-0.0005663485999999999,1.0993200000000063e-05,0.00022161600000000005,8.641,0,0
0.0023011396,-0.00242274,-0.0034284766,-0.00023008279999999997,0.00118387,8.642,0,0
0.0012277356000000002,-0.002589024,-0.006263929200000001,-0.000209046,0.0021497620000000004,8.643,0,0
-0.00011945639999999991,-0.0027484140000000002,-0.0055286932,-0.000258343,0.0020818077780000005,8.644,0,0
-0.0008879544000000002,-0.0020471652,-0.0017388060000000003,-0.000385604,0.0010400617780000005,8.645,0,0
-0.0015620204000000003,-0.0007631172000000001,0.00312791,3.908019999999997e-05,-8.72122219999998e-05,8.646,0,0
-0.0020607940000000003,0.00019857879999999998,0.00924685,0.0005346788,-0.0011678022219999999,8.647,0,0
-0.0016177864,0.0008244336000000001,0.01377953,0.0009000868000000001,-0.0020686842220000003,8.648,0,0
-0.0010176738,0.0016565236000000002,0.01329619,0.0012335402,-0.0020145886,8.649,0,0
-0.0010278918000000002,0.0017937948,0.009848068,0.0013812474,-0.0012711986,8.65,0,0
-0.0006165396,0.00015328879999999996,0.006590476,0.0013018114,-0.0005045854,8.651,0,0
0.00015956840000000004,-0.0021963992,0.00448911,0.0007842548000000001,0.00047106259999999994,8.652,0,0
0.0004452768000000001,-0.0045169220000000005,0.003590292,-4.2363199999999974e-05,0.0014157706,8.653,0,0
0.0007664522,-0.007436702,0.0037010179999999995,-0.0003959148,0.0017426572000000002,8.654,0,0
0.0014870162000000001,-0.010742886,0.00481586,0.00024408800000000005,0.0017704282000000002,8.655,0,0
0.00209918,-0.012929916,0.0058882660000000005,0.0012431498,0.0018980330000000001,8.656,0,0
0.002050856,-0.012987314000000002,0.00567317,0.0019765364000000002,0.0015735972000000002,8.657,0,0
0.0016439436,-0.01145968,0.004498758,0.0026599904000000002,0.0003279432000000001,8.658,0,0
0.0012450369999999998,-0.008483558,0.0021775200000000005,0.0030950580000000004,-0.0011423848,8.659,0,0
0.0007682126,-0.003338958,-0.00212926,0.0026838086,-0.0025938078000000003,8.66,0,0
-1.1869800000000006e-05,0.003239542,-0.009486894000000001,0.0016515914000000001,-0.0048686518,8.661,0,0
-0.0006101198000000001,0.009630076000000001,-0.018672632,0.0012129416,-0.007165966000000001,8.662,0,0
-0.0010856494,0.013440082000000002,-0.022159522,0.0014638816,-0.007823956000000002,8.663,0,0
-0.0021879728,0.0131657452,-0.017487380000000004,0.0016250416,-0.007293514,8.664,0,0
-0.0031838104,0.0110913652,-0.011135400000000002,0.0022100830000000003,-0.0060439596,8.665,0,0
-0.0037449700000000002,0.008091881200000001,-0.004502268000000001,0.0030127022,-0.0034358676,8.666,0,0
-0.004404562000000001,0.0026658032000000005,0.0034709479999999997,0.0027675490000000002,-0.0003100936,8.667,0,0
-0.004482646,-0.0011047348,0.006827372,0.0015291249999999997,0.0021489144,8.668,0,0
-0.0033696046,-0.0006971559999999999,0.003956648,0.000520003,0.0044506964,8.669,0,0
-0.0020758666,-0.00020840600000000006,0.0013704799999999999,-0.0004679850000000001,0.00636371,8.67,0,0
-0.0007480566000000002,0.00031272199999999987,0.001780024,-0.0023367170000000003,0.006750594,8.671,0,0
0.0007919453999999999,0.0026145440000000003,0.003287832,-0.0037886900000000004,0.006477176000000001,8.672,0,0
0.0020562274,0.0048069440000000005,0.004327636,-0.0044953860000000005,0.005706157999999999,8.673,0,0
0.0031181,0.005445968000000001,0.005047242,-0.005272284,0.0033260100000000003,8.674,0,0
0.00380854,0.005014057999999999,0.00538462,-0.005657520000000001,0.0003770520000000001,8.675,0,0
0.004099188,0.0035689240000000002,0.005126464000000001,-0.0049379440000000005,-0.0017447800000000002,8.676,0,0
0.004053496,0.0010621600000000004,0.005097882000000001,-0.003628226,-0.003638326,8.677,0,0
0.0035018090000000003,-0.002425204,0.0057574359999999995,-0.002858934,-0.005625158,8.678,0,0
0.0026524686000000005,-0.006039652,0.006282284,-0.0023770300000000005,-0.006137251999999999,8.679,0,0
0.00173878724,-0.008231892000000001,0.007177034,-0.0020857700000000007,-0.00527268,8.68,0,0
0.0008920552400000001,-0.008186604,0.008406454,-0.001974908,-0.004404458,8.681,0,0
0.00078584924,-0.005202708,0.008424056,-0.0019856760000000005,-0.0032361384,8.682,0,0
0.0012340782400000003,0.0008323940000000002,0.006378978,-0.0016132660000000001,-0.0011585784000000003,8.683,0,0
0.0014974826400000001,0.009272374,0.0012513480000000002,-0.0008092286000000001,0.0009723296000000001,8.684,0,0
0.0017305360000000002,0.017896814,-0.005754772,-0.0007392446000000002,0.0023084056,8.685,0,0
0.00164595928,0.023141096000000003,-0.013632292,-0.0010108006,0.0038645376,8.686,0,0
0.0008514892800000002,0.020790278000000002,-0.020772535999999998,-0.0010657026000000002,0.005714296000000001,8.687,0,0
-8.700672000000004e-05,0.010586118,-0.02235382,-0.0009840514,0.006963746000000001,8.688,0,0
-0.0008882527200000001,-0.002165781999999999,-0.01663126,-0.0008249628,0.007619722000000001,8.689,0,0
-0.0018427587200000003,-0.013749942,-0.00903848,-0.000662066,0.007442560000000001,8.69,0,0
-0.0025151740000000002,-0.022748341999999998,-0.0028864580000000006,-0.0005228580000000001,0.0058506980000000005,8.691,0,0
-0.002649908,-0.02569512,0.0031393614000000004,-0.00041573140000000005,0.0031221540000000007,8.692,0,0
-0.002620908,-0.0220969,0.0060755314000000005,-0.0003694406,7.684399999999996e-05,8.693,0,0
-0.0023911292,-0.0164585,0.0044228974,-0.0006172808000000001,-0.003345708,8.694,0,0
-0.0016328878000000002,-0.01040554,0.0036355394000000003,-0.0007081088000000001,-0.006094784000000001,8.695,0,0
-0.00045507580000000005,-0.0036381799999999995,0.006905397400000001,-0.000199426,-0.007075696000000001,8.696,0,0
0.0007237482,0.0029751400000000002,0.010362258,0.00018382740000000001,-0.007416574,8.697,0,0
0.0017491502000000002,0.00894546,0.011993368,-9.660799999999987e-06,-0.007006002000000001,8.698,0,0
0.0027353554,0.01359382,0.012286626,-5.177639999999999e-05,-0.00522001344,8.699,0,0
0.003013594,0.0149942,0.010633756,0.00010604560000000002,-0.00346322624,8.7,0,0
0.0022274260000000002,0.012989841999999998,0.0052140400000000005,-7.684899999999998e-05,-0.00223645204,8.701,0,0
0.0014252599999999998,0.009537142,-0.0041514,0.00047404500000000003,-0.0003627380400000001,8.702,0,0
0.00051118,0.005368912,-0.011491240000000002,0.0020084452000000003,0.0017276059600000002,8.703,0,0
-0.000867662,-0.00026976799999999966,-0.013290418000000002,0.0036062110000000002,0.0029563914,8.704,0,0
-0.0017333219999999998,-0.006586607999999999,-0.013906950000000001,0.005901938200000001,0.004111320200000001,8.705,0,0
-0.002056638,-0.01046269,-0.013376908000000002,0.008699438,0.005395866,8.706,0,0
-0.002738644,-0.011737272,-0.007090412000000002,0.010978642,0.005801158000000001,8.707,0,0
-0.003505904,-0.011633639999999999,-0.00033076200000000007,0.013051332000000002,0.005529704000000001,8.708,0,0
-0.00406924,-0.009209694000000001,0.001561146,0.014979660000000002,0.005325984000000001,8.709,0,0
-0.004360513999999999,-0.004803428000000001,0.0013683100000000002,0.01575102,0.004685128,8.71,0,0
-0.004303976,-0.0014360394,0.0010454079999999996,0.014969380000000001,0.00288365,8.711,0,0
-0.004147314,-0.0002850434,0.00010216799999999949,0.01312609,0.001062174,8.712,0,0
-0.0035774760000000004,-0.00028877140000000003,-0.0013634844,0.010374988,-0.000138796,8.713,0,0
-0.0023255444,-0.0011626914000000001,-0.0013019224000000002,0.007043387999999999,-0.00155385,8.714,0,0
-0.0011075984000000001,-0.0018812474,0.0014857136000000005,0.0041230293999999995,-0.0023429,8.715,0,0
-0.00021351440000000023,-0.0016699692000000004,0.004839519600000001,0.0013892114000000001,-0.0020020339999999998,8.716,0,0
0.0007769996,-0.0011355864000000002,0.006324991600000001,-0.0017465106,-0.00178819,8.717,0,0
0.0015289336,-0.00022557640000000015,0.007432186000000001,-0.004886708599999999,-0.002011574,8.718,0,0
0.002089318,0.0014381236000000001,0.008576650000000002,-0.0084827886,-0.002291552,8.719,0,0
0.0026224020000000002,0.0030871436000000003,0.008057824000000002,-0.013139370000000001,-0.003023146,8.72,0,0
0.0032378000000000003,0.004475518800000001,0.007221404000000001,-0.017754912,-0.004057164,8.721,0,0
0.003712884,0.006348222000000001,0.007274042,-0.02094888,-0.004508154,8.722,0,0
0.00408591,0.008113258000000002,0.006245954,-0.022610779999999997,-0.004522798,8.723,0,0
0.004624522,0.008553466000000001,0.0035836820000000004,-0.02266514,-0.004162706,8.724,0,0
0.004872112,0.008102596,0.0017026507999999998,-0.020605660000000005,-0.0033377699999999995,8.725,0,0
0.004627444,0.007155008000000001,0.0011268868,-0.016708714000000003,-0.0025060819999999998,8.726,0,0
0.004098718,0.005602866000000001,0.0002924552,-0.012771616,-0.001890358,8.727,0,0
0.0037874640000000004,0.00452231,-0.0002168328,-0.009668688000000002,-0.0016502959999999999,8.728,0,0
0.0031289800000000004,0.003938806,-0.0005186228,-0.006497032000000001,-0.00134000486,8.729,0,0
0.0020242548000000003,0.0026383220000000002,-0.0019795196,-0.003259138,-0.0006078648600000001,8.73,0,0
0.0010445188,0.00085607,-0.0048514456000000004,-0.0005595239999999998,9.339314000000003e-05,8.731,0,0
0.00018200680000000002,-0.0009874,-0.00870502,0.0022364480000000003,0.00073779714,8.732,0,0
-0.0009340772,-0.004124724,-0.010215459999999999,0.00529498,0.0015911551400000002,8.733,0,0
-0.0025667652000000004,-0.006648538000000001,-0.007949852,0.007441642,0.002073584,8.734,0,0
-0.003627328,-0.006075918400000001,-0.004976415999999999,0.008982268,0.0022068400000000003,8.735,0,0
-0.003919184,-0.005912606400000001,-0.0017093199999999994,0.010482848,0.0029239120000000003,8.736,0,0
-0.0038742280000000004,-0.007640414400000001,0.0027014180000000006,0.011214278,0.003676548,8.737,0,0
-0.0036476300000000002,-0.0075271804000000015,0.0044542726400000005,0.011566578,0.004214288,8.738,0,0
-0.003341076,-0.0055225564000000015,0.0030454136400000003,0.011523546,0.004931414,8.739,0,0
-0.0027728860000000004,-0.004489444,0.0019599176400000003,0.009512672,0.004839416,8.74,0,0
-0.0020554566,-0.002626674000000001,0.0009143022400000001,0.006548245999999999,0.0037421081999999997,8.741,0,0
-0.0011888406,0.0015256360000000004,-6.854175999999998e-05,0.003985027999999999,0.0024497862,8.742,0,0
-0.0003224766,0.004914166000000001,-0.0008596064000000001,0.0008971519999999999,0.0008423181999999998,8.743,0,0
0.0008338034000000001,0.006230314000000001,-0.0027209854,-0.00177716,-0.0011049978000000002,8.744,0,0
0.0015834714,0.006575288,-0.0054595314,-0.002677858,-0.0027473098,8.745,0,0
0.0012391724000000001,0.0067521199999999995,-0.009029852000000001,-0.0031463639999999996,-0.003792696,8.746,0,0
0.0005460563999999999,0.007216204,-0.012262746000000001,-0.0039822040000000005,-0.004485166,8.747,0,0
0.00013285579999999995,0.00787906,-0.0112486,-0.004555408,-0.004920118,8.748,0,0
-2.2226200000000014e-05,0.008197152,-0.006631408,-0.00473753,-0.004482662,8.749,0,0
-0.00011975620000000001,0.008004497999999999,-0.001937008,-0.004634748,-0.002649622,8.75,0,0
0.0003172513999999999,0.0067063,0.0036557840000000005,-0.0035116380000000005,0.00017639399999999964,8.751,0,0
0.0008703173999999999,0.00393483,0.00806103,-0.0008891580000000001,0.003345852,8.752,0,0
0.0009864179999999998,0.0001742260000000002,0.007035325999999999,0.0018514340000000003,0.0064111559999999995,8.753,0,0
0.0007215103999999999,-0.003920274,0.0033193019999999997,0.004153254,0.008492764,8.754,0,0
0.00024773639999999995,-0.007000334,7.062200000000022e-05,0.005935604000000001,0.008892572000000001,8.755,0,0
-0.0002243236,-0.008686078,-0.00366335,0.00638308,0.008090410000000001,8.756,0,0
-0.0009012676000000001,-0.010158462,-0.005399204,0.005636152,0.006502333999999999,8.757,0,0
-0.0014887076000000001,-0.011310298000000002,-0.001646692,0.004371022800000001,0.004007324,8.758,0,0
-0.0015804308000000001,-0.010383032,0.005340032000000001,0.0029289534,0.0014469179999999997,8.759,0,0
-0.0015097716000000002,-0.0079883,0.012079492,0.0018501414,-0.00042352200000000007,8.76,0,0
-0.0015578176,-0.004755292,0.017026352,0.0011117232,-0.002388558,8.761,0,0
-0.0012520988,0.0006983480000000001,0.018444822,0.0003905090000000001,-0.004566168,8.762,0,0
-0.0004945468000000001,0.006145688,0.013860548,0.0004708122000000001,-0.0057641079999999996,8.763,0,0
-0.00038122399999999994,0.0068980099999999996,0.0039437280000000005,0.0007732424000000001,-0.006358466,8.764,0,0
-0.0008933532,0.0016637500000000003,-0.004164972,0.0009100624,-0.006719118,8.765,0,0
-0.0009121532,-0.0049051120000000005,-0.00634683,0.0012323546000000002,-0.005642400999999999,8.766,0,0
-0.000752507,-0.009007696,-0.005680850000000001,0.001307327,-0.0036670290000000005,8.767,0,0
-0.0007369370000000001,-0.010222074000000001,-0.003817534,0.0014694310000000002,-0.0018068009999999996,8.768,0,0
-0.000319187,-0.006612561999999999,-0.0004447860000000001,0.0017623081999999998,0.00029693100000000006,8.769,0,0
0.00047503160000000004,0.0021567580000000012,0.0008027460000000007,0.0017820842000000003,0.0022087190000000005,8.77,0,0
0.0011303416,0.010564338000000001,-0.00174991,0.0015228464000000001,0.0027110100000000002,8.771,0,0
0.0011964228,0.013817449999999998,-0.004277142,0.001333099,0.0023680796,8.772,0,0
0.0010089524,0.01432333,-0.005187018000000001,0.000613603,0.0021102520000000004,8.773,0,0
0.0011264744,0.01319903,-0.0033533700000000005,-0.000781519,0.00114737,8.774,0,0
0.0013245218000000002,0.010369514,0.0004517380000000006,-0.002261559,-0.000338264,8.775,0,0
0.0014465198000000001,0.007491922000000001,0.0020746248000000004,-0.0034216412000000005,-0.001392202,8.776,0,0
0.0016732556,0.004428944000000001,0.0006292548000000004,-0.0038631260000000006,-0.0022315396,8.777,0,0
0.0017882452000000002,-1.8618000000000193e-05,-0.0017418911999999998,-0.00413855,-0.003431882,8.778,0,0
0.0014891932,-0.006246558,-0.005566807200000001,-0.004317822000000001,-0.004137902000000001,8.779,0,0
0.0011900072,-0.012143642,-0.010497947200000001,-0.003969404000000001,-0.003927498,8.78,0,0
0.0010687612000000002,-0.01592917,-0.01258388,-0.0031964180000000003,-0.003803512,8.781,0,0
0.0010040532,-0.01692598,-0.010935624000000001,-0.002256284,-0.0030860904,8.782,0,0
0.00059167,-0.015176272000000001,-0.007405775999999999,-0.0005580420000000003,-0.0015122524,8.783,0,0
-0.0003439780000000001,-0.010929200600000003,-0.002875856,0.001533092,0.00018853359999999994,8.784,0,0
-0.001578776,-0.0047936946000000005,0.003156704,0.003213496,0.0016791936,8.785,0,0
-0.0032647120000000003,0.0015427654,0.009098224,0.0044335139999999995,0.0029297376,8.786,0,0
-0.004781832000000001,0.0063677254,0.012635288000000001,0.004476792,0.003866468,8.787,0,0
-0.005552208000000001,0.009321457400000002,0.014150160000000002,0.0034614598000000003,0.0040017920000000005,8.788,0,0
-0.005149988000000001,0.010896352000000002,0.014120060000000002,0.0026654022,0.0037582500000000003,8.789,0,0
-0.00374133,0.009896882000000003,0.012142764,0.0019908122000000003,0.0035270680000000004,8.79,0,0
-0.002452248,0.0062308680000000005,0.009125816,0.0010033138,0.003402186,8.791,0,0
-0.0009562120000000001,0.002481352,0.0062176440000000005,0.00036179280000000005,0.002965038,8.792,0,0
0.001193348,-0.0002714140000000002,0.0027505819999999997,-0.0002709650000000001,0.002734534,8.793,0,0
0.0033291760000000005,-0.0024965900000000004,-0.003086198000000001,-0.0013956414000000001,0.0024051624000000003,8.794,0,0
0.004937924000000001,-0.0034919160000000003,-0.009158822,-0.0029302834000000002,0.0010894884,8.795,0,0
0.005523490000000001,-0.003416136,-0.010390218,-0.004407485,-0.00015159359999999998,8.796,0,0
0.005097263,-0.0023758196,-0.008404916000000002,-0.00579493,-0.0015254936,8.797,0,0
0.0040342244000000005,0.00020866240000000022,-0.0068130568,-0.0068678,-0.0031781996000000002,8.798,0,0
0.0024359124000000003,0.0019642024,-0.0040676288000000005,-0.007407815999999999,-0.004495294,8.799,0,0
0.0008751203999999999,0.0020835684000000006,-0.0011921648000000002,-0.007555052,-0.005076114000000001,8.8,0,0
0.0005379664,0.0021952924,-0.0020579948,-0.006723594,-0.005265922,8.801,0,0
0.0011707834,0.0017593399999999999,-0.0048741568,-0.0050314374,-0.005254918000000001,8.802,0,0
0.0016863820000000002,-0.0002583923999999999,-0.006021004,-0.0031683874000000005,-0.004799538000000001,8.803,0,0
0.001990962,-0.0018889984,-0.005412694000000001,-0.0014244814000000001,-0.004382726,8.804,0,0
0.0019323246000000002,-0.0016064434,-0.0035890620000000005,0.0005185865999999999,-0.0038630300000000004,8.805,0,0
0.0016859526000000003,-0.0011608094000000002,-4.448000000000212e-06,0.0020596386,-0.002682564,8.806,0,0
0.0009388726000000001,-0.0007012992000000001,0.003276714,0.0026790060000000003,-0.0011756600000000002,8.807,0,0
-0.0004520374,0.0005827852,0.004020289999999999,0.00305588,2.6469999999999955e-05,8.808,0,0
-0.0014396894,0.0025567052000000003,0.0039485499999999995,0.003431438,0.0017959240000000002,8.809,0,0
-0.0019145960000000002,0.0038251602000000003,0.0034161470000000005,0.003486486,0.004119554000000001,8.81,0,0
-0.00224004,0.0045427361999999995,0.0014826750000000001,0.003308904,0.005289418000000001,8.811,0,0
-0.0019993852000000003,0.0049976479999999995,0.000603041,0.0034762680000000002,0.006114236,8.812,0,0
-0.0013229208000000003,0.004102140000000001,0.001853131,0.0036484460000000005,0.007323226,8.813,0,0
-0.0006886204000000002,0.0020767700000000004,0.0031563030000000005,0.003196704,0.007097696,8.814,0,0
4.5921599999999916e-05,-9.572400000000016e-05,0.004373522,0.0027049438,0.0054798826,8.815,0,0
0.0006054776000000001,-0.001041492,0.005640928000000001,0.0021657532000000004,0.0038774686,8.816,0,0
0.0008524666000000001,-0.002537712,0.006134362000000001,0.0007686611999999998,0.0017663425999999997,8.817,0,0
0.0010184954,-0.00473812,0.004952094000000001,-0.0007333108000000001,-0.0014928714,8.818,0,0
0.000719735,-0.005522608000000001,0.002868014,-0.0016272208,-0.0039177874,8.819,0,0
-8.108699999999998e-05,-0.0052771,0.0007895559999999999,-0.0025058726,-0.0051463640000000005,8.82,0,0
-0.000659141,-0.004515968,-0.002154548,-0.003493304,-0.006309842,8.821,0,0
-0.000906333,-0.002586334000000001,-0.0054303780000000005,-0.003976784,-0.006628674,8.822,0,0
-0.0011167006000000002,-3.3598000000000135e-05,-0.007139584000000001,-0.004117052,-0.00550298,8.823,0,0
-0.0015737906,0.00197901,-0.0075321599999999996,-0.004239412,-0.0037256928,8.824,0,0
-0.0016305846,0.00351239,-0.007824576,-0.004058262000000001,-0.0019389467999999998,8.825,0,0
-0.0013369252000000002,0.00399142,-0.007250068,-0.0034595040000000004,0.0006729592000000001,8.826,0,0
-0.001474761,0.0035332640000000004,-0.005861126,-0.0025725136000000004,0.0035935552,8.827,0,0
-0.0011735332000000001,0.002596948,-0.0039818632,-0.0014199776000000004,0.0059449972,8.828,0,0
-0.0005368676,0.0013583160000000005,-0.0012512672000000004,0.0004849024000000001,0.007561063999999999,8.829,0,0
-0.0005604256,-0.00014139799999999983,0.0019826948,0.0027327844000000004,0.008327044,8.83,0,0
-0.0009654010000000001,-0.001249056,0.0046705248,0.0048102404000000005,0.007647752,8.831,0,0
-0.0012156390000000001,-0.0009524759999999998,0.0065147728000000005,0.007239748000000001,0.0057481456,8.832,0,0
-0.0015582424000000002,0.0003795100000000002,0.007838196,0.009809498,0.0037677456,8.833,0,0
-0.0016976116000000001,0.001124048,0.00808024,0.011788526,0.0014913376,8.834,0,0
-0.0012967784,0.0009317460000000002,0.005507054000000001,0.013063112,-0.0010721424,8.835,0,0
-0.0007394396,0.0006891019999999999,0.0004563659999999993,0.01383228,-0.0032802364,8.836,0,0
-0.00020652879999999993,-0.000689254,-0.0013058260000000004,0.01348862,-0.004317472,8.837,0,0
0.00035793320000000007,-0.0031731780000000005,0.0011776859999999998,0.011641654,-0.004884216,8.838,0,0
0.0010777368,-0.004592510000000001,0.0028243719999999995,0.009393268000000001,-0.004859886,8.839,0,0
0.0019279916000000004,-0.004616076,0.004603309999999999,0.007189432,-0.0033923,8.84,0,0
0.0023885788,-0.004954212,0.0068080120000000004,0.0045140070000000004,-0.001337144,8.841,0,0
0.0023739304,-0.005797434000000001,0.004932374,0.001897227,0.0006085639999999999,8.842,0,0
0.0018916410000000001,-0.007183348000000001,0.00034325200000000027,-0.00021731099999999987,0.0025372299999999997,8.843,0,0
0.000567637,-0.009179556,-0.0034228379999999992,-0.003277965,0.003730566,8.844,0,0
-0.0007242030000000001,-0.010436414000000001,-0.005686119999999999,-0.007998409000000001,0.003155134,8.845,0,0
-0.0009445330000000002,-0.010454622000000002,-0.005687114,-0.012213784000000002,0.0016120899999999996,8.846,0,0
-0.00037070540000000006,-0.0087747034,-0.00495967,-0.015359524,-0.0005431080000000002,8.847,0,0
0.00026991600000000004,-0.005597073400000001,-0.005346012000000001,-0.018034099999999997,-0.0033581260000000003,8.848,0,0
0.001259422,-0.0016153833999999995,-0.005576904000000001,-0.018383160000000003,-0.005627288,8.849,0,0
0.0018535640000000003,0.0015523566,-0.00538301,-0.015344214000000002,-0.0058695760000000005,8.85,0,0
0.0010965380000000002,0.0043309606,-0.004592995200000001,-0.010954955600000002,-0.0047861296,8.851,0,0
-0.0004228360000000001,0.009739852,-0.0022218572,-0.0065949936000000015,-0.0034572637999999998,8.852,0,0
-0.001957124,0.015303122,0.0003158788000000002,-0.0017935076000000004,-0.0018257286000000002,8.853,0,0
-0.003019324,0.017283632,0.0025580988000000002,0.0017770503999999998,-0.0008437366000000001,8.854,0,0
-0.0036888439999999997,0.017587886,0.0039855128,0.0034783504,-0.0007475746000000002,8.855,0,0
-0.0036970440000000005,0.016410757999999998,0.0036258740000000007,0.004199364000000001,-0.0006637330000000001,8.856,0,0
-0.0028050566400000003,0.011674838000000002,0.0024565900000000002,0.003852238,-0.0001223528000000001,8.857,0,0
-0.0015280966399999999,0.007659282000000001,0.0012530190000000002,0.003188218,0.001219906,8.858,0,0
-0.00042016664,0.007306362,0.0004032390000000001,0.002817346,0.0034110219999999997,8.859,0,0
0.00068734336,0.008229968,-0.00010318259999999984,0.002662228,0.005135476,8.86,0,0
0.00162840736,0.009329508,0.00042195240000000004,0.002180852,0.005615292,8.861,0,0
0.00242849,0.009575964,0.0017130724,0.0013696440000000002,0.00522917,8.862,0,0
0.0034948900000000005,0.008299606000000001,0.0027131554000000002,-2.4496000000000045e-05,0.0036616059999999995,8.863,0,0
0.004615102,0.005613842000000001,0.0035486654,-0.0023640840000000002,0.0013773279999999997,8.864,0,0
0.005438616,0.0019937339999999996,0.0042320050000000005,-0.005008752,-0.0008124660000000003,8.865,0,0
0.00546691,-0.00242155,0.004309894200000001,-0.007466388000000001,-0.0027683860000000003,8.866,0,0
0.0044860528,-0.008776226,0.0030718881999999997,-0.009405756,-0.0043210720000000005,8.867,0,0
0.0030335388,-0.015850452,0.0014538741999999998,-0.010220376,-0.005593352,8.868,0,0
0.0013926771999999998,-0.020036148000000004,9.856900000000004e-05,-0.009493132000000001,-0.006097152,8.869,0,0
-0.00020882279999999998,-0.02138782,-0.001201167,-0.007720970000000001,-0.0055655719999999995,8.87,0,0
-0.0006086702,-0.021343720000000004,-0.0032670992000000004,-0.005130314,-0.004379943199999999,8.871,0,0
-0.00020506299999999998,-0.018370080000000004,-0.0061958912,-0.001351062,-0.0026003572000000007,8.872,0,0
-0.000110364,-0.013474986,-0.0105187612,0.002425646,-0.00035957920000000035,8.873,1,1
-0.00027254840000000003,-0.010468262,-0.016430464,0.005448724,0.0013593588,8.874,0,0
-0.0006989344000000001,-0.00860359,-0.018484604,0.008086342,0.0020319268,8.875,0,0
-0.0013640990000000001,-0.0054326980000000006,-0.015420118000000002,0.009637640000000001,0.002558836,8.876,0,0
-0.002047677,-0.0013993800000000004,-0.011877572,0.009939234000000002,0.0022064584000000003,8.877,0,0
-0.002638398,0.003122766,-0.007833080000000001,0.009435332000000001,0.0006821364,8.878,0,0
-0.00301071,0.007173682000000001,-0.0009815,0.009151816,6.68010000000001e-05,8.879,0,0
-0.002978234,0.009737252,0.006336560000000001,0.008702316,-0.0002741407,8.88,0,0
-0.002993252,0.010894752,0.011248098000000002,0.0062930500000000006,-0.0023246487,8.881,0,0
-0.0032678340000000007,0.010389514,0.014448792000000002,0.002898406,-0.004255331100000001,8.882,0,0
-0.0033489600000000002,0.007971888,0.01757774,0.00039630399999999967,-0.0044086771,8.883,0,0
-0.003074514,0.004831196,0.01947424,-0.0017125860000000003,-0.0043369243,8.884,0,0
-0.002494232,0.0018878740000000005,0.017403580000000002,-0.0033593980000000004,-0.0037612666000000003,8.885,0,0
-0.0015495,-0.0014847640000000002,0.01387918,-0.0026684080000000006,-0.0011185546000000003,8.886,0,0
-0.00013785199999999994,-0.004106864,0.012216872,-0.0009404132,0.0020639473999999997,8.887,0,0
0.001492486,-0.0045142426,0.010766126,-0.00038039319999999993,0.004093607399999999,8.888,0,0
0.0027046220000000003,-0.0027516166000000003,0.007645216,-0.0005871232,0.005081592,8.889,0,0
0.003525312,0.00041668339999999986,0.002888956000000001,-0.0014500452000000001,0.005221259999999999,8.89,0,0
0.004246402,0.0043270094,-0.0026471639999999996,-0.0024212512,0.004722904,8.891,0,0
0.004348042,0.0088692894,-0.008581976000000002,-0.0025633692000000003,0.003834964,8.892,0,0
0.0035760594000000005,0.012798733999999999,-0.014541130000000003,-0.0021296422000000002,0.0030483479999999998,8.893,0,0
0.0027043328,0.013425562000000002,-0.01783788,-0.0016093934000000003,0.002293854,8.894,0,0
0.0019146258000000002,0.011066478000000001,-0.016989048000000003,-0.0010654968,0.0015494399999999998,8.895,0,0
0.0006904475999999999,0.0086485508,-0.013082542,-0.0005249242,0.0013225399999999999,8.896,0,0
-0.0006031264,0.0048436548000000005,-0.007147671999999999,-0.000977863,0.001206082,8.897,0,0
-0.0013874438,-0.00010002920000000014,-0.0008282479999999995,-0.00237859,0.0004567960000000002,8.898,0,0
-0.0016444672,-0.0007096752,0.0027348704000000005,-0.0034627268,-0.000392552,8.899,0,0
-0.0018937262,0.0023077088,0.0020283824,-0.0041993354,-0.00045822740000000004,8.9,0,0
-0.0019472782,0.004608536,-0.0024536636,-0.004971761999999999,-0.0008936818,8.901,0,0
-0.0016881882,0.004832472,-0.0075044536,-0.005125914,-0.0012271610200000002,8.902,0,0
-0.0015781382,0.0007475360000000009,-0.008014995600000002,-0.0043635900000000005,-0.00011127702000000004,8.903,0,0
-0.0014429862000000001,-0.00598994,-0.004884614000000001,-0.003765436,0.0008140569800000001,8.904,0,0
-0.0014504802000000002,-0.011441180000000002,-0.0007184779999999998,-0.00225458,0.00155739438,8.905,0,0
-0.00182197,-0.014709772000000003,0.005232082000000001,0.001883062,0.0032621887800000004,8.906,0,0
-0.002013098,-0.015395254000000002,0.011456162000000002,0.007682934000000001,0.0046956440000000006,8.907,0,0
-0.00215166,-0.012659474000000002,0.013873980000000001,0.013782480000000003,0.005212152,8.908,0,0
-0.003137734,-0.008599282,0.013326080000000002,0.01997735,0.005471946000000001,8.909,0,0
-0.004265942,-0.007292632,0.012769474000000001,0.025469040000000002,0.004622288800000001,8.91,0,0
-0.0050329599999999995,-0.00864392,0.01143042,0.028157920000000003,0.002616844800000001,8.911,0,0
-0.005849842000000001,-0.010046758,0.008821704,0.028618100000000004,0.0009334788,8.912,0,0
-0.006089774,-0.009537354,0.004844216,0.028373520000000003,-0.00021342032000000002,8.913,0,0
-0.005157382,-0.007812153999999999,-0.0005043440000000003,0.026771720000000002,-0.00031215232000000013,8.914,0,0
-0.0031886320000000007,-0.0050277939999999995,-0.007105918000000001,0.023559100000000003,0.0011945108799999997,8.915,0,0
-0.0004950040000000001,-0.0009822600000000004,-0.012452604000000003,0.019446738,0.0038892308800000004,8.916,0,0
0.00249397,0.002952914,-0.012585138000000003,0.013865941200000002,0.006747398880000001,8.917,0,0
0.004922922,0.006108096,-0.00884183,0.0061446412,0.00835287,8.918,0,0
0.006841498,0.008026104,-0.00376113,-0.0024456388000000003,0.008743332000000001,8.919,0,0
0.008454876000000002,0.009025754,0.0026377699999999994,-0.0128496388,0.007625702000000001,8.92,0,0
0.008882678000000001,0.009182540000000001,0.00800079,-0.0261156168,0.003578462,8.921,0,0
0.008427222000000002,0.00855665,0.008430338,-0.038417080000000006,-0.002081058000000001,8.922,0,0
0.007877532000000001,0.006363594,0.004539257999999999,-0.04656202,-0.006810346,8.923,0,0
0.006288302200000002,0.002549124,0.00042009600000000023,-0.05111302,-0.010730022,8.924,0,0
0.003488570200000001,0.00022931885999999982,-0.0017944240000000002,-0.050585620000000005,-0.01396348,8.925,0,0
0.0007202082000000002,0.00037731485999999994,-0.0031606000000000004,-0.04271408,-0.01497936,8.926,0,0
-0.0018170938000000001,0.00043540486000000005,-0.00437025,-0.031152666000000002,-0.01426174,8.927,0,0
-0.0035687318000000006,0.00080720486,-0.0034685948,-0.020027028000000002,-0.0135037,8.928,0,0
-0.0037046286000000004,0.0022599594599999996,-0.0016796806000000002,-0.009016719999999999,-0.012511540000000002,8.929,0,0
-0.0030265900000000004,0.0022269029999999997,-0.0020230626,0.0009638600000000004,-0.010743250000000001,8.93,0,0
-0.0022198030000000002,0.00035939089999999994,-0.0031470746,0.008239340000000001,-0.008475260000000002,8.931,0,0
-0.0010042140000000002,-0.0005550127,-0.0036963866000000005,0.014121726000000001,-0.005604350000000001,8.932,0,0
-0.00033201760000000003,0.00023994930000000004,-0.0044627718,0.019103548,-0.001703178,8.933,0,0
-0.000660127,0.0012053287,-0.0055891280000000005,0.022298880000000004,0.0024601420000000007,8.934,0,0
-0.0005427133999999999,0.0023498503000000002,-0.00579265,0.024129400000000002,0.005867332000000001,8.935,0,0
-0.0002695904,0.0036976564,-0.005081124,0.024301120000000002,0.008711982,8.936,0,0
-0.0004462754,0.005153528,-0.004470528,0.02176408,0.010527692000000002,8.937,0,0
-0.000287843,0.005534914,-0.003888394,0.016886142,0.010578866000000001,8.938,0,0
0.00012127700000000001,0.00412831,-0.002397038,0.010460978000000001,0.009046756,8.939,0,0
1.0429600000000026e-05,0.002087396,-0.00010133799999999986,0.0031927780000000003,0.006278050000000001,8.94,0,0
0.0004512676000000001,-2.0924000000000073e-05,0.0015458580000000002,-0.003941142,0.0022357420000000006,8.941,0,0
0.0024567136000000003,-0.001012742,0.0026701320000000004,-0.009896902,-0.0022650580000000003,8.942,0,0
0.004703656800000001,-0.00018759799999999997,0.0022653080000000006,-0.014151124000000001,-0.005904844000000001,8.943,0,0
0.0063864688000000005,0.002151484,0.0012228440000000005,-0.017377860000000002,-0.008725514,8.944,0,0
0.00702358,0.004062314,0.0023626880000000004,-0.019877860000000004,-0.010441028,8.945,0,0
0.0063174092000000005,0.0041350480000000005,0.0036977540000000006,-0.021089700000000003,-0.01092398,8.946,0,0
0.004231011200000001,0.0021978500000000003,0.0036488360000000004,-0.02087604,-0.010561092000000001,8.947,0,0
0.0011773652000000002,-0.001153906,0.004198413200000001,-0.018689734,-0.009466616,8.948,0,0
-0.0013792668,-0.004301734000000001,0.004460683200000001,-0.013889167999999999,-0.007113137000000001,8.949,0,0
-0.0027192648,-0.006639400000000001,0.0020642892000000005,-0.0075781139999999995,-0.0034042950000000008,8.95,0,0
-0.003579678,-0.0077885440000000005,-0.0002181606,-0.0014374159999999995,0.00041857700000000005,8.951,0,0
-0.004553926,-0.007816572,-0.0005650206,0.003944704,0.003919693,8.952,0,0
-0.0048608900000000005,-0.006965664000000002,0.0002546802000000001,0.008417378000000001,0.007027437,8.953,0,0
-0.004822216000000001,-0.0054344934000000004,0.0018718862,0.011252792000000001,0.008718466000000001,8.954,0,0
-0.004796766000000001,-0.0027414854000000002,0.0033826342000000003,0.012671358,0.009004162,8.955,0,0
-0.0039175780000000006,0.0004300126,0.005119682,0.013588020000000001,0.009169776000000001,8.956,0,0
-0.002557631,0.0026756006000000004,0.006640554000000001,0.013384100000000001,0.008621662,8.957,0,0
-0.0015624866,0.0049477106,0.007206664000000001,0.01177242,0.007055182,8.958,0,0
-0.0006695675999999999,0.007089726000000001,0.006898930000000001,0.009678748000000001,0.005581134000000001,8.959,0,0
0.00020804039999999997,0.007691734000000001,0.004848286,0.0075638979999999995,0.0040825786,8.96,0,0
0.0005647204,0.007255068000000002,0.00116284,0.004414978,0.00211518,8.961,0,0
0.0009530194,0.007192048000000001,-0.0027866400000000004,0.0005088100000000002,0.0001313340000000001,8.962,0,0
0.002153559,0.005841684400000001,-0.007699588,-0.00254402,-0.0013646920000000002,8.963,0,0
0.003215546,0.0018564184000000002,-0.012442278000000001,-0.0052656019999999994,-0.0029096780000000006,8.964,0,0
0.0035037020000000005,-0.0026705676000000006,-0.013629296,-0.007359101999999999,-0.0045179006,8.965,0,0
0.003978006000000001,-0.0066699796000000006,-0.013226168000000002,-0.007184637999999999,-0.0050321260000000005,8.966,0,0
0.004249316,-0.010995665600000001,-0.012883218000000002,-0.005397964199999999,-0.004542542,8.967,0,0
0.003791914,-0.014826966000000002,-0.008276648000000001,-0.0032294602,-0.0040697400000000005,8.968,0,0
0.003429458,-0.01602376,-0.0004677479999999996,-0.00023098020000000006,-0.003117294,8.969,0,0
0.003609826,-0.015099356000000001,0.004788780000000001,0.0031098338,-0.001433612,8.97,0,0
0.0036170139999999996,-0.012102338200000002,0.00895192,0.0063049098,-7.920399999999993e-05,8.971,0,0
0.0029971217999999996,-0.006734228200000001,0.01327143,0.009779364,0.001553348,8.972,0,0
0.0015823897999999999,-0.0014161662,0.013770486,0.01310171,0.0038995960000000004,8.973,0,0
-0.0009768002000000004,0.0020293658000000003,0.010168036,0.016571824,0.006281956,8.974,0,0
-0.004799388200000001,0.0049565518,0.00609406,0.02038204,0.008748793999999999,8.975,0,0
-0.0096040042,0.006756184,0.0015375060000000001,0.02349642,0.011115724,8.976,0,0
-0.013914786000000002,0.004750584,-0.005320434000000001,0.02509492,0.012706724000000003,8.977,0,0
-0.017113486000000004,0.0008146020000000002,-0.01010362,0.0248268,0.01298574,8.978,0,0
-0.01929834,-0.00190457,-0.009277088000000001,0.022309,0.012412824000000001,8.979,0,0
-0.020076660000000003,-0.00305642,-0.006643368,0.017523088,0.01073228,8.98,0,0
-0.01953784,-0.0029007780000000006,-0.0035294619999999997,0.010993886,0.0076024560000000005,8.981,0,0
-0.01843062,8.719199999999983e-05,0.0026007260000000003,0.004001866,0.0036247539999999996,8.982,0,0
-0.015808864000000002,0.0065979720000000006,0.008038426,-0.002568314,-0.0007462860000000001,8.983,0,0
-0.01075779,0.014721072,0.008027278,-0.009370173999999998,-0.005558810000000001,8.984,0,0
-0.004139089999999998,0.021506952000000003,0.006359582799999999,-0.016205862,-0.010490746,8.985,0,0
0.0030437300000000006,0.024173220000000002,0.0057374448,-0.0216724,-0.014266802000000002,8.986,0,0
0.01002535,0.021038984,0.0044518688,-0.025698240000000004,-0.01678992,8.987,0,0
0.016181294,0.013394963999999999,0.002471084,-0.02924146,-0.01797974,8.988,0,0
0.02026228,0.004176164,0.001077246,-0.032299020000000005,-0.017887979999999998,8.989,0,0
0.0220238,-0.005344876,0.0005257172,-0.034924659999999996,-0.01687054,8.99,0,0
0.022489060000000005,-0.011666148000000001,-0.0004695448000000001,-0.036554340000000005,-0.014907130000000001,8.991,0,0
0.02262068,-0.011240965,-0.0014515268,-0.03568482,-0.012258238000000001,8.992,0,0
0.02177438,-0.007272711000000001,-0.00160960554,-0.031756440000000004,-0.008697484,8.993,0,0
0.01983884,-0.004397589,-0.00123519148,-0.024305792399999998,-0.0044045460000000005,8.994,0,0
0.01721622,-0.0029779430000000003,-0.00079070948,-0.014048004399999998,0.0003639959999999999,8.995,0,0
0.013830691999999999,-0.002661229,-0.00068623348,-0.0023295244000000005,0.005610646,8.996,0,0
0.010156957999999999,-0.0044590440000000005,-0.00110501748,0.0109593556,0.010836994,8.997,0,0
0.006002113599999999,-0.007495858,-0.00167404194,0.0260039756,0.01579892,8.998,0,0
0.0017213896000000002,-0.009766480000000001,-0.001990988,0.041845488,0.020869202,8.999,0,0
-0.0027167504000000006,-0.010746646,-0.0031482600000000004,0.057126300000000005,0.025059500000000002,9.0,0,0
-0.0070870024,-0.01081095,-0.005178608,0.0697642,0.02638458,9.001,0,0
-0.010398468400000001,-0.010519116,-0.007467514000000001,0.07645764,0.025368,9.002,0,0
-0.011918928000000002,-0.009518476000000001,-0.009965466,0.07587808000000001,0.02258014,9.003,0,0
-0.011510692000000003,-0.006990840200000001,-0.011413198,0.06919652,0.018000716,9.004,0,0
-0.009792842,-0.0029052182000000003,-0.010621382,0.05832368,0.013116851999999998,9.005,0,0
-0.008046790000000002,0.0013517438000000001,-0.007490664000000001,0.04460448,0.009455744,9.006,0,0
-0.007941630000000002,0.0046945538,-0.002890493999999999,0.028761531999999996,0.007430596,9.007,0,0
-0.009603906,0.0061037092,0.001274732,0.011636792,0.00568284,9.008,0,0
-0.012553378,0.0043256714,0.00508718,-0.006753108000000001,0.0032367839999999995,9.009,0,0
-0.015598488,5.5729399999999724e-05,0.009493674,-0.026722928,-0.0012975920000000002,9.01,0,0
-0.0178082,-0.0041858426,0.012918756,-0.047827888000000006,-0.009575984000000001,9.011,0,0
-0.01944166,-0.0058386554,0.013936826000000003,-0.06804158,-0.020812056000000002,9.012,0,0
-0.01927826,-0.0038137708000000013,0.012612604000000001,-0.08517540000000001,-0.03221172,9.013,0,0
-0.014912208,0.0008286512000000002,0.009290108000000002,-0.09706756,-0.04114034,9.014,0,0
-0.006298987999999999,0.0068174312,0.004314274,-0.10118332000000001,-0.0456815,9.015,0,0
0.0033825920000000002,0.0134433232,-0.000747362,-0.09626972,-0.044461,9.016,0,0
0.011698632,0.01838758,-0.0031936102000000004,-0.08328438000000002,-0.03819678,9.017,0,0
0.017770152,0.02220462,-0.0014460042000000004,-0.06483944,-0.029227692000000003,9.018,0,0
0.01986172,0.02636844,0.0016907618,-0.04395319,-0.020065986000000004,9.019,0,0
0.01856692,0.0293245,0.0036280478,-0.024338712000000002,-0.011315912000000003,9.02,0,0
0.017293680000000002,0.029768580000000003,0.005334873800000001,-0.008252612000000001,-0.0033999319999999996,9.021,0,0
0.01634412,0.02767742,0.00547199,0.0046444880000000004,0.0029496279999999993,9.022,0,0
0.015035332,0.022907106000000003,0.0012173599999999998,0.014897848,0.008630559999999999,9.023,0,0
0.013657402,0.014278092000000003,-0.009507270000000002,0.022184158,0.013221294,9.024,0,0
0.011345928,-0.0004225480000000009,-0.020842162,0.02731508,0.015667840000000002,9.025,0,0
0.008050892,-0.020351368,-0.024367692,0.03135164,0.017215480000000002,9.026,0,0
0.0053229642,-0.037999988,-0.023027064000000003,0.03371824,0.017733020000000002,9.027,0,0
0.0038450852,-0.049389754,-0.019062064,0.03393204,0.015743516,9.028,0,0
0.0023093996000000004,-0.05476140000000001,-0.008338142,0.03272228,0.012941758000000003,9.029,0,0
0.00022433160000000002,-0.051395140000000006,0.003792574000000001,0.031031740000000002,0.010449080000000001,9.03,0,0
-0.0015023064000000003,-0.03971302,0.008153282000000001,0.02829404,0.00737316,9.031,0,0
-0.0028500866,-0.024651580000000003,0.008153494,0.024364760000000003,0.004660104,9.032,0,0
-0.0049213356,-0.008828620000000002,0.007929586,0.019869328000000002,0.0034518260000000003,9.033,0,0
-0.007007860000000001,0.00633876,0.00697222,0.015319556000000002,0.0033144240000000003,9.034,0,0
-0.008226338000000001,0.01867434,0.007086146,0.011820220000000001,0.0038508640000000007,9.035,0,0
-0.009545104,0.027441620000000003,0.007943197999999999,0.01017914,0.005366044,9.036,0,0
-0.010501556,0.03106744,0.008137074000000001,0.00963922,0.00722276,9.037,0,0
-0.01061132,0.028068020000000003,0.008401744,0.009744972000000001,0.008356996,9.038,0,0
-0.009978432,0.021395734,0.009781488,0.011078784000000001,0.009233012,9.039,0,0
-0.008387666000000002,0.015397294,0.011755765999999999,0.012191720000000001,0.010141470000000001,9.04,0,0
-0.006367326000000001,0.010969603999999999,0.011900586,0.01200116,0.009827559999999999,9.041,0,0
-0.0043174904,0.007117062800000001,0.010654442,0.011322708,0.008340602,9.042,0,0
-0.0023865146000000004,0.0034458448000000003,0.009508362199999999,0.010438406,0.0066627704,9.043,0,0
-0.0009808812,-0.0006911492000000003,0.005756452199999999,0.00876849,0.0038511984000000003,9.044,0,0
-0.00016469920000000004,-0.0062410092000000006,-0.0012551278000000003,0.0059525018,3.341839999999982e-05,9.045,0,0
0.0002556308,-0.011850579200000003,-0.007684907800000001,0.0028124198000000003,-0.0030571216,9.046,0,0
0.00030833460000000005,-0.015115018000000003,-0.012020847800000001,-0.0008223642,-0.0055831456000000005,9.047,0,0
0.0003825812,-0.015136272000000003,-0.013286088000000001,-0.0056738622,-0.008039648,9.048,0,0
0.000580466,-0.012125806000000001,-0.00991169,-0.0108790262,-0.00899567,9.049,0,0
0.0006687720000000001,-0.007701446000000001,-0.005780454000000001,-0.015814718,-0.00870826,9.05,0,0
0.001958458,-0.003891358200000001,-0.0033085139999999994,-0.020528096,-0.008813384,9.051,0,0
0.0042584186,-0.0021284602000000005,-0.0006278019999999996,-0.02385392,-0.008345324000000001,9.052,0,0
0.005410062200000001,-0.0024559262,-4.984999999999994e-05,-0.024394840000000004,-0.006418336,9.053,0,0
0.005837546000000001,-0.0024589422,-0.0030328720000000003,-0.023000320000000005,-0.0047095354,9.054,0,0
0.005837694000000001,9.01977999999996e-05,-0.004689494000000001,-0.02000774,-0.0035610612,9.055,0,0
0.004520358,0.004882269999999999,-0.0029269480000000004,-0.014946504,-0.0014532192,9.056,0,0
0.0027528860000000004,0.010790252,0.0003069399999999999,-0.009452816,0.0006294868,9.057,0,0
0.0015354768000000003,0.016094090000000002,0.003958626,-0.004166768000000001,0.0013989708,9.058,0,0
0.0001902328000000001,0.017393834,0.00778176,0.0018161720000000002,0.0017981182,9.059,0,0
-0.0014137632,0.013500121999999998,0.010454185999999999,0.008458352,0.0024483940000000004,9.06,0,0
-0.0030571312000000003,0.006157062,0.009364196,0.015681296000000004,0.003127744,9.061,0,0
-0.0045593452,-0.0032897180000000005,0.004639755999999999,0.024817348000000003,0.00535094,9.062,0,0
-0.0055577460000000006,-0.012869358000000001,-0.0016342640000000003,0.035571860000000004,0.009952188,9.063,0,0
-0.006929732,-0.019785432,-0.007272404000000001,0.045500540000000006,0.014616398,9.064,0,0
-0.009032298000000001,-0.02326526,-0.010608452,0.053716080000000006,0.018346378,9.065,0,0
-0.01121459,-0.0229836,-0.010642306,0.05855772000000001,0.021318960000000005,9.066,0,0
-0.012977244,-0.017745399999999998,-0.008101525000000002,0.05762602000000001,0.022147440000000004,9.067,0,0
-0.013667514,-0.00940626,-0.003953722999999999,0.051095520000000005,0.020465700000000003,9.068,0,0
-0.011703215999999999,-5.89200000000005e-05,0.00012957099999999955,0.04068022,0.0183257,9.069,0,0
-0.007605829999999999,0.008797840000000001,0.002198053,0.027372194000000002,0.016227540000000002,9.07,0,0
-0.0032628560000000006,0.01518288,0.0030172320000000003,0.012294893999999999,0.01297348,9.071,0,0
0.00021488200000000033,0.01907698,0.002868533,-0.0027199660000000003,0.008514216,9.072,0,0
0.0021456462000000003,0.02060236,0.0007969270000000004,-0.018149486,0.002200476000000001,9.073,0,0
0.004214722200000001,0.019289620000000004,-0.003636307,-0.034439286,-0.006764203999999999,9.074,0,0
0.0074400762,0.015419264,-0.006669721000000001,-0.05022868,-0.017619884000000002,9.075,0,0
0.0102867822,0.010561828,-0.005342702000000001,-0.06470352,-0.028526704,9.076,0,0
0.0125650442,0.005467438,-0.0032791540000000003,-0.07754182000000001,-0.038264080000000006,9.077,0,0
0.015903394,0.000749174,-0.0015352240000000008,-0.08772826,-0.04633658000000001,9.078,0,0
0.0185884,-0.00265145,0.0032684260000000005,-0.09235589999999999,-0.05016430000000001,9.079,0,0
0.019249660000000002,-0.00283446,0.008575746,-0.08945510000000001,-0.04800908000000001,9.08,0,0
0.01959238,-0.0002184839999999999,0.010467946,-0.07850424,-0.0417348,9.081,0,0
0.019028339999999998,0.002032696,0.011733116000000002,-0.059128320200000015,-0.032258206000000005,9.082,0,0
0.016334606,0.004234092,0.014042530000000001,-0.032779820200000004,-0.019238604000000006,9.083,0,0
0.0119302838,0.006661298,0.014269274,-0.0040348802,-0.005339684,9.084,0,0
0.0066072297999999995,0.007093928,0.011524948,0.021937599800000002,0.006408655999999999,9.085,0,0
0.0005014097999999998,0.003658228,0.005309668,0.042597279800000006,0.015785976,9.086,0,0
-0.0055889102,-0.0036316820000000002,-0.0078026120000000004,0.05623922,0.022535222,9.087,0,0
-0.0109959362,-0.013907334000000002,-0.022469092000000003,0.06276604,0.02664738,9.088,0,0
-0.015588654,-0.023264036000000002,-0.028544946,0.06419432,0.029152239999999996,9.089,0,0
-0.01886858,-0.027208300000000005,-0.02737055,0.06197218,0.03051586,9.09,0,0
-0.02003318,-0.023765296,-0.022250390000000002,0.056129319999999996,0.030239720000000005,9.091,0,0
-0.017320874,-0.011490436,-0.010034030000000001,0.04711966000000001,0.028069040000000003,9.092,0,0
-0.011028137999999998,0.005925743999999998,0.003676274,0.036225846,0.024688680000000005,9.093,0,0
-0.004105537999999999,0.021804924,0.010240214000000001,0.022790444,0.018843366,9.094,0,0
0.0013446180000000003,0.031173863999999996,0.012365804000000001,0.006514403999999999,0.009829166000000002,9.095,0,0
0.0037891560000000006,0.030194009999999997,0.013364604,-0.010672376000000003,1.66459999999995e-05,9.096,0,0
0.00184839,0.020682909999999995,0.012116362000000002,-0.028008636000000003,-0.010202274,9.097,0,0
-0.0035963859999999996,0.0072648899999999995,0.010344438000000001,-0.04461090200000001,-0.020917274,9.098,0,0
-0.010388846,-0.00854999,0.008286342,-0.05807580000000001,-0.02926022,9.099,0,0
-0.015354922,-0.02292681,0.0033239019999999992,-0.0655831,-0.03313526,9.1,0,0
-0.015482896000000001,-0.02799814,-0.001569574,-0.06615638,-0.03314312,9.101,0,0
-0.010593128,-0.02371167,-0.003826182,-0.061371039999999995,-0.030046740000000002,9.102,0,0
-0.003167088,-0.017357622,-0.004062782,-0.05157454,-0.023590422,9.103,0,0
0.005294632,-0.009331431999999997,-0.0028504739999999995,-0.037736674000000005,-0.01533749,9.104,0,0
0.014682671999999999,0.0009533079999999995,-0.001165982,-0.02240814,-0.007494326000000001,9.105,0,0
0.023234808,0.007729268000000001,0.0005982554000000001,-0.004652080000000001,0.001144974,9.106,0,0
0.029598980000000004,0.008405054,0.0020266074000000003,0.01737106,0.010815614000000001,9.107,0,0
0.03302978,0.008418884,0.0018164474000000003,0.040477799999999994,0.018507516,9.108,0,0
0.03287718,0.008866526000000001,-0.0006058546,0.062492654,0.024513564,9.109,0,0
0.02913626,0.005224537999999999,-0.0038921866,0.08313641999999999,0.030030160000000004,9.11,0,0
0.02185628,-0.0020113020000000013,-0.007569668,0.09808676000000001,0.032956700000000005,9.111,0,0
0.0106893,-0.008311158000000003,-0.01036449,0.10538148,0.03457528,9.112,0,0
-0.002993979999999999,-0.011013066,-0.010346894,0.10729384,0.03694708,9.113,0,0
-0.01597142,-0.011530120000000001,-0.006594404,0.10340972,0.03790472,9.114,0,0
-0.02797592,-0.007969452000000002,0.00020645599999999983,0.09312086,0.03661306,9.115,0,0
-0.03971128,0.0012427480000000001,0.006503215999999999,0.07793262000000001,0.03362674,9.116,0,0
-0.04960246,0.010547168,0.008882074,0.058114992000000004,0.028418900000000004,9.117,0,0
-0.05705098,0.013537376,0.008223630000000001,0.032661631999999996,0.020252736,9.118,0,0
-0.06211534,0.009537338000000001,0.006595808,0.002268911999999998,0.010011456000000002,9.119,0,0
-0.0628447,0.002330558000000001,0.004883108,-0.028885408,-0.00021896399999999858,9.12,0,0
-0.05632716,-0.006516462000000001,0.008127808,-0.058638568,-0.011580044,9.121,0,0
-0.041090940000000006,-0.016193502000000002,0.017303230000000003,-0.08558214,-0.024802104,9.122,0,0
-0.018780380000000003,-0.02287654,0.022630618,-0.10519802,-0.03652532,9.123,0,0
0.005647640000000001,-0.023575460000000003,0.020507875999999998,-0.11451098000000001,-0.04472642,9.124,0,0
0.027240260000000002,-0.02097676,0.017595951999999998,-0.11523052,-0.049705320000000004,9.125,0,0
0.04411748,-0.016383423400000003,0.013096916,-0.10994458,-0.04984472,9.126,0,0
0.05511104000000001,-0.0045342634,0.0035110400000000004,-0.09973652000000001,-0.04579248,9.127,0,0
0.061490960000000004,0.012623716600000001,-0.00577972,-0.08647190000000002,-0.041154800000000005,9.128,0,0
0.06621568,0.025935996600000004,-0.012760936,-0.07151764000000002,-0.035828820000000004,9.129,0,0
0.06913674,0.0340180766,-0.020073111999999997,-0.0559541,-0.030056900000000004,9.13,0,0
0.06835876,0.03864792,-0.025549476,-0.0390718138,-0.024713660000000002,9.131,0,0
0.062450580000000006,0.035935360000000006,-0.027098459999999998,-0.0203860938,-0.0181582394,9.132,0,0
0.0520366,0.026771060000000006,-0.025149619999999998,-0.002265473799999999,-0.0089501194,9.133,0,0
0.038299146000000006,0.018061826000000003,-0.020870559999999996,0.0135346862,0.0011452006000000005,9.134,0,0
0.023063570000000002,0.013597038000000002,-0.01669836,0.0265110862,0.009754820600000002,9.135,0,0
0.008684790000000003,0.010454742000000001,-0.012114966000000001,0.03581852,0.0169687206,9.136,0,0
-0.0034655099999999993,0.002840022,-0.005261186,0.04148812,0.02213938,9.137,0,0
-0.01330947,-0.0041720379999999994,0.0022027339999999996,0.04584854000000001,0.025257840000000004,9.138,0,0
-0.021535176000000003,-0.006099914,0.010685894000000001,0.05026246000000001,0.027607120000000002,9.139,0,0
-0.027568480000000003,-0.008285974,0.020184094000000003,0.054451160000000005,0.02972166,9.14,0,0
-0.03185814,-0.008429598,0.024375900000000002,0.058246740000000005,0.030718880000000004,9.141,0,0
-0.035088180000000004,-0.0024511379999999994,0.021533776,0.060721880000000006,0.030239540000000002,9.142,0,0
-0.03756268,0.001760092,0.016153484000000003,0.05992654,0.027645700000000002,9.143,0,0
-0.03879362,0.00046388200000000053,0.009263904,0.054685620000000004,0.021234458000000005,9.144,0,0
-0.03782128,-0.00151731,0.001722394,0.045319620000000005,0.012838708,9.145,0,0
-0.03414302,-0.0026637619999999996,-0.0025022940000000004,0.033743258000000005,0.005537722000000001,9.146,0,0
-0.027620138000000002,-0.0022294819999999996,-0.00348578,0.021199182000000004,0.00016416200000000014,9.147,0,0
-0.018927642,0.002898668000000001,-0.003953286,0.008240962000000001,-0.003461652,9.148,0,0
-0.0070778820000000015,0.009185628000000001,-0.004308346,-0.003516118,-0.004645924,9.149,0,0
0.004874958000000001,0.006603548000000002,-0.005829476,-0.013726798000000002,-0.004125412,9.15,0,0
0.012070338000000002,-0.002480239999999999,-0.009952328,-0.024066256,-0.005026905999999999,9.151,0,0
0.015330376000000001,-0.010342899999999999,-0.014455777999999999,-0.03454874,-0.007825966,9.152,0,0
0.016132458000000002,-0.01991952,-0.01623976,-0.042760580000000006,-0.010076752000000001,9.153,0,0
0.012965088000000001,-0.02995442,-0.01406013,-0.04750088,-0.011243628,9.154,0,0
0.0075929906,-0.03067386,-0.007959990000000002,-0.04801466000000001,-0.012228264,9.155,0,0
0.0037371046,-0.02578338,-0.0011908499999999985,-0.04329456,-0.011504274000000002,9.156,0,0
0.0008060126,-0.024195579999999998,0.005346130000000001,-0.034146499999999996,-0.009296662,9.157,0,0
-0.0018412314000000002,-0.023281120000000002,0.01165211,-0.023254269999999997,-0.007795396000000001,9.158,0,0
-0.0042491774,-0.02157694,0.014148999999999998,-0.012648374,-0.006905402000000001,9.159,0,0
-0.00692826,-0.02256516,0.012058886000000001,-0.0024515940000000014,-0.005807054000000001,9.16,0,0
-0.008792734000000002,-0.025715800000000004,0.008362152000000001,0.009550526,-0.0028806940000000005,9.161,0,0
-0.009952802,-0.027942920000000003,0.006007888000000001,0.025884366,0.0035294340000000006,9.162,0,0
-0.012498916,-0.02843338,0.004270538,0.044200896,0.011822088000000001,9.163,0,0
-0.015476560000000002,-0.024213052000000006,0.0031431180000000003,0.060849360000000005,0.020038284,9.164,0,0
-0.01791914,-0.013651352000000002,0.0038955800000000005,0.07408376,0.02808221,9.165,0,0
-0.020669720000000003,0.0005764679999999993,0.006158558000000001,0.07990446000000001,0.03373314,9.166,0,0
-0.021644880000000002,0.018383148000000002,0.007863682,0.07545244000000001,0.034774,9.167,0,0
-0.018902544,0.038608928,0.007837784,0.06361018,0.03212448,9.168,0,0
-0.014166997000000004,0.05583098,0.0067332040000000004,0.04866416,0.027799240000000003,9.169,0,0
-0.009150834600000001,0.0679204,0.0029003559999999998,0.030847414000000004,0.021614168000000003,9.17,0,0
-0.0049594406,0.07301104,-0.0038589080000000003,0.010742934000000003,0.013516642000000002,9.171,0,0
-0.0029324046000000006,0.06633228,-0.012191888000000001,-0.008812565999999999,0.005128302000000001,9.172,0,0
-0.0013578546000000001,0.04720978,-0.01844366,-0.027381686000000002,-0.0036324180000000005,9.173,0,0
0.0023475184000000004,0.020228299999999994,-0.019644176,-0.044529706,-0.013848798,9.174,0,0
0.006931136000000001,-0.00965062,-0.017448131999999998,-0.0586246,-0.024733685999999998,9.175,0,0
0.010312282,-0.03538246,-0.011866000000000002,-0.06854748,-0.03470186,9.176,0,0
0.012775662,-0.046478080000000005,-0.0033347599999999995,-0.07480356,-0.043653420000000005,9.177,0,0
0.013559738,-0.04156472,0.0038619200000000005,-0.07594146000000002,-0.049510420000000006,9.178,0,0
0.012161478,-0.027987839999999996,0.008902156,-0.07012442,-0.049592500000000005,9.179,0,0
0.011174558000000001,-0.0101996,0.013778992,-0.0584726,-0.04384188000000001,9.18,0,0
0.013213018,0.0082255,0.0157,-0.04255911,-0.034589668000000004,9.181,0,0
0.018658462,0.021204980000000005,0.012235016,-0.024515056000000004,-0.023722576000000002,9.182,0,0
0.02562122,0.026342460000000005,0.004208615999999999,-0.007433875999999999,-0.011947020000000003,9.183,0,0
0.03124168,0.025580840000000004,-0.006187564,0.003925444,-0.0018280399999999995,9.184,0,0
0.033743640000000005,0.01863582,-0.014460244,0.009437028,0.005278680000000001,9.185,0,0
0.03297652,0.004788020000000002,-0.016769192000000002,0.011599774,0.010425068000000001,9.186,0,0
0.02895044,-0.01300236,-0.013703168,0.010643748000000001,0.014150536000000002,9.187,0,0
0.022218252,-0.02617196,-0.006940192,0.007964348000000001,0.01580118,9.188,0,0
0.014531873600000002,-0.029281488,0.000983482,0.006008874000000001,0.015947100000000002,9.189,0,0
0.0070765796000000014,-0.025307320000000005,0.005996710000000001,0.005393714,0.015440760000000001,9.19,0,0
0.00011099960000000072,-0.0171213,0.007949698000000002,0.005088018000000001,0.013377956,9.191,0,0
-0.0066525804,-0.00979338,0.008605618000000002,0.00628263,0.010239046000000002,9.192,0,0
-0.0119689324,-0.00722852,0.0073439698,0.00860969,0.007686306,9.193,0,0
-0.015536454000000002,-0.005596296,0.004502455800000001,0.010272964,0.005345638000000001,9.194,0,0
-0.018596340000000003,-0.0003110039999999993,0.0020898378000000005,0.011351900000000002,0.0028676511999999998,9.195,0,0
-0.02052618,0.007500076000000001,-0.0023285221999999996,0.012174980000000002,0.0016449652000000003,9.196,0,0
-0.02088446,0.015648676,-0.0082954022,0.011479384000000002,0.0008487432,9.197,0,0
-0.019680860000000005,0.023556036000000002,-0.009648519999999999,0.009038692000000001,-0.0010209728,9.198,0,0
-0.017109192000000002,0.030206820000000002,-0.006401697999999999,0.00650124756,-0.0027187388000000003,9.199,0,0
-0.0132146,0.0341727,-2.324799999999915e-05,0.00377288356,-0.0034460260000000005,9.2,0,0
-0.008333357800000002,0.03359044,0.010514092000000001,0.0014872217600000002,-0.003980216,9.201,0,0
-0.0030159717999999995,0.03299188,0.020713132000000002,0.00064895576,-0.003986434,9.202,0,0
0.0014777002,0.0367593,0.026022362,0.0016173817600000002,-0.0019809020000000005,9.203,0,0
0.0052192522,0.0388765,0.024864758,0.0037723262000000004,0.0004432300000000002,9.204,0,0
0.0088188002,0.02744921,0.016118817999999997,0.0063808502000000005,0.0012625600000000002,9.205,0,0
0.010304606,0.00331503,0.002668458000000001,0.009396452,0.0024567060000000003,9.206,0,0
0.008633364,-0.02200811,-0.010417102000000001,0.011765394,0.005506856000000001,9.207,0,0
0.003552592,-0.045872550000000005,-0.020626402000000002,0.01282254,0.0077582,9.208,0,0
-0.0027492679999999996,-0.06377395000000001,-0.02566432,0.013449619999999999,0.008628442,9.209,0,0
-0.00692298,-0.06608152,-0.024751000000000002,0.013824399999999999,0.010170508,9.21,0,0
-0.008795994,-0.0532544,-0.020556286,0.01156637,0.009974314,9.211,0,0
-0.0080918016,-0.0356936,-0.012688972000000001,0.007171900000000001,0.007210531399999999,9.212,0,0
-0.0036225475999999987,-0.021037206,-0.003892372000000001,0.0017627799999999994,0.0041921002,9.213,0,0
0.0018106324,-0.013577962,0.002101336,-0.005825320000000001,0.0009260442000000001,9.214,0,0
0.0053512644,-0.011829162,0.005529620000000001,-0.014248800000000002,-0.0029731778000000003,9.215,0,0
0.0082962304,-0.011114402,0.006209184000000001,-0.022267670000000003,-0.006134889800000001,9.216,0,0
0.010922974,-0.012240982000000001,0.0032756980000000005,-0.028908740000000002,-0.007174269200000001,9.217,0,0
0.01259964,-0.013897956,0.0009974733999999997,-0.030482640000000002,-0.005220962,9.218,0,0
0.013406940000000001,-0.014128496,0.003953325400000001,-0.02342066,0.001034134,9.219,0,0
0.011908302,-0.011973606000000001,0.006770521400000001,-0.009812320000000003,0.009429934000000001,9.22,0,0
0.006805162,-0.005278546000000001,0.0087275874,0.0074970600000000024,0.016983594,9.221,0,0
-0.0013014580000000001,0.006925374000000001,0.0113849254,0.027928720000000004,0.022831996000000004,9.222,0,0
-0.011420078,0.023399754000000002,0.010819056000000002,0.04687296,0.026373480000000005,9.223,0,0
-0.022503478,0.04124531000000001,0.006679876,0.060362299999999994,0.027302700000000006,9.224,0,0
-0.034097760000000005,0.056807060000000006,0.0034538099999999994,0.0699425,0.027806320000000002,9.225,0,0
-0.04458500000000001,0.06857372,0.0006208680000000001,0.07726086,0.029730140000000002,9.226,0,0
-0.05087196000000001,0.07540348000000001,-0.0020285900000000003,0.08085548000000001,0.031101660000000003,9.227,0,0
-0.051160620000000004,0.07308086000000001,-0.0002504740000000001,0.07912416,0.0295988,9.228,0,0
-0.043547594000000016,0.06023594,0.0018836660000000002,0.07001396,0.023231544,9.229,0,0
-0.02617571400000001,0.03850884,0.0016118458000000003,0.051181838,0.010817003999999998,9.23,0,0
-0.004816654,0.00926188,0.0005756237999999998,0.024096298000000002,-0.006781916000000002,9.231,0,0
0.010308086,-0.025933420000000002,-0.0011126842000000001,-0.008413162000000002,-0.025777936,9.232,0,0
0.016416814000000002,-0.0653157,-0.0048051262,-0.043620722,-0.04440901600000001,9.233,0,0
0.015156190000000002,-0.09806546,-0.0089521122,-0.07463404200000001,-0.05630832000000001,9.234,0,0
0.008855018,-0.10822749999999999,-0.008931337800000001,-0.09600070000000001,-0.05586008,9.235,0,0
0.002892558,-0.09738922,-0.0053953018,-0.10759654,-0.05018892,9.236,0,0
0.0013246000000000002,-0.07762942399999999,-0.0019458337999999995,-0.10978712,-0.04420152,9.237,0,0
0.006676792000000001,-0.05295202399999999,0.00016987780000000008,-0.10345698,-0.03665462,9.238,0,0
0.01783449,-0.028101224,0.0019514616,-0.09308022000000002,-0.031671359999999996,9.239,0,0
0.028374222000000004,-0.012868730000000002,0.0012314594000000004,-0.0819714,-0.03385416,9.24,0,0
0.037926382,-0.007567348000000001,-0.0026043766,-0.06919360000000001,-0.03548316,9.241,0,0
0.046910440000000005,-0.0045671240000000005,-0.0076495646,-0.05497140000000001,-0.03149214,9.242,0,0
0.05057998000000001,0.0029604360000000008,-0.0119283162,-0.037826632000000006,-0.0242722,9.243,0,0
0.04698052000000001,0.017052756000000002,-0.0119766706,-0.015786152000000005,-0.01394618,9.244,0,0
0.039050520000000005,0.034950802,-0.0088211566,0.008903607999999999,-0.00019231999999999843,9.245,0,0
0.030108760000000005,0.05444518000000001,-0.005425200599999999,0.031150528000000004,0.01499128,9.246,0,0
0.020828642000000005,0.07520396,-0.0015981105999999996,0.048545128,0.0284357,9.247,0,0
0.0129729516,0.09492020000000001,0.0020865574,0.060254840000000004,0.040484540000000006,9.248,0,0
0.007950751599999998,0.10442172000000001,0.0035389480000000005,0.06294766,0.050025400000000005,9.249,0,0
0.004822186599999999,0.10054082,0.003471908,0.05799034,0.054216200000000006,9.25,0,0
0.0008374686000000001,0.08541325999999999,0.003606606,0.05014854,0.05302500000000001,9.251,0,0
-0.0040914934,0.0571774,0.0044226854,0.040863420000000004,0.047477580000000005,9.252,0,0
-0.0076713630000000005,0.01940922,0.005255632600000001,0.029711004,0.037425954000000004,9.253,0,0
-0.010111995,-0.01991036,0.0055554766,0.018426262000000002,0.023296944000000003,9.254,0,0
-0.012508970000000001,-0.056102139999999995,0.0068540966,0.008352162,0.007856243999999998,9.255,0,0
-0.014655112,-0.08175314,0.010145562600000001,-0.0026767179999999994,-0.008083476000000003,9.256,0,0
-0.015142451999999999,-0.08952914000000001,0.0146468132,-0.015249538,-0.024992036000000002,9.257,0,0
-0.015046812,-0.07971456,0.017162978000000002,-0.026207482000000004,-0.03891795,9.258,0,0
-0.01575808,-0.05545874,0.012889719999999999,-0.033555720000000004,-0.04621840000000001,9.259,0,0
-0.01552374,-0.0257846,0.0025669199999999986,-0.03836244,-0.047446699999999994,9.26,0,0
-0.013952214,-0.0006221600000000018,-0.0073352600000000006,-0.040278440000000006,-0.043049,9.261,0,0
-0.011850359999999999,0.015775860000000003,-0.013230876,-0.03791406,-0.032537006,9.262,0,0
-0.0093321,0.020389783999999998,-0.015840878200000002,-0.0333055,-0.019393498000000002,9.263,0,0
-0.006928103999999999,0.016567352,-0.0139338262,-0.027408197999999998,-0.007174118,9.264,0,0
-0.0046433075999999995,0.010112032,-0.0080751702,-0.018132718,0.005395321999999999,9.265,0,0
-0.0031487196,-0.0004982879999999995,-0.0015436322,-0.0034327180000000004,0.017983842,9.266,0,0
-0.0017507296,-0.011708808000000001,0.0041224638,0.015880882000000002,0.028002908,9.267,0,0
-0.0007649213999999999,-0.017117152000000004,0.007859526,0.03580562200000001,0.03473814,9.268,0,0
-0.0017454274000000003,-0.020056660000000004,0.010847114,0.05307804000000001,0.037960100000000004,9.269,0,0
-0.0037009078,-0.020870982000000003,0.011162186,0.06491838000000001,0.036154780000000004,9.27,0,0
-0.0064361018,-0.014473750000000002,0.004831927999999999,0.07008544,0.03060706,9.271,0,0
-0.0101641258,-0.004103190000000001,-0.0050730520000000015,0.06898898,0.02435632,9.272,0,0
-0.014477454,0.00412483,-0.013024372000000003,0.06307828,0.017863704,9.273,0,0
-0.018232864,0.010735810000000002,-0.019498132,0.05375708,0.0111861192,9.274,0,0
-0.02070532,0.016132692000000004,-0.022327220000000002,0.041279546,0.0053737352,9.275,0,0
-0.020796679999999998,0.01912544,-0.018074826000000002,0.024877086000000003,6.307520000000018e-05,9.276,0,0
-0.01838616,0.018850640000000002,-0.010430726,0.004599006000000003,-0.0065926648,9.277,0,0
-0.014519460000000001,0.0148765318,-0.001483385999999998,-0.015043274,-0.0129305888,9.278,0,0
-0.009136788,0.008873783799999998,0.009287714,-0.031587014000000004,-0.016685384,9.279,0,0
-0.002611108,0.001772363800000001,0.020725254000000002,-0.045143100000000005,-0.01953278,9.28,0,0
0.004292172,-0.005290536200000001,0.029098220000000004,-0.05236528000000001,-0.0202427,9.281,0,0
0.011084532000000001,-0.0083978782,0.03153166,-0.051977480000000006,-0.016695134,9.282,0,0
0.017213252000000002,-0.006341062,0.027379086,-0.046605440000000005,-0.011434772,9.283,0,0
0.020952940000000003,-0.0022448940000000007,0.019509911999999997,-0.036514938,-0.005856096000000001,9.284,0,0
0.021399,0.0020539239999999995,0.009461412000000002,-0.021540718,0.000595824,9.285,0,0
0.019129126000000003,0.005440494000000001,-0.0027376079999999994,-0.005841838000000001,0.005752744000000001,9.286,0,0
0.015660324,0.006521956000000001,-0.010857588000000001,0.007042842,0.008210666000000002,9.287,0,0
0.012514144000000001,0.005925388000000001,-0.011406293999999999,0.016378181999999998,0.008908364000000002,9.288,0,0
0.011044564000000002,0.0053637780000000005,-0.009277976,0.021419639999999997,0.007685446,9.289,0,0
0.011190224,0.005832096,-0.0074036694,0.023092880000000003,0.005535974000000001,9.29,0,0
0.011380376000000001,0.007239436000000001,-0.0040708074,0.02403656,0.0035870868000000005,9.291,0,0
0.009437376,0.007914342000000001,-0.0027405674,0.025627740000000003,0.0022521328000000003,9.292,0,0
0.0028821159999999997,0.006070154,-0.0054051474,0.026035160000000005,0.0014355888,9.293,0,0
-0.006235624,0.002802414000000001,-0.0084352474,0.023403532,1.0220800000000077e-05,9.294,0,0
-0.014070824000000001,-0.0004520119999999999,-0.010077452,0.01828253,-0.0019919712000000004,9.295,0,0
-0.020058062,-0.004404462,-0.009802499999999999,0.011151976000000003,-0.0036345500000000003,9.296,0,0
-0.023864220000000005,-0.008607808,-0.0076972876,0.003118332,-0.0038349638000000005,9.297,0,0
-0.02302508,-0.01124338,-0.0044924716,-0.0028873,-0.0013602998000000004,9.298,0,0
-0.018444808,-0.011404554,-0.0005570696000000001,-0.00458557,0.0046601101999999995,9.299,0,0
-0.013661310000000001,-0.0100921814,0.0037294084,-0.003195418,0.012266914200000001,9.3,0,0
-0.008150558,-0.008904095400000001,0.006976496400000001,-0.000938376,0.0184202802,9.301,0,0
-0.0008524780000000003,-0.0070488794,0.008493974000000001,0.0006708162000000001,0.020819920000000002,9.302,0,0
0.007263562,-0.0036738094000000002,0.008558136000000001,-0.0007068717999999996,0.016888508000000003,9.303,0,0
0.014044270000000001,0.0001356345999999997,0.006396136000000002,-0.005071173799999999,0.007858708000000002,9.304,0,0
0.018358252000000002,0.004432131999999999,0.0025077320000000004,-0.0100143638,-0.002027451999999999,9.305,0,0
0.01969944,0.009477646,-0.00209409,-0.015730111800000002,-0.011886712,9.306,0,0
0.015712526,0.013374790000000001,-0.00787704,-0.022348260000000002,-0.021940492000000002,9.307,0,0
0.007460206000000002,0.015586339999999999,-0.012791938,-0.027082000000000002,-0.02886526,9.308,0,0
-0.0013089540000000006,0.015693719999999998,-0.015029444000000001,-0.030600940000000004,-0.031888360000000004,9.309,0,0
-0.009310934,0.012190714,-0.014560534,-0.03508274000000001,-0.03390688,9.31,0,0
-0.014900354000000001,0.006379426,-0.011076646,-0.03826330000000001,-0.03328624,9.311,0,0
-0.015156695999999999,-0.0014883140000000001,-0.004543166000000001,-0.037317760000000005,-0.027443066000000002,9.312,0,0
-0.010783014,-0.012736954,0.0026219539999999997,-0.0333728,-0.018967758,9.313,0,0
-0.004051833999999999,-0.024499354,0.007518394,-0.028263920000000005,-0.010871898,9.314,0,0
0.0037804060000000005,-0.032398288,0.010764608,-0.02215282,-0.0024188779999999997,9.315,0,0
0.010571566000000001,-0.035028279999999995,0.01262052,-0.01616466,0.005280002000000001,9.316,0,0
0.014649962,-0.03310632,0.0131121,-0.011713784000000001,0.008770216,9.317,0,0
0.015234098000000001,-0.026674120000000003,0.011639618000000001,-0.009328014,0.009206672,9.318,0,0
0.013525348000000003,-0.016431456,0.009916292,-0.007435908000000001,0.009031482,9.319,0,0
0.011612562,-0.007180756000000002,0.010472752,-0.004399444000000001,0.007214764,9.32,0,0
0.009991541999999999,-0.00014739600000000016,0.009387580000000001,0.0011572559999999997,0.0049094920000000005,9.321,0,0
0.009194462,0.007155864,0.0034525399999999996,0.01093914,0.005474904000000001,9.322,0,0
0.009782884,0.013028524000000001,-0.007370998,0.02430515,0.0077082800000000005,9.323,0,0
0.009360632,0.016475000000000004,-0.020977492,0.038760364000000005,0.00994919,9.324,0,0
0.00601785,0.021565680000000004,-0.030901972,0.051414360000000006,0.013312388000000001,9.325,0,0
0.0011896100000000007,0.02844206,-0.033778962,0.059515700000000005,0.01680598,9.326,0,0
-0.0037196699999999996,0.033207440000000005,-0.029555292,0.05982284,0.01791446,9.327,0,0
-0.00789385,0.03703928,-0.015468892,0.05192828000000001,0.017029739999999998,9.328,0,0
-0.009804434,0.038311040000000005,0.0031943080000000016,0.03928833,0.015463130000000002,9.329,0,0
-0.009146952000000002,0.03376686,0.015746328,0.025050308,0.012835781999999999,9.33,0,0
-0.007557526000000001,0.02728482,0.022837730000000004,0.010831928000000001,0.009232882,9.331,0,0
-0.005255966,0.025184940000000003,0.026341540000000004,-0.0016529720000000004,0.00678884,9.332,0,0
-0.002405036,0.02662966,0.022917124000000004,-0.011167432000000001,0.0058557340000000005,9.333,0,0
-0.0004749660000000003,0.02415546,0.015269652,-0.018706322,0.003702854,9.334,0,0
0.000475268,0.01300904,0.009351498600000003,-0.02388474,0.0007326819999999997,9.335,0,0
0.001090572,-0.0027915400000000003,0.004143702600000001,-0.02523492,-0.0011988740000000004,9.336,0,0
0.0014548703200000003,-0.0158907,-0.0008830973999999999,-0.0241185,-0.0037065640000000003,9.337,0,0
0.00147053432,-0.026212226,0.00046865860000000004,-0.021304939999999998,-0.0070688980000000005,9.338,0,0
-0.00015837167999999992,-0.03053786,0.0060732906,-0.015823792,-0.008739728,9.339,0,0
-0.00283219968,-0.025244820000000005,0.007579986,-0.007737431999999999,-0.009443988,9.34,0,0
-0.004025387680000001,-0.018783800000000003,0.006567064000000001,0.001217208,-0.010290692,9.341,0,0
-0.004328986000000001,-0.01711278,0.004992824000000001,0.010389208,-0.009860316000000001,9.342,0,0
-0.0051311790000000005,-0.01672101,-0.0016970959999999995,0.019954808,-0.007538457399999999,9.343,0,0
-0.0042990866,-0.016715284,-0.010251256,0.02782206,-0.004063155399999999,9.344,0,0
-0.0015028406000000003,-0.018066963999999998,-0.014369778000000001,0.03154466,0.00015810460000000048,9.345,0,0
-0.0006191246000000001,-0.021220584,-0.015398368,0.030314860000000002,0.005383424600000001,9.346,0,0
-0.0015576406,-0.030026864000000004,-0.016705748000000003,0.025307236,0.010445940600000002,9.347,0,0
-0.0026490716000000004,-0.041775108000000005,-0.017109768,0.016659548000000003,0.013715582000000002,9.348,0,0
-0.004299674,-0.04995316000000001,-0.013485218,0.004538128000000001,0.014461976000000003,9.349,0,0
-0.006690140000000001,-0.05031644000000001,-0.008502098000000001,-0.009933272,0.011260558000000002,9.35,0,0
-0.009388678000000001,-0.038973506000000005,-0.0031165099999999994,-0.025332232,0.002918838000000001,9.351,0,0
-0.011196642,-0.018351366,0.005149870000000001,-0.039970788,-0.008361202,9.352,0,0
-0.011519333999999999,0.006059994000000001,0.01293225,-0.0528043,-0.020739602000000003,9.353,0,0
-0.0098430864,0.028773654000000003,0.01615184,-0.060557480000000004,-0.031685798,9.354,0,0
-0.006458598400000001,0.043057214,0.014063800200000002,-0.060736860000000004,-0.03616378,9.355,0,0
-0.0017900604000000004,0.04624642,0.0092708242,-0.054824700000000004,-0.03420318,9.356,0,0
0.0037411996000000004,0.040961528,0.0061114742000000005,-0.04610796,-0.02898374,9.357,0,0
0.0092814416,0.02764321,0.0037220702,-0.036006220000000005,-0.021079610000000006,9.358,0,0
0.014381966000000003,0.01027347,0.0008126322,-0.02501959,-0.011961403800000001,9.359,0,0
0.018445578,-0.0020196299999999997,0.0007527572000000001,-0.01380501,-0.004823651800000001,9.36,0,0
0.02125004,-0.006648312,0.0015611012000000001,-0.0019957099999999986,0.0008445481999999999,9.361,0,0
0.022239599999999998,-0.00379484,-0.0017484488,0.00951151,0.0065480282,9.362,0,0
0.02118222,0.004444638,-0.0051576847999999995,0.019217670000000003,0.0110479182,9.363,0,0
0.01795417,0.013260398,-0.0060987348,0.026098720000000002,0.013674212,9.364,0,0
0.013830160000000001,0.019395618,-0.006774252000000001,0.02976312,0.015868439999999998,9.365,0,0
0.01142315,0.020795128,-0.006029734000000001,0.03078006,0.01748126,9.366,0,0
0.010179810000000001,0.017307036,-0.0032861160000000004,0.030698459999999997,0.017003579999999997,9.367,0,0
0.008539784,0.012457858,0.001292164,0.0317586,0.01687002,9.368,0,0
0.005617824,0.007426236,0.0065129720000000006,0.03552456,0.01815758,9.369,0,0
0.0019036739999999993,0.001789256,0.010739723999999999,0.04052404,0.018360539999999998,9.37,0,0
-0.0022350160000000007,-0.000325752,0.013492477999999999,0.044518520000000006,0.01833786,9.371,0,0
-0.007626336000000001,0.0007447199999999999,0.0126587908,0.04799332,0.020084820000000003,9.372,0,0
-0.012456730000000001,0.0018222180000000004,0.0079506108,0.048818520000000004,0.021242640000000004,9.373,0,0
-0.01643792,0.0035073560000000005,0.0017823108000000003,0.043522200000000004,0.019615,9.374,0,0
-0.022833020000000002,0.004797976,-0.0057435092,0.033967406000000006,0.016698532,9.375,0,0
-0.031536600000000005,0.000890236,-0.014100749200000002,0.023429356000000002,0.013757628000000003,9.376,0,0
-0.0382108,-0.009124284,-0.0196855,0.013081938400000001,0.011268288000000001,9.377,0,0
-0.04173356,-0.021595504,-0.02198456,0.0049826504,0.009593388,9.378,0,0
-0.04099682,-0.0323173,-0.023372320000000002,6.422439999999958e-05,0.009390248,9.379,0,0
-0.03337768000000001,-0.03753496,-0.023010500000000003,-0.0035138416000000004,0.010086486,9.38,0,0
-0.021777902,-0.036978040000000004,-0.019136774000000006,-0.0073676316000000006,0.009523162,9.381,0,0
-0.011161316000000001,-0.029271643799999997,-0.011009654,-0.013853994000000001,0.005825486,9.382,0,0
-0.003569038,-0.014374503799999997,-0.0011208940000000008,-0.023517626,-0.002567654,9.383,0,0
0.001398086,0.004200296200000002,0.008360786000000002,-0.03591026,-0.015313354000000001,9.384,0,0
0.004425104,0.0199579562,0.018248566,-0.05021734,-0.029923584000000003,9.385,0,0
0.007274746,0.0270811362,0.02566256,-0.06418412,-0.045174616,9.386,0,0
0.011444720000000002,0.028427990000000004,0.028061799999999998,-0.07596094,-0.059483060000000004,9.387,0,0
0.017526182,0.02680405,0.02874552,-0.08226938,-0.06688346,9.388,0,0
0.025871998000000007,0.02107043,0.02865682,-0.08091058,-0.06446286,9.389,0,0
0.03510676,0.015663569999999998,0.022820038,-0.07209974,-0.05463006,9.39,0,0
0.0417706,0.016274010000000002,0.010814177999999997,-0.057350540000000005,-0.038735818000000005,9.391,0,0
0.04340414,0.016708840000000003,-0.0028695019999999986,-0.037306796,-0.018494998,9.392,0,0
0.04169002,0.011282280000000002,-0.015281622000000002,-0.014216415999999999,0.0013312619999999989,9.393,0,0
0.03596084000000001,0.004168100000000002,-0.024554562000000002,0.0071739840000000004,0.016397481999999998,9.394,0,0
0.024158614,-0.001752068,-0.028240340000000003,0.024877364000000003,0.026084322,9.395,0,0
0.010169994,-0.00648033,-0.02492142,0.039355104,0.03124798,9.396,0,0
-0.001580166000000001,-0.010440050000000001,-0.016786422000000002,0.051505340000000004,0.03314642,9.397,0,0
-0.011056546,-0.01158617,-0.008446836000000001,0.06171792000000001,0.034097100000000005,9.398,0,0
-0.017547526,-0.010818910000000001,-0.0008862160000000009,0.07077622,0.03612538,9.399,0,0
-0.01939766,-0.011751622000000001,0.008545984000000001,0.07774356,0.03869348,9.4,0,0
-0.018022120000000003,-0.01329454,0.019495304000000005,0.08042324,0.04004062,9.401,0,0
-0.015230480000000001,-0.01326472,0.028698406000000003,0.07790744,0.03970928,9.402,0,0
-0.012129594000000002,-0.012383060000000001,0.033688220000000005,0.06947784,0.036904660000000006,9.403,0,0
-0.010190252,-0.011746880000000001,0.03289584,0.05540791999999999,0.030844180000000006,9.404,0,0
-0.008673436,-0.009077152,0.024165940000000004,0.036496962,0.022168086000000004,9.405,0,0
-0.00663098,-0.005420479999999999,0.0081904,0.014043982,0.012202606,9.406,0,0
-0.004797846,-0.002540701999999999,-0.0107997,-0.009490578,0.0017190259999999994,9.407,0,0
-0.00235299,0.0010304700000000003,-0.02779202,-0.031877318,-0.008964294,9.408,0,0
0.0023001480000000006,0.00611859,-0.041336460000000005,-0.050826338,-0.019267134,9.409,0,0
0.007648692,0.010259622,-0.050743420000000004,-0.06424204,-0.029238800000000002,9.41,0,0
0.011551416000000002,0.012141990000000002,-0.051792300000000006,-0.07052586,-0.0372559,9.411,0,0
0.014500042000000003,0.015749412,-0.043072846000000005,-0.06935956,-0.041465520000000006,9.412,0,0
0.014994874,0.020908000000000003,-0.026773366000000003,-0.06324368000000001,-0.043564,9.413,0,0
0.0114667274,0.023921700000000004,-0.005691746000000001,-0.05291682,-0.042857040000000006,9.414,0,0
0.005582149400000001,0.020311326000000005,0.016141193999999998,-0.03729840200000001,-0.03551846,9.415,0,0
9.554940000000003e-05,0.013087546000000004,0.031701474,-0.018329862000000002,-0.02290322,9.416,0,0
-0.0036457245999999997,0.007818866000000002,0.036164840000000004,0.0012235579999999996,-0.008866439999999996,9.417,0,0
-0.0070230566,-0.0011524939999999998,0.031989556,0.020774098000000005,0.006058200000000002,9.418,0,0
-0.01047571,-0.018179214,0.024906696,0.038476518,0.0197796,9.419,0,0
-0.013195232000000001,-0.034682500000000005,0.018495176000000002,0.05091564,0.028310360000000003,9.42,0,0
-0.015792932000000003,-0.0431848,0.017217396,0.05777968,0.031527740000000005,9.421,0,0
-0.019684018,-0.04730518,0.022883356,0.058647000000000005,0.03109352,9.422,0,0
-0.023241420000000002,-0.043846436,0.02740268,0.05290282,0.027382079999999996,9.423,0,0
-0.0248079,-0.026674176000000004,0.023371434000000003,0.042462139999999995,0.021588413999999997,9.424,0,0
-0.02448362,-0.004594276,0.010329894,0.028694890000000008,0.015405330600000001,9.425,0,0
-0.022222659999999998,0.009588970000000002,-0.008484146000000005,0.011802529999999999,0.007504250600000002,9.426,0,0
-0.018406454,0.014166178000000001,-0.029019986000000005,-0.007009050000000002,-0.0037604294000000006,9.427,0,0
-0.012418720000000001,0.013674300000000002,-0.04484032600000001,-0.02553901,-0.0157460694,9.428,0,0
-0.00454294,0.011830180000000001,-0.04902762000000001,-0.04381733,-0.0267522234,9.429,0,0
0.004003999999999999,0.012158,-0.041813960000000004,-0.06100122000000001,-0.03701518,9.43,0,0
0.012958299999999999,0.016453954,-0.029808048,-0.074279,-0.04315278,9.431,0,0
0.021655054,0.021838446000000004,-0.016552168000000003,-0.0821056,-0.0416126,9.432,0,0
0.028762140000000002,0.02610904,-0.0035814080000000003,-0.08216038,-0.0331271662,9.433,0,0
0.0336454,0.02830732,0.005811752,-0.07212496,-0.0198454062,9.434,0,0
0.03386426,0.026493480000000003,0.013895352,-0.052686384,-0.0034326662,9.435,0,0
0.02980216,0.0212325,0.022674399999999997,-0.027146043999999998,0.0123964938,9.436,0,0
0.0249422,0.014947442000000002,0.03005418,0.000650516000000002,0.0236537138,9.437,0,0
0.017910170000000003,0.005915082,0.03462080000000001,0.026449596000000002,0.02965682,9.438,0,0
0.008981171999999999,-0.006260878,0.03530346,0.048732336,0.03255174,9.439,0,0
0.0022723739999999997,-0.013674458,0.0295947172,0.06820978,0.03435722,9.44,0,0
-0.002206546,-0.016834198,0.0179410172,0.0841578,0.03555668,9.441,0,0
-0.006657306,-0.020332100000000002,0.005609757200000001,0.09617338,0.0366102,9.442,0,0
-0.010114755999999999,-0.021882580000000006,-0.006447822800000001,0.1033367,0.03647952,9.443,0,0
-0.013175878000000002,-0.021341200000000005,-0.0174794228,0.10240704,0.03274358,9.444,0,0
-0.01720742,-0.021774240000000004,-0.022759340000000003,0.0915927,0.024839391199999998,9.445,0,0
-0.021617940000000002,-0.020095356,-0.022839880000000003,0.07337505999999999,0.0157439372,9.446,0,0
-0.026109720000000003,-0.014263092000000002,-0.02126256,0.051102782000000006,0.0083423392,9.447,0,0
-0.028443520000000003,-0.009236874,-0.016828192000000002,0.027935102000000003,0.0037705812000000003,9.448,0,0
-0.026986219999999998,-0.005083266,-0.008670692000000002,0.005249202,0.0025594312,9.449,0,0
-0.022748657999999998,-0.002431558,-7.772000000000074e-06,-0.015983938,0.0014708359999999999,9.45,0,0
-0.01711098,-0.002630516,0.007309528000000001,-0.034231258,-0.0026169900000000005,9.451,0,0
-0.010487145600000001,-0.0018439560000000001,0.013590347999999999,-0.05082010000000001,-0.009737632,9.452,0,0
-0.0038516576000000003,0.003164826,0.01743126,-0.06786223999999999,-0.020377494000000003,9.453,0,0
0.0013558023999999998,0.009635458,0.018028260000000004,-0.08398198,-0.033606424,9.454,0,0
0.0051011204,0.014218830000000002,0.01673294,-0.09563090000000002,-0.04368546,9.455,0,0
0.0084954824,0.014401376,0.013413289,-0.10241234000000002,-0.04775246,9.456,0,0
0.013025088,0.009699912,0.0074413809999999995,-0.10368828000000001,-0.04839340000000001,9.457,0,0
0.01880534,0.0054576778,0.001127061,-0.09687052,-0.04524626,9.458,0,0
0.025930180000000004,0.0029111977999999998,-0.0037528790000000006,-0.08220444000000002,-0.038523260000000004,9.459,0,0
0.03445674,0.0013630977999999996,-0.008788539000000001,-0.06393652000000001,-0.03226878,9.46,0,0
0.041619540000000003,0.0034546177999999995,-0.014315308000000002,-0.045463378000000006,-0.0278622,9.461,0,0
0.0442188,0.0076855198,-0.020242780000000002,-0.026763028,-0.022560340000000005,9.462,0,0
0.04117672000000001,0.009493156,-0.027048540000000003,-0.008994268,-0.016141420200000003,9.463,0,0
0.032563592,0.008162396,-0.0364349,0.006798652,-0.0090579602,9.464,0,0
0.020874326000000002,0.00691892,-0.045014900000000004,0.020761872,0.0008756398000000004,9.465,0,0
0.007988546000000001,0.007441894,-0.042069760000000005,0.032833570000000006,0.0124819198,9.466,0,0
-0.005855854000000001,0.005863926,-0.026828420000000002,0.04302396,0.0218385398,9.467,0,0
-0.018733514,0.0018113840000000005,-0.006591060000000003,0.050809560000000004,0.028752999999999997,9.468,0,0
-0.030887906000000007,0.00049084,0.01602428,0.05647706,0.03439134,9.469,0,0
-0.043203700000000005,0.0017807759999999998,0.038287020000000005,0.060952160000000005,0.03683876,9.47,0,0
-0.05257626000000001,0.00268313,0.05167174,0.06453542000000001,0.03646988,9.471,0,0
-0.056192660000000005,0.005264516,0.05234326,0.06630276,0.0358748,9.472,0,0
-0.054287520000000006,0.008673932,0.045842280000000006,0.06554178000000001,0.035506340000000004,9.473,0,0
-0.04571386,0.010177036,0.037687460000000006,0.06090654000000001,0.034596520000000006,9.474,0,0
-0.031634904,0.011540136000000001,0.028970040000000002,0.05121370000000001,0.03352168,9.475,0,0
-0.016620164,0.010946236000000002,0.018711518000000003,0.039262380000000006,0.0325067,9.476,0,0
-0.001644063999999998,0.008561758000000001,0.008738334,0.027565322000000003,0.03014656,9.477,0,0
0.011789296000000001,0.0068031340000000015,0.0014538139999999999,0.015366306000000003,0.024827708000000004,9.478,0,0
0.021917896000000003,0.005132634400000001,-0.0036062459999999996,0.0031549659999999995,0.015197288000000003,9.479,0,0
0.030332680000000004,0.0017733184,-0.010177585999999999,-0.007833134000000002,0.0016624680000000011,9.48,0,0
0.037381500000000005,-0.0042276816,-0.019768123999999998,-0.019992034,-0.014303452000000001,9.481,0,0
0.0400126,-0.0116165636,-0.026108359999999997,-0.033869996,-0.030127532000000002,9.482,0,0
0.037807200000000006,-0.0196143756,-0.02732838,-0.04605682,-0.04348744,9.483,0,0
0.03301288,-0.027463736000000002,-0.027686620000000002,-0.0544177,-0.05273092,9.484,0,0
0.02616166,-0.032220620000000005,-0.025320899999999997,-0.05780624,-0.05527606,9.485,0,0
0.019179480000000002,-0.030340408000000003,-0.018354408000000003,-0.056724000000000004,-0.05190274,9.486,0,0
0.013890800000000002,-0.024292544000000003,-0.011465872,-0.053513340000000006,-0.04635616000000001,9.487,0,0
0.010761018,-0.015972076,-0.007400708,-0.049433920000000006,-0.03904758,9.488,0,0
0.009780734,-0.0064418819999999995,-0.005844498,-0.04292134000000001,-0.028435262000000003,9.489,0,0
0.009241562,0.0012160980000000005,-0.007985478,-0.02982754,-0.015487221999999998,9.49,0,0
0.006905876000000001,0.007172526,-0.01070365,-0.008982100000000002,-0.0008937219999999978,9.491,0,0
0.0024630359999999996,0.012061002000000001,-0.011335774000000002,0.016551500000000004,0.015868538,9.492,0,0
-0.0032409020000000004,0.014998314,-0.012196112,0.044230280000000004,0.032628658,9.493,0,0
-0.008556418,0.01652696,-0.01086954,0.0692543,0.045877980000000006,9.494,0,0
-0.012159022000000002,0.01746406,-0.003243760000000001,0.08493304000000002,0.053807320000000006,9.495,0,0
-0.015241636000000001,0.01548266,0.0074525400000000006,0.09053344,0.0565955,9.496,0,0
-0.018278836000000003,0.01142684,0.015060668000000001,0.08910710000000002,0.05484944,9.497,0,0
-0.021027476000000003,0.00666214,0.019516562,0.08179678,0.04970192000000001,9.498,0,0
-0.025976576000000005,-0.000795339999999999,0.0222831,0.0716167,0.044266040000000006,9.499,0,0
-0.03345770000000001,-0.0092718,0.020846477999999998,0.05995892,0.03796158,9.5,0,0
-0.038436200000000004,-0.01370314,0.017071858000000002,0.043117182,0.026314906000000002,9.501,0,0
-0.03856784,-0.013549018,0.016436578,0.021175402000000003,0.010107906,9.502,0,0
-0.03509872,-0.011062612000000001,0.017762078,-0.0027010179999999977,-0.005973993999999998,9.503,0,0
-0.027612994000000002,-0.007613084,0.017432598,-0.028414418,-0.022336874,9.504,0,0
-0.017120056,-0.0037724180000000005,0.014906978000000001,-0.054746778,-0.038091674,9.505,0,0
-0.007149295999999999,0.0005638419999999997,0.007383018000000001,-0.0768786,-0.047454119999999995,9.506,0,0
0.0015410239999999998,0.0032222799999999997,-0.006478402,-0.09187274000000001,-0.05001908,9.507,0,0
0.009417724000000002,0.0028487803999999997,-0.019090942,-0.09924088000000002,-0.0483338,9.508,0,0
