bandpass 1,bandpass 2,bandpass 3,bandpass 4,bandpass 5,time,onset,mark
-0.00033732399999999996,0.0030168400000000002,-0.00032135919999999997,-0.00047237500000000003,-0.0013481570000000002,6.015,0,0
-0.000695958,0.004829738,-0.0008310552000000001,-0.00043585820000000003,-0.0014698466000000001,6.016,0,0
-0.002041754,0.007752738,-0.000898011,-0.00010942420000000002,-0.0020226966000000002,6.017,0,0
-0.0036538200000000003,0.01074248,-0.000456857,0.00015268419999999998,-0.0022289416000000005,6.018,0,0
-0.00299593066,0.012109964,-0.0004679852,-1.9781200000000006e-05,-0.0015501341999999997,6.019,0,0
-0.0029252186600000002,0.01243177,0.0012071888000000002,0.00019064600000000004,-0.0017383602,6.02,0,0
-0.0029460226600000004,0.010870856,0.0041616448,-0.00023653280000000007,-0.0022564806,6.021,0,0
-0.00067472066,0.00660706,0.0059118186,-0.0014150768000000002,-0.0012893426,6.022,0,0
0.00141778134,0.00274155,0.007796892600000001,-0.0020388802,-0.0002930506000000002,6.023,0,0
0.001805928,0.0007148440000000005,0.010595412,-0.0020428430000000003,0.0002777359999999999,6.024,0,0
0.002978128,-0.002079766,0.011284878000000002,-0.0025833282000000003,0.0017898520000000002,6.025,0,0
0.004262808,-0.005066289999999999,0.008949055400000001,-0.0026997702000000003,0.0029985420000000003,6.026,0,0
0.002891894,-0.005467488,0.004351217399999999,-0.0014031882000000002,0.0026068486000000004,6.027,0,0
0.0018336178000000003,-0.004896897,-0.0028425426000000006,-0.0004113182000000001,0.0022932766000000005,6.028,0,0
0.0026735938000000004,-0.004506771,-0.0100439026,0.00023869599999999983,0.0023731586,6.029,0,0
0.0018980618000000002,-0.0016421489999999994,-0.0156703026,0.001605536,0.0012045966000000003,6.03,0,0
0.0003751218,0.0031739109999999997,-0.01891672,0.00260772,-0.00028305539999999997,6.031,0,0
0.0004956398,0.006548377,-0.015545916000000002,0.0022389832,-0.0007132359999999999,6.032,0,0
-0.0005197820000000001,0.008164744,-0.0071097359999999984,0.0020287692,-0.0015832519999999998,6.033,0,0
-0.0036937920000000004,0.008686342,-0.0006187760000000001,0.0025018312000000004,-0.00331106,6.034,0,0
-0.005830734,0.007406228000000001,0.0025346960000000003,0.0022620892,-0.0037495239999999997,6.035,0,0
-0.006550212000000001,0.004434034,0.0039474800000000015,0.0017120514,-0.0028731929999999996,6.036,0,0
-0.007171862,0.0007864819999999998,0.0018213240000000007,0.0016670556,-0.0025919278,6.037,0,0
-0.006042075000000001,-0.0037893860000000005,-0.0041166760000000005,0.0010683575999999998,-0.0018645356,6.038,0,0
-0.0026652790000000013,-0.008414124,-0.008324096,-0.00016649040000000007,0.0005292084000000001,6.039,0,0
0.0002508610000000002,-0.010981714000000002,-0.0072290040000000015,-0.0007058538,0.0023709864000000004,6.04,0,0
0.0024115710000000004,-0.011661874000000003,-0.004128680000000001,-0.0008451782000000002,0.0028968254,6.041,0,0
0.0049556010000000005,-0.011082458000000002,-0.0019535500000000005,-0.0014762276,0.0036130382,6.042,0,0
0.00608403,-0.009071106,0.0009389760000000002,-0.0018237376,0.0040828240000000005,6.043,0,0
0.004446678,-0.0061092602,0.004337284,-0.0016866708000000002,0.0026782986,6.044,0,0
0.0032411097999999997,-0.0037468922,0.005106084,-0.0020835054000000004,0.0012025706000000002,6.045,0,0
0.0026944658,-0.0020918966,0.004533214,-0.0020398242,0.0008283926000000002,6.046,0,0
0.00032764779999999976,0.00047002740000000006,0.005161949999999999,-0.0009426042000000001,-0.0005281874000000001,6.047,0,0
-0.0017119422000000002,0.0026830134,0.005385319999999999,-0.0001640042,-0.0017467534,6.048,0,0
-0.0020577282,0.0023979976,0.004931490000000001,-6.61572e-05,-0.0016146008000000002,6.049,0,0
-0.002795332,0.0024400856,0.005847946,0.0010196708000000001,-0.0020417668,6.05,0,0
-0.003943530000000001,0.004193716,0.007275048000000001,0.0018925918,-0.0030337548,6.051,0,0
-0.0030976308,0.005633236,0.007666441999999999,0.0011754518,-0.002307471,6.052,0,0
-0.0016242667999999997,0.008746078000000001,0.007898834,0.0012412878,-0.001082397,6.053,0,0
-0.0011232424,0.015509108,0.006682134,0.0016389660000000002,-0.0008102301999999999,6.054,0,0
0.0006324716000000003,0.022665091999999998,0.002201054,0.0004111860000000001,0.0004603098000000003,6.055,0,0
0.0027519036,0.02539058,-0.0037525459999999994,-0.000932624,0.0022596298000000003,6.056,0,0
0.0023355464,0.0189683,-0.008405653999999999,-0.0006810468,0.0026521820000000003,6.057,0,0
0.0019619524000000005,0.0042868199999999985,-0.009558996,-0.0011120588,0.0024528640000000003,6.058,0,0
0.0034772020000000004,-0.011982179999999999,-0.007468344,-0.0019222248,0.003094088,6.059,0,0
0.0032373560000000003,-0.026479000000000003,-0.0035536219999999993,-0.0010710768,0.002915692,6.06,0,0
0.0018459998000000001,-0.03566374,0.0012062600000000004,-0.0003604454,0.0017086839999999998,6.061,0,0
0.0026252938,-0.034914,0.00434908516,-0.0006391986000000001,0.0012806993999999999,6.062,0,0
0.0028554738000000006,-0.02573279,0.00442949516,-0.0005399924,0.00035487339999999994,6.063,1,1
0.0010095178,-0.016053868,0.0018966911600000003,7.60778e-05,-0.0017366686,6.064,0,0
-1.26482000000001e-05,-0.008881864,-0.0020605708400000004,-7.036760000000003e-05,-0.0031793086,6.065,0,0
-0.00033926199999999995,-0.0009578639999999992,-0.00483531884,-0.0002046906,-0.0037324526,6.066,0,0
-0.002138114,0.006873836000000001,-0.005556982,0.0006778774,-0.004934404,6.067,0,0
-0.004130508,0.011934626,-0.00585459,0.0012579192000000002,-0.00566668,6.068,0,0
-0.004340088000000001,0.014830504000000001,-0.005000096799999999,0.0006840070000000001,-0.004552919200000001,6.069,0,0
-0.004561188000000001,0.016499538,-0.0018989147999999999,0.0007248293999999999,-0.0035168452000000003,6.07,0,0
-0.004846782000000001,0.014468002,0.0004216072000000001,0.0010813650000000001,-0.0026679795200000005,6.071,0,0
-0.0029352920000000004,0.0099205758,0.00033833720000000004,-2.3285000000000005e-05,-0.0005088255200000002,6.072,0,0
-0.0005368800000000002,0.007103421800000001,0.0004577592000000001,-0.0004733894000000001,0.00178814648,6.073,0,0
0.00032000800000000004,0.0064366218,0.0009341640000000001,0.0004040026,0.00270779368,6.074,0,0
0.00199642,0.006322005800000001,-0.00028052999999999997,-6.637640000000007e-05,0.00354190168,6.075,0,0
0.003690118,0.0061502957999999995,-0.0010040140000000001,-0.0009962144000000002,0.0050005760000000005,6.076,0,0
0.00234779,0.005816729200000001,0.000495894,-0.0003276122000000001,0.0052726560000000006,6.077,0,0
0.0012325319999999997,0.0034039592,0.001608512,-0.00013149980000000004,0.0045595900000000005,6.078,0,0
0.0022062880000000003,0.00043897519999999994,0.0017107480000000002,-0.0006928498,0.004129346000000001,6.079,0,0
0.0013592836,-0.0006677548000000002,0.0034896780000000004,-0.0001931598,0.0026681000000000005,6.08,0,0
-0.0003117844,-0.001795237,0.006662086,0.00024430299999999997,3.857800000000005e-05,6.081,0,0
0.0010179356000000002,-0.0032556182,0.009496686,-0.00036529320000000006,-0.0016549740000000002,6.082,0,0
0.0018400936000000003,-0.0029283502,0.012719138000000001,-0.0005371186,-0.0029238000000000003,6.083,0,0
-0.0005118243999999999,-0.0020708726,0.015012178000000001,-0.00023450820000000004,-0.004532092000000001,6.084,0,0
-0.00168154,-0.0030100446,0.014037042,-0.00022545740000000003,-0.004496570000000001,6.085,0,0
-0.001223656,-0.0035648064,0.008402601999999999,0.00013795500000000002,-0.0032389176,6.086,0,0
-0.002634742,-0.0023122964000000003,-0.0012547980000000005,0.0007193548,-0.0028088258,6.087,0,0
-0.0033541260000000007,-0.0016394224,-0.012019418,0.0005686292,-0.0014918378,6.088,0,0
-0.0015532480000000003,-0.0030764780000000005,-0.018884798,-0.0003604452,0.0012387582000000002,6.089,0,0
-0.00021372399999999993,-0.0044614960000000006,-0.0193220146,-0.00092217,0.0030684482000000006,6.09,0,0
0.001215642,-0.0040347372,-0.016633754799999997,-0.0012858406,0.0035971358000000003,6.091,0,0
0.0043015499999999995,-0.0034238492,-0.012607434800000001,-0.0019343804,0.004394086,6.092,0,0
0.0062381680000000005,-0.0024694932000000006,-0.008081054800000001,-0.0015311514000000003,0.005172376,6.093,0,0
0.005882259999999999,0.0010304107999999999,-0.0057708588000000005,0.00014057859999999991,0.003923342,6.094,0,0
0.005812946,0.0049492688,-0.006773988200000001,0.0009992266,0.002478092,6.095,0,0
0.004950938,0.007068807999999999,-0.0070246048000000005,0.0012611114,0.002189416,6.096,0,0
0.0012217259999999998,0.008208984,-0.0038707708000000006,0.0023642774,0.001197008,6.097,0,0
-0.002113714,0.006237888,3.980520000000003e-05,0.0028942613999999997,-0.000463426,6.098,0,0
-0.003681328,0.000704826,0.0035564012000000003,0.0021029146,-0.0011314,6.099,0,0
-0.006502560000000001,-0.004214794000000001,0.0077161252,0.0020939725999999997,-0.0019571040000000003,6.1,0,0
-0.008897152,-0.007115244000000001,0.011609282,0.0027551372,-0.003662666,6.101,0,0
-0.007908394000000001,-0.009188734,0.012916888000000001,0.0019267951999999999,-0.004142452,6.102,0,0
-0.006404239400000001,-0.008544668000000002,0.012958252000000002,0.0006957032000000001,-0.004323108,6.103,0,0
-0.005584243400000001,-0.005060357400000001,0.012696068000000001,0.0003536872,-0.004780132000000001,6.104,0,0
-0.0025566753999999997,-0.0024710218,0.010085326000000002,-0.0005450068000000001,-0.0035091268000000007,6.105,0,0
0.0013245566,-0.0017385538,0.0064665136,-0.0020949288,-0.0012818728000000004,6.106,0,0
0.0039940506,-0.00014381180000000004,0.0043814496,-0.0022095268,-0.0001514128000000003,6.107,0,0
0.006183712000000001,0.0019155322,0.0028478588000000003,-0.0020323988,0.0011274492,6.108,0,0
0.00729199,0.0006668695999999998,0.0013553827999999999,-0.0024076080000000003,0.0030435832,6.109,0,0
0.006543428,-0.0013673259999999999,0.0007790626000000001,-0.0019065282,0.003104488,6.11,0,0
0.0046679844,-0.0014758140000000004,0.0005704690000000001,-0.0010295146000000002,0.0021322682,6.111,0,0
0.0030473244000000007,-0.001365152,5.883300000000008e-05,-0.0004764646,0.0025086982000000002,6.112,0,0
0.0013278684,0.00012377999999999998,-0.0007560142,0.0003528814,0.0019603474,6.113,0,0
-0.0005497296,0.004331592,-0.0013145602000000003,0.0013714054,-0.00016913660000000006,6.114,0,0
-0.0014558756000000001,0.008399298000000001,-0.0014899714000000002,0.0013772252,-0.0012746046000000001,6.115,0,0
-0.0012130834000000001,0.010632648,-0.0017691774000000002,0.001210074,-0.0023943068000000004,6.116,0,0
-0.0023279994,0.011464198000000002,-0.0021970234000000003,0.001267594,-0.0047990428,6.117,0,0
-0.0045001834,0.008623684440000001,-0.0034401394,0.0006038842,-0.006417298,6.118,0,0
-0.0040543974,0.00347422444,-0.0064953854,-0.0004961138000000001,-0.006281102,6.119,0,0
-0.0033457894,-0.0009824215600000002,-0.010190532,-0.000664761,-0.006046832,6.12,0,0
-0.003945352,-0.00578922956,-0.01318336,-0.00013930540000000013,-0.0046590572,6.121,0,0
-0.0018186360000000002,-0.01055153356,-0.015690434,-0.0004759244000000001,-0.0009494531999999999,6.122,0,0
0.0019161839999999996,-0.012392174,-0.015516854000000002,-0.0009201526000000001,0.0026137648,6.123,0,0
0.003182352,-0.011169096000000002,-0.011836468000000001,-0.0010118466,0.0044309068,6.124,0,0
0.004860322,-0.009508322,-0.006985576000000002,-0.0015868050000000002,0.006439126800000001,6.125,0,0
0.007084071999999999,-0.00693014,-0.0009263160000000004,-0.0021626658,0.008675620000000002,6.126,0,0
0.0059592759999999995,-0.00376169,0.006567004,-0.0018489968000000002,0.008065532,6.127,0,0
0.0039920834,-0.0024963800000000003,0.012273138,-0.0011286488,0.006651072,6.128,0,0
0.0035448996,-0.001462676988,0.014109092,-0.000493179,0.0068311940000000005,6.129,0,0
0.0021331378,0.003068349012,0.014190494,0.0004995889999999999,0.005773650000000001,6.13,0,0
-0.0005514302,0.008800627012,0.012420756,0.0011037118000000001,0.0030944180000000007,6.131,0,0
-0.0022642402,0.012411477012,0.008424144000000001,0.00080755,0.0014932682,6.132,0,0
-0.0036703496000000005,0.015882941012000003,0.004853042,0.000926114,0.0002357202000000001,6.133,0,0
-0.0059193318,0.017677896,0.0030828179999999998,0.0015899602000000001,-0.0022554898,6.134,0,0
-0.007897148,0.014452998000000002,0.0018778946000000004,0.0016643582,-0.004066133800000001,6.135,0,0
-0.0077540099999999995,0.007383669999999999,0.0005938186000000001,0.0012544946,-0.0045348058,6.136,0,0
-0.006947124,-0.0012773899999999998,0.0003531288,0.0012142266,-0.005320746,6.137,0,0
-0.005883711999999999,-0.01041119,-9.31492000000001e-05,0.0007510902,-0.005149944,6.138,0,0
-0.002045878,-0.018108626,-0.0014440132000000001,-0.0006339198,-0.003119756,6.139,0,0
0.001983658,-0.023129128,-0.0020880878,-0.0015976238000000001,-0.0017166432000000002,6.14,0,0
0.003844696,-0.024358980000000002,-0.0024066118,-0.0017464987999999998,-0.0016290652000000004,6.141,0,0
0.005818914,-0.020595204,-0.003821696,-0.002198567,-0.0009414912000000001,6.142,0,0
0.0073948600000000005,-0.01253986,-0.005017604,-0.0023826506,-0.00046376520000000006,6.143,0,0
0.005569442,-0.003626899999999999,-0.005045566000000001,-0.0010272705999999998,-0.0016703592000000002,6.144,0,0
0.0027734619999999995,0.0024825819999999997,-0.005236010000000001,-0.0002796398,-0.0017657734000000001,6.145,0,0
0.0014853083999999998,0.008135162,-0.004902038,-0.000356672,-0.0003413314,6.146,0,0
-0.00011968420000000012,0.013405606,-0.0029169500000000006,0.0009351700000000001,-0.00013985400000000013,6.147,0,0
-0.0017032562000000003,0.015249782,-0.00043959399999999975,0.002002622,-0.0003744380000000001,6.148,0,0
-0.0020455102000000005,0.016979461999999997,0.0021214120000000005,0.0015063384000000002,0.0003541186,6.149,0,0
-0.0025637662,0.020873,0.0052558,0.0017039656000000002,1.6945999999999997e-05,6.15,0,0
-0.0040252446,0.02154294,0.007754466000000001,0.0024534524,-0.0014742359999999999,6.151,0,0
-0.004573008000000001,0.017858128,0.00838342,0.0018474722000000002,-0.0014205930000000002,6.152,0,0
-0.004458999800000001,0.014170168000000002,0.0075467780000000005,0.0013091122000000001,-0.0010530242,6.153,0,0
-0.0041860477999999994,0.010211090000000003,0.006580012,0.0015271538000000001,-0.0016522328,6.154,0,0
-0.0021553298000000004,0.004876517,0.004045338,0.0006661838000000002,-0.0009042308,6.155,0,0
0.0007938642,0.000507571,-0.000976502,-0.0007977862,0.0008493632000000001,6.156,0,0
0.0022610202,-0.0009139550000000001,-0.005581498000000001,-0.00095100356,0.0014497908000000001,6.157,0,0
0.0028045660000000005,-0.0027326370000000004,-0.009847204,-0.0009601923599999999,0.001891892,6.158,0,0
0.004018794,-0.006698959,-0.014782314,-0.00166216636,0.0031044360000000003,6.159,0,0
0.00429783,-0.009204046,-0.015366810000000002,-0.0013366501600000002,0.003215354,6.16,0,0
0.0028548434000000007,-0.009601142,-0.01019109,-0.00021958816000000006,0.0021197498,6.161,0,0
0.0024064494000000003,-0.010293433999999999,-0.0052958580000000005,-0.00038018160000000004,0.0019992278,6.162,0,0
0.0023907194,-0.00961597,-0.0004628239999999999,-0.000665728,0.0019687958,6.163,0,0
0.0003437074000000001,-0.006499236,0.00500931,0.00024729800000000007,0.0009190737999999999,6.164,0,0
-0.0008451646,-0.0039688104,0.006185930000000001,0.0007405238000000001,0.0002654958,6.165,0,0
-0.0008716441999999998,-0.0032923284,0.003502184,0.0008306818000000002,4.4315999999999973e-05,6.166,0,0
-0.0029090542,-0.0043306583999999995,0.002139474,0.0017024608,-0.0014651500000000001,6.167,0,0
-0.004328646199999999,-0.0068528004,0.002301566,0.002171772,-0.0032562880000000004,6.168,0,0
-0.0031341454,-0.0095085544,0.001612022,0.00124511,-0.003174362,6.169,0,0
-0.0029014282,-0.009929964,0.001658408,0.0007521802,-0.0031186240000000004,6.17,0,0
-0.0032242119999999997,-0.0092002882,0.002289778,0.00048616039999999994,-0.0035018900000000006,6.171,0,0
-0.0007588799999999998,-0.009091468200000001,0.001400886,-0.0007599576,-0.0021044320000000003,6.172,0,0
0.0017420600000000001,-0.0081535882,-9.548199999999982e-05,-0.0018021996,-0.00012034600000000023,6.173,0,0
0.0024880612000000002,-0.006228440200000001,-0.001073252,-0.0019641216000000003,0.0003706579999999999,6.174,0,0
0.003941292000000001,-0.006096512400000001,-0.00235001,-0.0025060158,0.0011976040000000001,6.175,0,0
0.0053872220000000005,-0.006862030200000002,-0.002669277,-0.003114602,0.0028205580000000004,6.176,0,0
0.004859818000000001,-0.0042863616,-0.001039801,-0.0023860760000000004,0.002775322,6.177,0,0
0.0044713,0.0003954424000000003,-0.000240331,-0.0015593120000000002,0.002275206,6.178,0,0
0.004905904,0.0043966144,-6.496999999999948e-06,-0.0009484798000000002,0.0029080760000000003,6.179,0,0
0.003187738,0.009224690600000002,0.0017504990000000002,0.0004042322,0.0027083700000000003,6.18,0,0
0.0006787499999999999,0.015513812600000001,0.0033954360000000004,0.0015548342000000002,0.0013128100000000002,6.181,0,0
-0.0009088800000000001,0.018797144000000002,0.0029959840000000006,0.0015805622,0.0006274840000000001,6.182,0,0
-0.00342515,0.017271378,0.0027006756000000002,0.0018918802000000001,2.5338000000000075e-05,6.183,0,0
-0.006577782,0.0141266558,0.0031078664,0.002652076,-0.0016609900000000002,6.184,0,0
-0.007514584,0.0098724698,0.0017153224000000002,0.0023863820000000003,-0.002629082,6.185,0,0
-0.006589836000000001,0.0040386158,-0.0002289415999999999,0.001648702,-0.0022346374,6.186,0,0
-0.006119388000000001,0.0008188900000000001,-0.0006521616,0.0013464944,-0.0023416054,6.187,0,0
-0.0044681136,0.0013558860000000002,-0.0011015792,0.0007208054000000001,-0.0023092494000000003,6.188,0,0
-0.0010669796000000002,0.0017731062,-0.002788826,-0.0008337145999999999,-0.0010564854000000002,6.189,0,0
0.0013437324000000002,0.0017568622000000002,-0.003238678,-0.0019447666,1.193059999999999e-05,6.19,0,0
0.0025341104,0.0014277242,-0.0013192259999999997,-0.0019200462,0.000438572,6.191,0,0
0.0045521104,-0.0012267900000000002,0.0016372400000000003,-0.0020612586,0.00189496,6.192,0,0
0.00573941,-0.004794784,0.005638638,-0.0020687716,0.0032207900000000003,6.193,0,0
0.00467835,-0.005795128000000001,0.01078634,-0.0010121756000000001,0.002696847,6.194,0,0
0.004162476,-0.00464047,0.014101802,-0.00044951800000000004,0.0025469290000000003,6.195,0,0
0.004815974,-7.383800000000055e-05,0.013299542,-0.0008280524,0.002753433,6.196,0,0
0.003933262,0.008715862000000001,0.009437765999999998,-0.0006778945999999999,0.0011475070000000003,6.197,0,0
0.0014911100000000001,0.015093782000000002,0.002294626000000001,-0.0004948576,-0.0006083130000000001,6.198,0,0
0.00017089799999999984,0.012706228000000002,-0.007448454,-0.0008103343999999999,-0.00088783,6.199,0,0
-0.0013450520000000002,0.00265258,-0.015660214000000002,-7.195999999999895e-06,-0.002005432,6.2,0,0
-0.00439845,-0.0098659,-0.018525536000000002,0.0015592779999999999,-0.003374188,6.201,0,0
-0.0062344,-0.020879420000000003,-0.016548192000000003,0.0021826282,-0.0028220038000000003,6.202,0,0
-0.005824274000000001,-0.025954055999999996,-0.01114976,0.0024065912,-0.0018864528000000003,6.203,0,0
-0.005282590000000001,-0.021849798000000004,-0.0031752840000000013,0.0026350534,-0.0014658836,6.204,0,0
-0.0037452600000000007,-0.011304118,0.003619212,0.0017021254000000002,0.0002266964000000001,6.205,0,0
-0.0005114160000000002,-0.0010256300000000007,0.005916111200000001,7.572540000000004e-05,0.0025263404000000003,6.206,0,0
0.0015188539999999998,0.005317422,0.0054288292000000005,-0.0006638296,0.0034814322,6.207,0,0
0.003107166,0.00804285,0.0047227252,-0.0011374476,0.0040968612,6.208,0,0
0.005532976,0.008158356,0.0030969308,-0.0017878490000000002,0.004817574000000001,6.209,0,0
0.005963894,0.006865152,0.0017073148,-0.0016096630000000001,0.004391016,6.21,0,0
0.004162564,0.004722484,0.0013704271999999999,-0.0005504649999999999,0.0025429520000000002,6.211,0,0
0.003953352,0.002125132,0.0006749932,-0.00022059759999999988,0.0011568219999999996,6.212,0,0
0.0037134739999999996,-0.00083472,0.0011432952,-0.0004305255999999999,5.838400000000019e-05,6.213,0,0
0.0008127959999999997,-0.0037949720000000006,0.004147053600000001,0.0003033304,-0.002128554,6.214,0,0
-0.001049358,-0.005250168000000001,0.006980053599999999,0.0007954084000000001,-0.0039309819999999995,6.215,0,0
-0.0013777820000000001,-0.0050816281999999996,0.00834885,0.0001153746,-0.004113754,6.216,0,0
-0.003863298,-0.004409596200000001,0.009085192,0.00030026019999999996,-0.004647186,6.217,0,0
-0.006375687999999999,-0.0034031822,0.005026502,0.0013661802,-0.005491072,6.218,0,0
-0.005149034,-0.0018036036,-0.005134418,0.00113748472,-0.0042720688,6.219,0,0
-0.003719942,0.00014725040000000016,-0.013931318000000002,0.0007300999200000001,-0.0034990468,6.22,0,0
-0.003701006,0.0020951906,-0.018200866000000003,0.00090522572,-0.0037069148000000007,6.221,0,0
-0.001200264,0.0035496906,-0.019829952,0.00028319572,-0.0018018948000000003,6.222,0,0
0.0019009800000000002,0.004454326600000001,-0.01661185,-0.0005502502799999999,0.0006371632,6.223,0,0
0.0016354700000000002,0.003878366000000001,-0.008409446000000001,-0.0005087717999999999,0.001569042,6.224,0,0
0.0016990540000000002,0.000823446,-0.0001683139999999995,-0.0008026329999999999,0.0032396980000000005,6.225,0,0
0.003859148,-0.0026539880000000004,0.005669746000000001,-0.001502915,0.00540104,6.226,0,0
0.004202456,-0.004764766,0.009220218000000002,-0.0014372870000000002,0.004992238,6.227,0,0
0.0033028040000000003,-0.005491002,0.010492256000000002,-0.0013901304,0.0035494086000000006,6.228,0,0
0.003787472,-0.0047585324,0.009972820000000002,-0.0017976694000000001,0.0031483426,6.229,0,0
0.0032026790000000004,-0.0016282264,0.008575634000000002,-0.0013114766000000002,0.0019919361999999998,6.23,0,0
0.0010062930000000001,0.0026759476,0.0059772628,-3.547859999999991e-05,-6.056379999999997e-05,6.231,0,0
7.47910000000001e-05,0.0061799336,0.0011782227999999999,0.0004818254000000001,-0.0008690598000000001,6.232,0,0
-0.0008229869999999999,0.0096192396,-0.004583617200000001,0.0009566608000000001,-0.0011206264000000001,6.233,0,0
-0.003006695,0.012287000000000001,-0.007358765200000001,0.0016025568,-0.0024305964000000003,6.234,0,0
-0.004267988,0.012637126,-0.006430191200000001,0.0014479148,-0.0031082920000000003,6.235,0,0
-0.0036701578,0.010967148,-0.004106160000000001,0.00088882124,-0.00226659,6.236,0,0
-0.0037317358,0.008685548,0.0005679400000000003,0.0006909452400000001,-0.002189326,6.237,0,0
-0.0038352218000000005,0.005174268,0.006242112000000001,0.00028962024,-0.002079324,6.238,0,0
-0.0020806338,-5.5751999999999625e-05,0.009007590000000001,-0.0005793277599999999,-0.00013540999999999987,6.239,0,0
-0.0008787345999999999,-0.004306878,0.008477748,-0.00061686476,0.001329438,6.24,0,0
-0.0011930888,-0.006505358,0.006015717000000001,-0.0002923912,0.00132046,6.241,0,0
-8.245279999999984e-05,-0.008535646,0.002312239,-0.0004412019999999999,0.002239212,6.242,0,0
0.0019604892000000002,-0.009912342000000001,-0.0008760570000000002,-0.00011139100000000002,0.003002808000000001,6.243,0,0
0.0022105252,-0.007753162000000001,-0.0025130390000000003,0.0010435190000000001,0.0014942700000000005,6.244,0,0
0.003122288,-0.004489094000000001,-0.004437079,0.0012624988000000002,0.0004975700000000001,6.245,0,0
0.00489932,-0.002355126,-0.005869542,0.0006705428000000002,0.0005968980000000001,6.246,0,0
0.0037014440000000003,0.000856618,-0.005646892000000001,0.0009711276000000002,-0.00046720199999999995,6.247,0,0
0.000977366,0.0036114360000000004,-0.005185268,0.0007952202000000001,-0.001821002,6.248,0,0
-0.00038030599999999996,0.0039319368,-0.004776504,-0.00024454579999999993,-0.002149566,6.249,0,0
-0.002690758,0.0029886948000000003,-0.003175494,-0.00024142239999999993,-0.002936246,6.25,0,0
-0.0051336080000000004,0.0011736168000000004,-0.0001433420000000003,0.00031889160000000006,-0.004580496,6.251,0,0
-0.004605976,-0.0016251452000000002,0.0031510460000000002,-0.0003968944,-0.004848772,6.252,0,0
-0.0032003607999999996,-0.0029411032,0.006788506,-0.0009503550000000001,-0.0040295716,6.253,0,0
-0.0027101347999999997,-0.0013752519999999996,0.011129706,-0.0005983485999999999,-0.0034677776000000007,6.254,0,0
-0.0012337472,0.0010388620000000006,0.013710238,-0.0013277296,-0.0018212636000000007,6.255,0,0
0.0011355788,0.0035175320000000003,0.012494827999999998,-0.0022040636000000002,0.0012902684000000004,6.256,0,0
0.0016389608,0.0057698260000000005,0.008761581999999999,-0.001830702,0.0032204164000000004,6.257,0,0
0.0017661996,0.005509974000000001,0.000543862,-0.0014345438000000002,0.003993406,6.258,0,0
0.0033276736,0.0013107220000000007,-0.010988098,-0.0015181148000000002,0.005186242000000001,6.259,0,0
0.004262558,-0.003355858,-0.016626158000000002,-0.0009279756000000001,0.005107746000000001,6.26,0,0
0.0035656779999999996,-0.005575326000000001,-0.015708213999999998,-4.228560000000002e-05,0.0034589144,6.261,0,0
0.003451078,-0.007962204,-0.013709452,-0.000151703,0.0025845164000000004,6.262,0,0
0.0038680879999999996,-0.009573356000000002,-0.0083397466,-0.00016271120000000002,0.0023000464,6.263,0,0
0.0027617286000000004,-0.005963412,-0.00045882060000000023,0.0006867474000000001,0.0006963744,6.264,0,0
0.0013436246,-0.0006908920000000002,0.0023857713999999998,0.0012681622,-0.0006339956000000001,6.265,0,0
-0.0001560954,0.0009062040000000001,0.0013828954,0.0017533502,-0.0009241914000000001,6.266,0,0
-0.0034972994,0.002075426,0.0017568454,0.0031524860000000004,-0.0020984734,6.267,0,0
-0.0067107954000000004,0.00456635,0.002955372,0.004537554,-0.0030132554000000004,6.268,0,0
-0.0069570026,0.004122884,0.003349704,0.004643474000000001,-0.0017685014000000002,6.269,0,0
-0.006472419199999999,0.001806452,0.003189247,0.004276320000000001,-0.0008747564,6.27,0,0
-0.00567163,0.001269558,0.0027531868,0.0032310220000000005,-0.0015077810000000001,6.271,0,0
-0.0017007640000000004,0.0012077400000000001,0.0009344907999999997,0.000639162,-0.0004981139999999999,6.272,0,0
0.0023928540000000002,4.317800000000005e-05,-0.0010783592000000002,-0.0019704040000000003,0.0008419839999999999,6.273,0,0
0.0032337526000000005,-0.001715822,-0.0011127572,-0.003156682,0.0006979179999999998,6.274,0,0
0.0039669492,-0.003776074000000001,-0.00043482220000000003,-0.003766742,0.0018186169999999998,6.275,0,0
0.005566024,-0.0058318580000000005,0.0003568960000000001,-0.003817854,0.003968427,6.276,0,0
0.0056073,-0.00620369,0.0016568260000000001,-0.0024363060000000005,0.004085114,6.277,0,0
0.004799906,-0.004937226,0.0025620322000000006,-0.0012969817999999998,0.00325716,6.278,0,0
0.00381686,-0.0026748480000000005,0.0016687742000000005,-0.0012705218,0.003515476,6.279,0,0
0.0020263040000000005,0.0009329220000000001,0.00047118019999999993,-0.0009631906,0.0024490162,6.28,0,0
9.965999999999925e-06,0.004082498,0.0002784382,-0.00011156659999999989,0.00021845420000000005,6.281,0,0
-0.001508466,0.0056747080000000005,-6.18026e-05,0.0003721334000000001,-0.00036491979999999995,6.282,0,0
-0.002633662,0.0073034300000000005,0.0003870451999999999,0.0008653672000000001,-0.0008183757999999999,6.283,0,0
-0.004181268,0.008605534000000001,0.0016970092,0.0017732052,-0.0028055918,6.284,0,0
-0.005164414,0.007160514000000001,0.0029068232000000003,0.00212037,-0.0038102599999999998,6.285,0,0
-0.0047440496,0.004621578,0.0036823832,0.0014566599999999998,-0.0029008204,6.286,0,0
-0.0047590136000000005,0.0034575680000000003,0.004659478,0.0007321559999999999,-0.0029872564000000003,6.287,0,0
-0.0046316256000000005,0.001966952,0.0043481679999999995,0.00016497800000000003,-0.0031497284,6.288,0,0
-0.0016968216000000003,-0.00034750220000000014,0.002367832,-0.001147974,-0.0014193464000000003,6.289,0,0
0.0012949684000000002,-0.0006778882000000001,0.0007765159999999997,-0.002055052,-0.0002222364000000001,6.29,0,0
0.0015049884000000002,8.639779999999994e-05,-0.00101863,-0.001828206,3.5675999999999894e-05,6.291,0,0
0.0026058784000000004,-0.0010350462,-0.002986928,-0.002110416,0.001233294,6.292,0,0
0.004455674400000001,-0.0023610102000000003,-0.003801746,-0.00248272,0.0022505480000000002,6.293,0,0
0.0037534404000000004,-0.003229764,-0.0028373314,-0.0015451395999999998,0.0018058972,6.294,0,0
0.0031192304000000003,-0.0054551040000000005,-0.0023327654,-0.0010962078,0.0014963548000000004,6.295,0,0
0.004149858,-0.006719096,-0.0027737634,-0.0013730919999999998,0.0012519192,6.296,0,0
0.0033213110000000004,-0.0054110852000000004,-0.0027062234,-0.00012056999999999997,3.0371200000000025e-05,6.297,0,0
0.000899491,-0.0045157572000000005,-0.0025520373999999998,0.001009112,-0.0010196888000000002,6.298,0,0
-3.470099999999994e-05,-0.0035339796,-0.0024918837999999997,0.0007926672,-0.001589902,6.299,0,0
-0.0012751010000000003,-0.00011495359999999987,-0.0021232791999999997,0.0016109834,-0.0023715876,6.3,0,0
-0.003468731,0.0036626004000000004,-0.0011231000000000001,0.0025972976000000004,-0.00325375,6.301,0,0
-0.003994742,0.0051588216,-0.00010138399999999999,0.0020429232,-0.0034910240000000006,6.302,0,0
-0.0035547,0.0056134016,0.000813114,0.0014444612000000003,-0.003300438,6.303,0,0
-0.0037216460000000003,0.00672122,0.0019438338000000001,0.0014962624000000003,-0.0034699580000000004,6.304,0,0
-0.0035708880000000004,0.006044382,0.0029370052000000004,0.0007182000000000002,-0.0028596268,6.305,0,0
-0.0022482280000000006,0.0028617340000000003,0.004033368,-0.00087978,-0.0012035168000000002,6.306,0,0
-0.000887228,0.0007180680000000002,0.005200122,-0.0013083796,-0.00012003680000000002,6.307,0,0
0.00021587799999999997,-0.00064606,0.004996984,-0.0008333056000000001,0.0009954232000000001,6.308,0,0
0.0022003280000000005,-0.004024547999999999,0.002447632,-0.0007538264000000001,0.0031692912000000004,6.309,0,0
0.004316938000000001,-0.006529908,-0.0009758640000000001,-0.0006464966,0.0043244320000000004,6.31,0,0
0.005015802000000001,-0.005913678,-0.003509896,0.00041130940000000003,0.0034477564000000003,6.311,0,0
0.0053289240000000005,-0.005495592,-0.005955394,0.0011840234000000001,0.0035260503999999995,6.312,0,0
0.005426490000000001,-0.005106578,-0.007280484,0.0014931854,0.0042223024,6.313,0,0
0.0033651180000000007,-0.0026843680000000003,-0.00579013186,0.0021629814,0.0025077804,6.314,0,0
0.000796352,-0.000692228,-0.0031505978600000002,0.0017684399999999998,0.0008069324000000002,6.315,0,0
-0.0003780560000000003,0.00018304600000000002,-0.0013100098599999998,0.0006682300000000001,0.0005779500000000001,6.316,0,0
-0.0020670260000000005,0.0031394960000000003,0.0001952341399999999,0.00022537259999999998,-0.0013962559999999998,6.317,0,0
-0.004352636,0.005931614,0.0019185821400000001,-0.00023865540000000005,-0.004510092,6.318,0,0
-0.004492742,0.004849184,0.00307572,-0.0010007638,-0.004913428,6.319,0,0
-0.003942946,0.003139122000000001,0.004754566,-0.0006592724,-0.004476234000000001,6.32,0,0
-0.004595356,0.001768648,0.006460759999999999,0.00017449985999999998,-0.00489532,6.321,0,0
-0.0034398399999999996,-0.001699936,0.006948342,-0.0005386227400000001,-0.0030885800000000005,6.322,0,0
-0.0006129479999999997,-0.0039335188,0.006439189200000001,-0.00196633674,-0.0006986100000000001,6.323,0,0
0.0009893040000000003,-0.0020355248000000006,0.0047911652,-0.00216094834,0.00011208240000000003,6.324,0,0
0.002438646,0.00016251319999999961,0.00018574519999999938,-0.0024410637400000003,0.0009723644000000001,6.325,0,0
0.004672056,0.0007767572,-0.007380634800000001,-0.003139366,0.0024073744000000005,6.326,0,0
0.00486838,0.0017532755999999999,-0.011871808800000001,-0.0018124540000000002,0.0034976424,6.327,0,0
0.002645962,0.0006680923999999998,-0.011729670000000001,2.8014000000000034e-05,0.0042082384000000006,6.328,0,0
0.0013670499999999999,-0.0046112216,-0.009883026,0.00010814859999999987,0.005025412,6.329,0,0
0.001192046,-0.0090577056,-0.005125106000000001,0.0006799826,0.005199166000000001,6.33,0,0
0.000260252,-0.009868799599999999,0.002541634,0.0023381006000000003,0.0046040464,6.331,0,0
-7.980800000000011e-05,-0.009277694000000001,0.00716524,0.0021194346,0.0034665224000000002,6.332,0,0
0.00113437,-0.004864868,0.0069553598,0.0011673866,0.0019506058,6.333,0,0
0.0005598579999999999,0.005996532,0.0050163898,0.001487589,0.00018078979999999994,6.334,0,0
-0.002129956,0.016946932,0.0012058257999999998,0.0013086318,-0.0015457282000000002,6.335,0,0
-0.00364075,0.022980380000000005,-0.0044010941999999996,-4.444020000000004e-05,-0.0024897786,6.336,0,0
-0.00514787,0.023360584,-0.009004320199999999,-0.0006691302,-0.0035349846,6.337,0,0
-0.007671558,0.015145504000000004,-0.009418286,-0.00034818240600000005,-0.004023102,6.338,0,0
-0.007612564,0.0017750040000000002,-0.006825832,-0.000850933406,-0.002632244,6.339,0,0
-0.004678912,-0.007885016000000002,-0.0027536479999999983,-0.0012123242060000001,-0.00110129,6.34,0,0
-0.0021424899999999995,-0.011510650000000002,0.003408272000000001,-0.000627334206,-0.0003077212,6.341,0,0
0.0010904000000000005,-0.01067229,0.009278632,-0.0005652358060000001,0.0009948448,6.342,0,0
0.0052641680000000005,-0.004215816000000001,0.011456374000000002,-0.0006458354000000001,0.0024338568,6.343,0,0
0.006690436,0.0036377220000000004,0.01127826,0.00021324259999999998,0.001790722,6.344,0,0
0.006104016,0.004976802,0.010161528000000001,0.0005317506000000001,0.001197264,6.345,0,0
0.00578077,-0.0002297839999999998,0.007061972000000001,0.0002550484,0.0022314132,6.346,0,0
0.004058548,-0.006567708,0.004095026000000001,0.00102951,0.0016612657400000004,6.347,0,0
0.0020329796,-0.010388962,0.0016056139999999998,0.0015970978,0.00021739374000000005,6.348,0,0
0.0021883135999999997,-0.011875290000000002,-0.002477172,0.0011705916,0.00032423454000000013,6.349,0,0
0.0015844255999999998,-0.0107536519,-0.00784102,0.0012913206,-0.00015299745999999994,6.35,0,0
-0.0013823724,-0.0071643759000000005,-0.010154944,0.0019290708,-0.00222310746,6.351,0,0
-0.0033720424,-0.0034839679,-0.0074017380000000015,0.001446801,-0.0027237840000000004,6.352,0,0
-0.004104868,-0.0013484945000000002,-0.0033503400000000007,0.0005561370000000001,-0.0020863742000000003,6.353,0,0
-0.005580986000000001,-5.170449999999981e-05,0.0006695439999999993,0.0005014436000000001,-0.0025585542000000003,6.354,0,0
-0.005759600000000001,0.0005611354000000001,0.005250159999999999,0.0001767086000000001,-0.0023557822000000003,6.355,0,0
-0.0029870820000000007,0.0009186132,0.007451398,-0.0011100694000000001,-0.0005671002000000001,6.356,0,0
3.158400000000008e-05,0.0026048772000000003,0.004950008,-0.0016859956,0.0008486798,6.357,0,0
0.0019265340000000001,0.0035543018,0.001090656,-0.0016416196,0.001404428,6.358,0,0
0.0043112540000000005,0.0019329578000000002,-0.001603214,-0.002589786,0.002582938,6.359,0,0
0.0059756160000000004,-0.0010056802000000002,-0.002977552,-0.0027247120000000002,0.0031787079999999997,6.36,0,0
0.005390594,-0.003173954,-0.0026487298,-0.001848054,0.0015348719999999996,6.361,0,0
0.00433182,-0.005594312,-0.002502996,-0.0015862242000000003,2.751800000000003e-05,6.362,0,0
0.0034702080000000007,-0.008813950000000001,-0.002486434,-0.0010033742,-0.00042813199999999996,6.363,0,0
0.0012735160000000004,-0.00909373,-0.0008612239999999998,0.0007778037999999999,-0.001753622,6.364,0,0
-0.001221028,-0.006429696,0.000440758,0.0019622298,-0.002637274,6.365,0,0
-0.0020313500000000003,-0.0028933200000000004,0.00036141700000000005,0.0019295708,-0.0019258480000000002,6.366,0,0
-0.0034485180000000002,0.0022465859999999996,0.0010917192,0.002680781,-0.0026824220000000003,6.367,0,0
-0.00571199,0.008683306,0.0021157072,0.0030050230000000003,-0.004742058,6.368,0,0
-0.006048472000000001,0.01356637,0.0015316210000000002,0.0014455450000000003,-0.004996302000000001,6.369,0,0
-0.005893631999999999,0.016428935999999998,0.0010937304,8.478100000000014e-05,-0.004782784000000001,6.37,0,0
-0.00670979,0.01729384,0.0010887228000000001,-9.536399999999981e-05,-0.005019924000000001,6.371,0,0
-0.004810712000000001,0.014442152000000002,-0.0003764772,-0.001069572,-0.0028272600000000003,6.372,0,0
-0.0002763720000000004,0.010080774000000002,-0.0021925752000000005,-0.002091186,0.0008178579999999998,6.373,0,0
0.0024048100000000003,0.0066332660000000005,-0.002968563,-0.0013265492000000003,0.002989144,6.374,0,0
0.004401468,0.0035857918000000003,-0.0032748604000000007,-0.0010431292,0.004748302,6.375,0,0
0.006716502000000001,0.0009752677999999998,-0.0032859246,-0.0016833892,0.006340656,6.376,0,0
0.006320786,0.0010293258,-0.0023009526,-0.0014185842,0.005931698,6.377,0,0
0.003459374,0.0022910278000000004,-0.0008741126,-0.0009171166,0.004020218,6.378,0,0
0.0015709799999999998,0.0002799237999999999,-0.0004296966,-0.0012658353999999998,0.0028996276000000003,6.379,0,0
0.0002892240000000002,-0.0019153220000000003,-0.0002724,-0.0008655722000000001,0.0020640176000000002,6.38,0,0
-0.001860576,-0.0017303980000000002,0.0005853906000000001,0.0005998238,0.0005729136000000002,6.381,0,0
-0.002200299,-0.0023506240000000004,0.0010593126,0.0010822308,0.00010459680000000011,6.382,0,0
-0.000566705,-0.0041491160000000004,0.0015432586000000002,0.0014343212000000002,0.0005102320000000001,6.383,0,0
-0.0004988730000000002,-0.0042418,0.0028563946,0.0026061692000000003,-0.0006253776,6.384,0,0
-0.0011436430000000002,-0.00423102,0.0034991859999999996,0.003040928,-0.0023164756000000003,6.385,0,0
-3.39656000000001e-05,-0.00649254,0.0028205419,0.0024124412,-0.002162465,6.386,0,0
-0.0006951586000000002,-0.007806998,0.0025967119,0.0022666912,-0.0023232068000000002,6.387,0,0
-0.0027431106,-0.0063455000000000004,0.0022454259,0.0019822992000000004,-0.00277539,6.388,0,0
-0.00045144459999999983,-0.0034802900000000005,0.0006476859,0.00023296320000000005,-0.0007224,6.389,0,0
0.0032941634000000003,-0.00012652600000000007,-0.0002710521,-0.0011248328,0.0014254,6.39,0,0
0.00383042,0.003558948,-0.0007033,-0.0013233616,0.0018538674,6.391,0,0
0.004764620000000001,0.0047321692000000005,-0.00220785,-0.0021093176,0.0028824280000000002,6.392,0,0
0.006673066,0.0033154832000000006,-0.0037691160000000007,-0.0028585816,0.003921542,6.393,0,0
0.0046942074,0.0028307712,-0.0036526060000000005,-0.0019354787999999999,0.0027532998000000006,6.394,0,0
0.0018430002,0.0019974812000000002,-0.0034714620000000002,-0.0011191114,0.001662077,6.395,0,0
0.001185551,-0.0024208528000000005,-0.00338684,-0.0013624898000000002,0.0016113368000000002,6.396,0,0
-0.0012015469999999999,-0.00729812,-0.0016677700000000003,-0.0007872869999999999,0.00013229079999999992,6.397,0,0
-0.003672253,-0.009278504,6.239200000000009e-05,4.728060000000001e-05,-0.0016601812000000002,6.398,0,0
-0.0037834929999999998,-0.011289412000000002,0.000567436,-0.0002049424,-0.002277285,6.399,0,0
-0.0045740778,-0.010864796,0.0009278958,-8.373959999999998e-05,-0.0030008102,6.4,0,0
-0.0063054386,-0.0047051160000000005,0.0016187518000000001,0.0009591864,-0.004440696,6.401,0,0
-0.0062268846,0.0027981239999999995,0.0012480398,0.0012404076,-0.004787838000000001,6.402,0,0
-0.0051719565999999995,0.008641844,0.000517315,0.0012069996,-0.0037909330000000007,6.403,0,0
-0.004905623,0.01421707,0.000805261,0.0019478998,-0.0034242610000000005,6.404,0,0
-0.003729543,0.01768476,0.0008624204,0.0015422136,-0.002412685,6.405,0,0
-0.000958345,0.015602636,0.0001236904,-2.155840000000011e-05,0.0002519089999999998,6.406,0,0
0.001934195,0.009570316000000002,0.0001918724,-0.0007390244,0.002095599,6.407,0,0
0.003640667,0.002002715999999999,0.0007858072000000001,-0.00109931,0.0027491160000000002,6.408,0,0
0.005102448,-0.007050524000000001,0.0004758334,-0.001959664,0.00429176,6.409,0,0
0.006306792,-0.015925424,0.00042500340000000005,-0.002211246,0.005046394000000001,6.41,0,0
0.0054738882,-0.01956994,0.0005978794000000001,-0.0012983116000000001,0.0034645678000000003,6.411,0,0
0.0042691782,-0.017532196,0.00014864740000000002,-0.0009904632,0.0025550044,6.412,0,0
0.004043946200000001,-0.012764868,0.00012026140000000001,-0.0012047012000000004,0.0021759144000000003,6.413,0,0
0.0029658322000000003,-0.0055473480000000006,0.0007874952,-0.0005201872000000001,0.0003466004000000001,6.414,0,0
0.0007988282000000003,0.0013731520000000007,0.001280256,0.0004836148,-0.0010539096,6.415,0,0
-0.00011328399999999995,0.005710970000000001,0.0018640400000000002,0.0007769363999999999,-0.0011138254,6.416,0,0
-0.001341994,0.009299206,0.0027085700000000004,0.0015503960000000001,-0.001572002,6.417,0,0
-0.0045526920000000005,0.010954998000000002,0.002700058,0.0027440500000000005,-0.00233263,6.418,0,0
-0.00606113,0.008409498000000001,0.0013446560000000003,0.0025745340000000003,-0.0017908292000000001,6.419,0,0
-0.005829216,0.004071828,0.000109624,0.0022467626,-0.0010009432,6.42,0,0
-0.006251736000000001,-0.00036171000000000033,-0.0003276762000000001,0.0020017006,-0.0008047456,6.421,0,0
-0.005026942,-0.004679590000000001,-0.0014799242000000002,0.0007381766,0.0003336363999999999,6.422,0,0
-0.0016744739999999998,-0.0064826120000000004,-0.0027535882,-0.0008481274000000002,0.0017358584,6.423,0,0
5.061600000000007e-05,-0.005210234,-0.0027684502,-0.0014101494,0.0020711236,6.424,0,0
0.0013516580000000002,-0.001645212,-0.0028205682000000004,-0.0015616734,0.0023999296,6.425,0,0
0.00440687,0.0026805600000000002,-0.0032326820000000006,-0.0018894936,0.0030352320000000006,6.426,0,0
0.0057582020000000005,0.004109076,-0.0025015136,-0.0010510635999999999,0.0025132416000000005,6.427,0,0
0.005086432000000001,0.002402194,-0.0013978176000000002,3.2772400000000005e-05,0.0012009856,6.428,0,0
0.005309602,0.0005712439999999997,-0.0010867356000000001,9.600400000000044e-06,0.0004254396000000002,6.429,0,0
0.0047200440000000005,-0.0006001260000000002,-0.0007994856000000002,-0.00012601639999999998,-0.0006921324,6.43,0,0
0.0018917040000000001,-0.001906134,-0.00024709300000000004,0.0001500574000000001,-0.0021835424000000003,6.431,0,0
-9.045199999999987e-05,-0.002192794,0.00012150859999999998,-0.00013158060000000003,-0.00277499,6.432,0,0
-0.0009854619999999999,-0.001783682,0.0006864225999999999,-3.111260000000001e-05,-0.002323728,6.433,0,0
-0.0031766240000000003,-0.00159282,0.0016686506,0.0014288534,-0.0017647234,6.434,0,0
-0.0052090520000000005,-0.0009056279999999999,0.0022825554,0.0020559476,-0.0017849694,6.435,0,0
-0.005020744000000001,0.0008829880000000003,0.0024700968,0.0012861780000000002,-0.0017525534000000001,6.436,0,0
-0.005052232,0.005174372,0.0028448148000000005,0.0008356220000000001,-0.0020294634,6.437,0,0
-0.0059882220000000005,0.010385204,0.0027651608000000003,0.00023922400000000004,-0.0025629834,6.438,0,0
-0.004291256,0.013831334,0.0014632668,-0.001696234,-0.0020732320000000004,6.439,0,0
-0.0013397640000000002,0.015225099999999998,0.000434568,-0.002994938,-0.0010218100000000002,6.44,0,0
-0.0001116,0.014397086000000002,-0.000126164,-0.0023822534,-0.00010583440000000009,6.441,0,0
0.0019058480000000001,0.008670666,-0.0017493300000000001,-0.0020951498000000004,0.0010474636,6.442,0,0
0.005053648000000001,-0.000876413999999999,-0.0030068200000000003,-0.0021466038000000002,0.0018524396000000002,6.443,0,0
0.0062897740000000014,-0.008544893999999999,-0.002440367,-0.0009240318000000001,0.0008720776,6.444,0,0
0.0060831340000000005,-0.013838874000000001,-0.002184245,0.0002134902,-0.00011380040000000003,6.445,0,0
0.0061786540000000004,-0.015940430000000002,-0.002957603,0.0004883456,0.00032177999999999986,6.446,0,0
0.004870922000000001,-0.013040720000000002,-0.002638295,0.001194144,-0.00022833000000000003,6.447,0,0
0.0016560400000000005,-0.007492721800000001,-0.001604237,0.001701648,-0.001184564,6.448,0,0
-0.0007024820000000001,-0.0029240162000000007,-0.0009202240000000001,0.0014147606000000001,-0.0005433318000000001,6.449,0,0
-0.002164926,0.0005614058000000001,0.00017488400000000026,0.0018163025999999999,-8.022420000000004e-05,6.45,0,0
-0.003776102,0.0040089358,0.0013006042000000002,0.0025901146000000003,-0.0011020442,6.451,0,0
-0.004844554,0.0053584998,0.0019095082000000002,0.0024447646,-0.0010911334000000001,6.452,0,0
-0.004402756000000001,0.0057846996,0.0026294802,0.002082773,0.00021565060000000005,6.453,0,0
-0.004317958,0.005455904000000001,0.0030847502,0.0023122284,0.00022683399999999998,6.454,0,0
-0.0044640980000000005,0.0006149220000000004,0.0028386142000000002,0.0017771444000000002,0.0005916464000000001,6.455,0,0
-0.0018466519999999998,-0.008093298,0.00301713,-8.052960000000007e-05,0.0023774304,6.456,0,0
0.0013269760000000003,-0.014505792,0.003135044,-0.0011943836,0.0031415595999999997,6.457,0,0
0.0030459620000000006,-0.016945924,0.00165069,-0.001576714,0.0027899636,6.458,0,0
0.004646798000000001,-0.017977186000000003,-0.00024164800000000001,-0.0029704680000000004,0.0032045600000000004,6.459,0,0
0.005874970000000002,-0.014884424000000004,-0.000953896,-0.004032144,0.003540978,6.46,0,0
0.005171188000000001,-0.008150018000000002,-0.0007111299999999999,-0.0032587186000000005,0.0023863972000000002,6.461,0,0
0.004331300000000001,-0.0022819340000000002,-0.0008236580000000001,-0.0027312966000000004,0.0018702342,6.462,0,0
0.004084418,0.00279946,-0.0007524579999999999,-0.0027796426000000008,0.0020483662,6.463,0,0
0.0028516666000000007,0.009226272,0.00041736,-0.0016353892000000004,0.0006515462000000002,6.464,0,0
0.0017221986000000005,0.015987030000000003,0.001048194,-0.0005183512000000003,-0.0012304778,6.465,0,0
0.00046568260000000024,0.021341324000000002,0.0007447436000000001,-0.0001525606000000002,-0.0023306150000000003,6.466,0,0
-0.0020438194000000002,0.0253013,0.0009739056,0.0008459314,-0.004211678,6.467,0,0
-0.005235757400000001,0.02476668,0.0019764176000000005,0.0020401634000000004,-0.0069175,6.468,0,0
-0.0071008320000000005,0.018383746000000003,0.0022155796,0.0018515752000000001,-0.007848704,6.469,0,0
-0.007832962,0.009799686000000002,0.0017697956,0.0014223585999999999,-0.00759941,6.47,0,0
-0.00858993,0.0017692260000000013,0.001350086,0.0020619046,-0.00726107,6.471,0,0
-0.0073147740000000004,-0.00527374,-0.000229026,0.0021937526000000004,-0.004856549999999999,6.472,0,0
-0.00422418,-0.009549010000000002,-0.0027152520000000005,0.0018249626,-0.0010604259999999997,6.473,0,0
-0.0019473720000000002,-0.00949138,-0.003649518,0.0023034994000000002,0.0016847120000000003,6.474,0,0
0.000596026,-0.0067987902,-0.0035475080000000004,0.0023682126,0.0034876300000000002,6.475,0,0
0.0046614740000000005,-0.003910480199999999,-0.003796758,0.0008237726000000002,0.005768826,6.476,0,0
0.0067185940000000005,-0.0018633841999999997,-0.002660372,-0.00012572419999999998,0.007082258,6.477,0,0
0.0060034014,-0.0004230324000000002,-0.0011081536,0.00018635579999999998,0.006462006,6.478,0,0
0.0058893848,-0.0009966784,-0.0013656016,-0.0002461968000000001,0.00647533,6.479,0,0
0.0051368908,-0.0034563082000000005,-0.0015450256,-0.00044570340000000007,0.0068284999999999995,6.48,0,0
0.0016459148,-0.005102214200000002,-0.0006567955999999999,0.0003162546,0.005480984,6.481,0,0
-0.0013274352000000001,-0.0048185402000000006,-0.00045672159999999987,5.794540000000003e-05,0.00332674,6.482,0,0
-0.0020429806,-0.0031371739999999995,-0.0003852314,-0.0007867905999999999,0.0019349920000000002,6.483,0,0
-0.002990154,0.0002841919999999995,0.0004390686000000001,-0.0006353447999999999,-0.00021601600000000008,6.484,0,0
-0.003848616,0.003747336,0.0007590878000000001,-0.0005889348,-0.003017766,6.485,0,0
-0.0024080200000000003,0.0034007200000000003,2.290980000000005e-05,-0.0013077928000000002,-0.003930198,6.486,0,0
-0.0003813699999999999,0.0013595800000000006,-0.0004599262,-0.0015463808000000002,-0.004241646,6.487,0,0
0.0005679354,-0.0011432280000000003,-0.0005628218,-0.0016588948000000002,-0.00440164,6.488,0,0
0.0023508754000000002,-0.004931324,-0.0017481077999999999,-0.002489242,-0.00259335,6.489,0,0
0.0040480934,-0.007086634,-0.002138147,-0.002928918,-0.00042334199999999995,6.49,0,0
0.0034070868,-0.0070123,-0.00039149499999999973,-0.00255545,0.0003274692000000002,6.491,0,0
0.0027546588,-0.006500808,0.0006917630000000003,-0.0021535400000000002,0.0018910292000000003,6.492,0,0
0.0035091514,-0.005142354,0.0005435020000000003,-0.0018832562000000003,0.0037607652,6.493,0,0
0.0021750534,-0.001933056,0.0014969420000000002,-0.0008654561999999998,0.0032873092,6.494,0,0
-0.00010462859999999994,-0.0001288079999999999,0.0028002960000000003,0.0001615758,0.0022445212,6.495,0,0
0.00030391200000000004,0.0003792339999999999,0.0022245800000000003,0.0003282406,0.0021154420000000004,6.496,0,0
4.188020000000002e-05,0.0014280778000000003,0.001958332,0.0009405226,0.000755054,6.497,0,0
-0.0016031217999999997,0.0004117538000000001,0.0029539740000000003,0.0018910168000000002,-0.001065734,6.498,0,0
-0.0015472017999999998,-0.0020074082,0.0029658438000000004,0.0020224608,-0.0014205974,6.499,0,0
-0.0011383437999999998,-0.0030108242,0.0019877424000000004,0.0023662368,-0.0015360614000000002,6.5,0,0
-0.0029933398,-0.0020429722,0.0016894824,0.0032554640000000004,-0.0026188434,6.501,0,0
-0.004016066,-0.001427532,0.0016513084000000003,0.003195112,-0.0030972774,6.502,0,0
-0.0036903540000000003,-0.0009281842000000002,0.0012541444,0.0026195100000000002,-0.0021399234000000003,6.503,0,0
-0.004388334,0.0011901038,0.0016152306,0.0022602240000000003,-0.002487992,6.504,0,0
-0.004336396,0.0042445977999999995,0.0015920266,0.0016736236000000002,-0.0017278880000000001,6.505,0,0
-0.00240665,0.0062914018000000006,0.00035290860000000007,0.00018984160000000004,0.00028529400000000006,6.506,0,0
-0.0006703660000000001,0.0071229838,-0.0009818174000000002,-0.0003139906000000001,0.002236124,6.507,0,0
-0.0009491720000000002,0.009267810000000001,-0.0015086334000000002,-0.000512527,0.0018209792,6.508,0,0
0.0004916899999999999,0.010456786,-0.0036509314000000006,-0.0007086536,-0.0037593468000000005,6.509,0,0
0.0013905839999999998,0.009905226000000001,-0.0054461480000000005,0.0013650747999999998,-0.010126688800000002,6.51,0,0
0.0006148849999999999,0.012671826,-0.0038713220000000004,0.0025980867999999997,-0.014808208800000002,6.511,0,0
-0.001574567,0.015677324,-0.0032153091999999996,0.001565377,-0.017762282800000005,6.512,0,0
-0.006236425,0.013444076,-0.0034739352,0.0006641873999999999,-0.016805314000000002,6.513,0,0
-0.0069660370000000004,0.008139136,-0.0020028292,-0.001214072,-0.0077502940000000005,6.514,0,0
-0.0021790050000000004,-0.0012073640000000007,-0.0010373472000000002,-0.006075312,0.0040966859999999996,6.515,0,0
0.0038786899999999997,-0.015554744000000002,-0.0023816912,-0.00913194,0.013912646,6.516,0,0
0.01208869,-0.027827004,-0.0031470800000000004,-0.009724792000000001,0.021375116,6.517,0,0
0.02471069,-0.033320300000000004,-0.003673272,-0.010464942,0.02500496,6.518,0,0
0.03140488,-0.03299586,-0.0039996219999999996,-0.008724644,0.025404080000000002,6.519,0,0
0.028688940000000003,-0.0258259354,-0.002673926,-0.004092176,0.0218104,6.52,0,0
0.021856002,-0.015025199400000003,-0.0013459619999999998,0.0006721039999999998,0.015981850000000002,6.521,0,0
0.011853721999999997,-0.0050520593999999995,0.0009723120000000001,0.00417145,0.00815757,6.522,0,0
-0.0010809179999999993,0.0056553406,0.004587184000000001,0.008340628,-0.00120549,6.523,0,0
-0.015896498000000002,0.015298700600000001,0.007840638,0.011687130000000002,-0.01070871,6.524,0,0
-0.027354858000000003,0.021166996,0.009723244,0.011860182000000002,-0.01908265,6.525,0,0
-0.03507086,0.02490888,0.010999092000000002,0.010863500000000002,-0.024732660000000004,6.526,0,0
-0.039876760000000004,0.026888260000000008,0.010936656000000003,0.009799840000000002,-0.027011040000000004,6.527,0,0
-0.0380492,0.024465160000000003,0.007785472000000002,0.006753192000000002,-0.024538500000000005,6.528,0,0
-0.029726035199999997,0.019532578000000002,0.003956393999999999,0.0023015940000000006,-0.018214922000000005,6.529,0,0
-0.0191697752,0.014682084000000001,0.0008711959999999998,-0.0010897600000000002,-0.009948341999999999,6.53,0,0
-0.006240415200000001,0.007653128000000003,-0.0028141900000000003,-0.004370178000000001,-0.0003704219999999996,6.531,0,0
0.008579064800000001,-0.0006290519999999989,-0.006232266,-0.007624260000000001,0.009740538,6.532,0,0
0.0196910248,-0.007471192,-0.007084066,-0.008832732000000001,0.017659338,6.533,0,0
0.026650780000000002,-0.015171809999999999,-0.006882854000000001,-0.008548172000000001,0.022206180000000002,6.534,0,0
0.03211196,-0.024696636,-0.0073937280000000005,-0.008139878000000001,0.024704020000000004,6.535,0,0
0.033142620000000005,-0.0296038,-0.006299498,-0.0063028394,0.023447600000000002,6.536,0,0
0.028473380000000003,-0.027527993999999997,-0.003492284,-0.0031005574,0.018149754,6.537,0,0
0.021486444000000004,-0.022419422,-0.0013656500000000002,-0.0006678734,0.011764380000000001,6.538,0,0
0.012455984000000002,-0.013993122000000004,0.000649024,0.0016216626,0.00458132,6.539,0,0
0.0004236240000000009,-0.0017329420000000012,0.003773648,0.004774542600000001,-0.00381346,6.54,0,0
-0.011091156,0.010235978000000001,0.005534602,0.007012464000000001,-0.010806119999999999,6.541,0,0
-0.019546416,0.018481572,0.0054939459999999996,0.00783286,-0.015176994000000003,6.542,0,0
-0.026462740000000002,0.02276292,0.00547555,0.00841031,-0.01837256,6.543,0,0
-0.0298696,0.02344884,0.004171424,0.0077456140000000005,-0.0191789,6.544,0,0
-0.02741718,0.020658288,0.0010897640000000002,0.005090974,-0.016573062,6.545,0,0
-0.021333315999999998,0.014600769999999999,-0.0016884880000000001,0.0022618800000000004,-0.0124118336,6.546,0,0
-0.013543634,0.006326452,-0.003105498,-0.0009236539999999998,-0.007284765599999999,6.547,0,0
-0.0031741139999999996,-0.0028591079999999995,-0.003841428,-0.005097348,-0.0007021255999999994,6.548,0,0
0.007997226,-0.010883108,-0.003967684,-0.00839989,0.0054017344,6.549,0,0
0.015750726,-0.015392296,-0.003316782,-0.01006511,0.009477396400000001,6.55,0,0
0.021187842000000002,-0.017302118,-0.0027816380000000003,-0.010437580000000002,0.012765888000000001,6.551,0,0
0.025349580000000003,-0.01742908,-0.0031708740000000006,-0.009271084,0.014608620000000001,6.552,0,0
0.024422320000000004,-0.01418942,-0.0031266296000000003,-0.0063135034,0.012949998000000002,6.553,0,0
0.019626026,-0.00868221,-0.0024525156000000004,-0.0027386074,0.009565220000000001,6.554,0,0
0.014927674,-0.0038145320000000003,-0.0018693954000000002,0.0004484926000000001,0.005984192000000001,6.555,0,0
0.007301034,0.000756226,0.0002554886000000003,0.0034766446000000003,0.0006591360000000003,6.556,0,0
-0.0034575260000000007,0.006425846000000001,0.0033537466000000005,0.0063633446,-0.005416884,6.557,0,0
-0.011429886,0.012460226000000001,0.0050805342,0.008245424000000001,-0.009227602000000001,6.558,0,0
-0.017175872000000002,0.018386056,0.006386688200000001,0.008636498000000001,-0.011586364000000002,6.559,0,0
-0.0223359,0.024220178000000002,0.008318966,0.008098934,-0.013803036000000001,6.56,0,0
-0.02250468,0.027178320000000002,0.008219546000000001,0.0064104340000000004,-0.013377132,6.561,0,0
-0.016981912000000002,0.026095800000000002,0.005862844000000001,0.003532032000000001,-0.010379316000000001,6.562,0,0
-0.010530764,0.021185261999999996,0.0038763260000000003,0.0006668999999999998,-0.007062832000000001,6.563,0,0
-0.00417827,0.009239582000000003,0.001159556,-0.0019502579999999999,-0.0024422700000000007,6.564,0,0
0.0038823499999999997,-0.007159317999999999,-0.0033683560000000003,-0.004590874,0.00354097,6.565,0,0
0.01094811,-0.020232618,-0.00670687,-0.006160680000000002,0.008237402000000001,6.566,0,0
0.014608942,-0.029384557999999998,-0.008294342000000001,-0.006544930000000002,0.011432646000000001,6.567,0,0
0.017417754,-0.034817379999999995,-0.009978180000000001,-0.006500616000000001,0.014009362000000003,6.568,0,0
0.01969764,-0.031097325999999995,-0.009731514000000002,-0.0051376424000000006,0.014229984000000001,6.569,0,0
0.017998422,-0.020141207999999997,-0.006827028,-0.0022758604000000003,0.011701964,6.57,0,0
0.01324682,-0.008847488,-0.0044141452,3.081759999999992e-05,0.008843176000000001,6.571,0,0
0.007373078,0.002422312,-0.0023775293999999995,0.0018023476000000001,0.005408078,6.572,0,0
-0.002094982,0.010333072,0.00036001459999999996,0.0039797876000000005,0.0001964180000000003,6.573,0,0
-0.012902942,0.010245624,0.0027851886000000003,0.005179712,-0.004805626,6.574,0,0
-0.018882484,0.0065617459999999985,0.0049300026,0.005066296,-0.008180606,6.575,0,0
-0.021419562000000003,0.0036021720000000003,0.0067644438000000005,0.0047385660000000005,-0.011231798000000001,6.576,0,0
-0.022615380000000004,0.0002285439999999998,0.007825072,0.00418575,-0.01352234,6.577,0,0
-0.018159174,-0.0024318214000000004,0.007482690000000001,0.002308024,-0.012431078,6.578,0,0
-0.009984246,-0.0015835654000000002,0.005694078000000001,-9.142399999999967e-05,-0.0092593042,6.579,0,0
-0.004517192000000001,-8.040140000000026e-05,0.002858426,-0.0017520799999999998,-0.0059422242,6.58,0,0
0.0008480879999999994,-0.00036603200000000024,-0.0005196799999999999,-0.0035835679999999996,-0.0015725162000000004,6.581,0,0
0.008430828000000001,-0.0005849160000000002,-0.003508804,-0.00577162,0.0034150438000000003,6.582,0,0
0.013011942000000002,-0.0001511046000000001,-0.0051975219999999996,-0.006608062,0.0067450818,6.583,0,0
0.014955554000000001,-0.00018020060000000003,-0.006134830000000001,-0.00611498,0.008705748000000001,6.584,0,0
0.01710008,-0.0008200686000000002,-0.007010568,-0.005711036000000001,0.010772088,6.585,0,0
0.016282256000000002,-0.0004312059999999999,-0.006045062,-0.003996414,0.010792366000000001,6.586,0,0
0.012345174,0.0013483059999999999,-0.0036841520000000004,-0.0008559660000000003,0.008407919600000001,6.587,0,0
0.009179914,0.0038033800000000007,-0.0018172979999999997,0.0018135920000000002,0.0057906036,6.588,0,0
0.006149072199999999,0.007115714,1.5852000000000335e-05,0.004205136,0.0024669595999999997,6.589,0,0
0.0009607121999999999,0.012183578000000002,0.0024566600000000003,0.0064451460000000006,-0.0021692804,6.59,0,0
-0.0039604038,0.018011740000000002,0.004360844000000001,0.007297976,-0.0061418463999999996,6.591,0,0
-0.0079301018,0.02167538,0.005127736000000001,0.006861818000000001,-0.008431580000000001,6.592,0,0
-0.012920521800000001,0.021727820000000002,0.005581704,0.006431976000000001,-0.009829826,6.593,0,0
-0.01674778,0.018366152000000004,0.005675016,0.005459828000000002,-0.009608882,6.594,0,0
-0.016423028,0.011553012000000001,0.004518273,0.0032575320000000005,-0.007526709800000001,6.595,0,0
-0.013434990999999999,0.00020423200000000037,0.002102023,0.000855726,-0.004910299800000001,6.596,0,0
-0.008753575,-0.014455308,-0.0007030170000000001,-0.0009239060000000001,-0.0019105677999999996,6.597,0,0
-0.001453335,-0.026715268,-0.003456201,-0.002972636,0.0022427742000000004,6.598,0,0
0.005702885,-0.03244748,-0.004988447,-0.0048980000000000004,0.0061972342,6.599,0,0
0.009772813000000002,-0.03261588,-0.004646292,-0.005371624,0.008278462,6.6,0,0
0.012197556000000002,-0.028405884000000003,-0.0033851620000000006,-0.005461166,0.009798932000000002,6.601,0,0
0.013753600000000001,-0.020319915200000004,-0.002214768,-0.005837195999999999,0.010637700000000002,6.602,0,0
0.012230238000000001,-0.0100771972,-0.000518766,-0.005305766,0.008416642200000001,6.603,0,0
0.008516078,-0.0014314651999999999,0.001123202,-0.0036963079999999997,0.0047688722000000005,6.604,0,0
0.005470778000000001,0.0030251688000000002,0.0012859540000000002,-0.0026706642,0.0023405222000000003,6.605,0,0
0.002187586,0.0055331068,0.0018291360000000003,-0.0012500122,-0.0007113577999999998,6.606,0,0
-0.002395718,0.008192358,0.0038724120000000004,0.0013480378000000001,-0.0046992778,6.607,0,0
-0.005493816,0.008734849999999999,0.005363864,0.0026956358000000003,-0.0069126199999999995,6.608,0,0
-0.007375876,0.00721356,0.00561301,0.0030341878,-0.00798336,6.609,0,0
-0.009836036,0.007318428,0.005606388000000001,0.003969094,-0.00965213,6.61,0,0
-0.010638362000000002,0.006675304000000001,0.004434198,0.0042477240000000005,-0.009134878,6.611,0,0
-0.009702926,0.0041967086,0.0020936300000000004,0.0031170186,-0.005753546000000001,6.612,0,0
-0.0084592,0.0055675586,-9.692400000000008e-05,0.0023162276,-0.002784864,6.613,0,0
-0.0057474760000000005,0.0097445566,-0.002616022,0.0012521955999999998,0.0003872939999999994,6.614,0,0
-0.0011271420000000005,0.0120053146,-0.0051637620000000006,-0.0008023743999999999,0.004388392,6.615,0,0
0.0022368999999999996,0.013249464600000002,-0.006197576,-0.0022595564,0.006890596000000001,6.616,0,0
0.004054,0.013048362000000003,-0.0061085440000000005,-0.002908099,0.007315994000000001,6.617,0,0
0.006699714000000001,0.007397742000000002,-0.0057052,-0.003247778,0.007686212,6.618,0,0
0.00900977,-0.0026382180000000008,-0.00453199,-0.002915196,0.007577828000000001,6.619,0,0
0.010026956,-0.010723938000000002,-0.0022678791999999996,-0.0014165760000000001,0.005621830000000001,6.62,0,0
0.010353936000000001,-0.014946358000000003,-0.00039458720000000013,-1.202399999999991e-05,0.0035045780000000004,6.621,0,0
0.009579035999999999,-0.015300818000000002,0.0006364028,0.0006455664000000001,0.0016029159999999998,6.622,0,0
0.006274805999999999,-0.009327758,0.0021723868000000004,0.0016914704000000002,-0.0011994979999999998,6.623,0,0
0.0006416059999999999,-8.607800000000028e-05,0.0036756128,0.0027497164000000003,-0.004120204,6.624,0,0
-0.005228814,0.006532102,0.0042981700000000005,0.0028612284,-0.005541862,6.625,0,0
-0.010623198,0.010648924,0.004795418,0.0027476904000000003,-0.006637096,6.626,0,0
-0.01503885,0.013309822,0.005161458000000001,0.0029796460000000003,-0.007838704,6.627,0,0
-0.015267842,0.012120762,0.003120096,0.0024437012,-0.007342948,6.628,0,0
-0.011693312,0.009042214,-3.126400000000025e-05,0.0012950470000000001,-0.005950444,6.629,0,0
-0.007831674,0.007975292000000002,-0.0015126520000000002,0.000721191,-0.004742086,6.63,0,0
-0.002017393999999999,0.007320936,-0.0026237434,-9.529999999998806e-07,-0.002700992,6.631,0,0
0.005723126,0.004065644,-0.0038029934000000003,-0.0009022489999999999,0.00023139800000000006,6.632,0,0
0.010198408,-0.0008052559999999999,-0.0030639656000000003,-0.0010284387999999998,0.0016154960000000001,6.633,0,0
0.012262318000000001,-0.004211788,-0.0019216236000000001,-0.0012217946000000002,0.0018556365800000002,6.634,0,0
0.01442872,-0.007108892,-0.0025227876000000005,-0.0021551686,0.00297069458,6.635,0,0
0.01331496,-0.010108218,-0.0026016216000000003,-0.001976741,0.00340096458,6.636,0,0
0.009120524000000001,-0.012210366,-0.0021592592000000007,-0.00048751899999999984,0.00303194058,6.637,0,0
0.005223818000000002,-0.013697886,-0.0023558210000000006,-0.0003385215999999999,0.00317378058,6.638,0,0
0.0017718920000000002,-0.013773646000000002,-0.0016481416,-0.0007430275999999999,0.00256491,6.639,0,0
-0.002499062,-0.013184679999999999,9.363239999999993e-05,-8.583160000000007e-05,0.0002488559999999998,6.64,0,0
-0.005954942,-0.012283742,0.0007365977999999999,-0.00013302599999999996,-0.002076706,6.641,0,0
-0.007184616,-0.008945098400000002,0.0006744742,-0.001316281,-0.003439928,6.642,0,0
-0.00859559,-0.0035201424000000005,0.0015961262,-0.0010339698,-0.00431475,6.643,0,0
-0.010596564000000001,0.00043661160000000015,0.0026533788,0.0006736162,-0.0038351128,6.644,0,0
-0.010821,0.0015304146000000003,0.0026061788000000005,0.0009960832,-0.0017548247999999997,6.645,0,0
-0.009396597999999999,0.0018499906000000006,0.0021458891000000003,0.0006462579999999999,-8.71907999999999e-05,6.646,0,0
-0.007184458,0.0028116610000000005,0.0019875493,0.0009156214000000002,0.0008549892000000002,6.647,0,0
-0.002686678,0.0026303050000000003,0.0006954013000000001,-0.0002495946,0.0026463872,6.648,0,0
0.0023094820000000003,7.47870000000002e-05,-0.0010552167000000001,-0.0024684366000000003,0.00423567,6.649,0,0
0.004859754,-0.00140761,-0.0012852133,-0.0027187696000000004,0.004377092000000001,6.65,0,0
0.006752552,-0.001207462,-0.0010182156,-0.0023368804000000005,0.004734678000000001,6.651,0,0
0.00821871,-0.002405769,-0.0011298546,-0.0027510848000000007,0.005721952000000001,6.652,0,0
0.006705558000000001,-0.0024635670000000003,-0.0004715536000000001,-0.0017403808,0.005237212000000001,6.653,0,0
0.004295345200000001,0.0007094050000000003,0.0002090494,-7.904480000000007e-05,0.0038121356000000006,6.654,0,0
0.0039060992,0.004319639,-0.00017944060000000002,6.570719999999999e-05,0.0034682116,6.655,0,0
0.0031066952,0.008596717,-6.39266e-05,0.000469984,0.0024298756,6.656,0,0
0.0005463132000000002,0.013642110000000002,0.0009125574000000001,0.0017398720000000002,-0.0005354364000000002,6.657,0,0
-0.0011442988,0.016975148000000002,0.0011812644,0.0019756820000000003,-0.0024796544,6.658,0,0
-0.00223541,0.01984586,0.0016020634,0.0020567100000000002,-0.0033002400000000003,6.659,0,0
-0.004833986,0.02219786,0.00290496,0.0031342,-0.005307938000000001,6.66,0,0
-0.0066686720000000005,0.018522384,0.0029539320000000003,0.00360725,-0.006126834,6.661,0,0
-0.005822470800000001,0.008718924,0.0015556539999999998,0.0024955942000000004,-0.0045397122,6.662,0,0
-0.004686895200000001,-0.0009305559999999999,0.0004374120000000001,0.0018060902,-0.0034639072000000005,6.663,0,0
-0.0033114696000000002,-0.008507776000000002,-0.0005794640000000001,0.0011746232000000001,-0.0023663432000000004,6.664,0,0
7.035639999999985e-05,-0.014547446,-0.002226694,-0.0007141508,0.00017474480000000006,6.665,0,0
0.0027479164,-0.016654036,-0.0026867939999999997,-0.0016321764,0.0018149828,6.666,0,0
0.0033391572000000002,-0.013008384000000001,-0.0016977499999999998,-0.0009934746,0.0014589989999999999,6.667,0,0
0.004685307600000001,-0.007255420000000001,-0.001104554,-0.0007316794000000001,0.0014242760000000001,6.668,0,0
0.006112262,-0.004041117800000001,-0.001098862,-0.0007587776,0.001544412,6.669,0,0
0.005332536000000001,-0.0030140558,-0.0006317397999999999,0.00023175880000000001,0.0004540404,6.67,0,0
0.00422450218,-0.0037736498,-0.0001725578,0.0004820722,0.00010642820000000002,6.671,0,0
0.00395418418,-0.0066441818,-0.0008574618000000001,-0.0003627978,0.0007750942,6.672,0,0
0.00218556018,-0.0081106558,-0.0008523518,-0.0002592712,0.00036211020000000003,6.673,0,0
-0.00100042582,-0.006123118,0.0001630162,0.000411062,-0.0009608158000000001,6.674,0,0
-0.00290343982,-0.00325653,0.000466304,0.00011976980000000001,-0.0014966342000000002,6.675,0,0
-0.004413778,0.0014001900000000004,0.0009173520000000002,-0.00024122200000000006,-0.001973794,6.676,0,0
-0.007297968,0.00824401,0.0026543060000000004,0.0005378499999999999,-0.0025772420000000004,6.677,0,0
-0.008636238000000001,0.011814400000000001,0.00355898,0.0007408062,-0.0015182340000000003,6.678,0,0
-0.00677058,0.010706032,0.0033611078,0.0002861098,0.00026852599999999994,6.679,0,0
-0.004759542,0.007571670000000001,0.0030722550000000003,0.000595328,0.0008458392000000002,6.68,0,0
-0.002500116,0.0033745700000000008,0.0008072649999999999,0.0006491660000000001,0.0014418152,6.681,0,0
0.0014468140000000003,-0.0008097959999999996,-0.0025235649999999997,-0.0005954600000000001,0.0027451752,6.682,0,0
0.004312756,-0.0025672739999999996,-0.004170167,-0.00146649,0.0022062334000000003,6.683,0,0
0.005123736,-0.0019329639999999997,-0.0048546208,-0.0018233396000000002,0.0010281174,6.684,0,0
0.00587464,-0.0013946699999999995,-0.005642394,-0.0027664940000000004,0.0017355461999999998,6.685,0,0
0.0058624720000000005,-0.0011709,-0.00497772,-0.002751712,0.0020213582,6.686,0,0
0.0037793260000000004,-0.0017684399999999998,-0.0033258380000000002,-0.001236126,0.001138289,6.687,0,0
0.0021999400000000005,-0.005070442,-0.0020601480000000004,-0.00041942599999999987,0.0012973988,6.688,0,0
0.0019716739999999996,-0.008825384,-0.0001338419999999999,-0.0002594479999999998,0.0015328700000000002,6.689,0,0
0.0012047719999999998,-0.0083972576,0.002133696,0.0008525940000000001,0.00038860800000000003,6.69,0,0
0.0007649759999999999,-0.0052300696,0.0034571660000000002,0.0012842080000000002,-0.0003986440000000001,6.691,0,0
0.0012935402000000002,-0.0033629864000000002,0.004258994,0.0004798186000000001,-0.0004674376,6.692,0,0
0.0006479261999999999,-0.0019895924,0.004644632,0.00047988260000000004,-0.0013063056,6.693,0,0
-0.0010925038000000001,-0.0005408604,0.0036725900000000007,0.0011461766,-0.0020940548,6.694,0,0
-0.0013131518000000003,-0.000733643,0.0018186080000000004,0.0011033626,-0.0016522423999999999,6.695,0,0
-0.0011816298,-0.0019834874,0.000927474,0.0010061758,-0.0014644452,6.696,0,0
-0.001786692,-0.0016930348,0.0005359313999999999,0.0012649654,-0.0017531584,6.697,0,0
-0.001014514,-0.00014977679999999996,-0.0006564946000000001,0.0008561864,-0.0010210964000000001,6.698,0,0
0.00036556600000000017,0.0015222612,-0.0012072908,-6.193559999999998e-05,0.00017996960000000005,6.699,0,0
-0.0004846939999999999,0.0045414054,-0.00022869680000000008,-0.0002838948,0.00011830140000000005,6.7,0,0
-0.0017226659999999999,0.0075001718,0.0004784991999999999,-0.0003261096,-0.00048225380000000003,6.701,0,0
-0.0008154443999999998,0.009143720000000001,0.0003455117999999999,-0.0007922438,-0.00028618839999999997,6.702,0,0
-0.0014037144,0.009711134,0.0011105338,-0.0007111958,-0.0010523764,6.703,0,0
-0.0033965283999999995,0.00807009,0.0017873100000000003,-0.0005419018000000001,-0.0025394804000000003,6.704,0,0
-0.002939073,0.0031153900000000004,0.0009873199999999999,-0.0011900366,-0.0024576996000000005,6.705,0,0
-0.0019004730000000002,-0.0025517700000000005,0.0003978094000000001,-0.0015012430000000002,-0.0020602016000000004,6.706,0,0
-0.0018906266000000003,-0.005419378000000001,0.0007538534000000001,-0.000566723,-0.002555747,6.707,0,0
-0.00010618859999999989,-0.006893586,0.00023580139999999997,8.317200000000006e-05,-0.001578903,6.708,0,0
0.0027666234,-0.006456826999999999,-0.0011252586000000003,0.0005081368,0.00011964300000000006,6.709,0,0
0.0031703779999999997,-0.002996710999999999,-0.0013357166000000002,0.0015917128000000002,-5.038599999999989e-05,6.71,0,0
0.002590546,0.0002995210000000001,-0.0018425020000000002,0.0021231228,0.0003704350000000001,6.711,0,0
0.0017113179999999992,-0.0004487949999999999,-0.003335528000000001,0.0012734168000000001,0.002126917,6.712,0,0
-0.0009269880000000003,-0.0026998130000000006,-0.003460328000000001,0.00029619879999999996,0.002802481,6.713,0,0
-0.00298218,-0.002125712000000001,-0.0026529929800000003,-0.00020035799999999998,0.0032774690000000003,6.714,0,0
-0.0022555440000000004,-8.788800000000038e-05,-0.0020094993800000003,-0.001033786,0.004576503,6.715,0,0
-0.00023656800000000037,0.0032823799999999997,-0.00037381137999999993,-0.001321158,0.004806108,6.716,0,0
0.001434232,0.008369706000000001,0.0019154346200000003,-0.0007331660000000002,0.0037301102000000005,6.717,0,0
0.0032689244,0.012717256,0.0031867026200000006,-0.0002827641999999999,0.0029041602000000003,6.718,0,0
0.0049632684,0.014027962000000001,0.0034809836,-0.00023993019999999992,0.0020762862,6.719,0,0
0.0044396744,0.013303162000000002,0.0035420000000000004,0.0001621008000000001,0.0005398721999999999,6.72,0,0
0.0021330143999999996,0.009582742,0.002557442,0.00014518740000000007,-0.00032643779999999995,6.721,0,0
0.0008235523999999999,0.004108282,0.00014309799999999992,-0.0008617866,4.2866000000000074e-05,6.722,0,0
-9.485599999999983e-05,0.0022627320000000004,-0.00170171,-0.0009473949400000001,-0.0002474534,6.723,0,0
-0.0024721960000000003,0.0019383800000000002,-0.001770476,-0.00023997694000000007,-0.0012392174,6.724,0,0
-0.00366013,-0.0006858578000000003,-0.0019025576,-0.00046919294000000015,-0.0009503158,6.725,0,0
-0.003494642,-0.003070277800000001,-0.0018768872,-0.0005339833400000002,-0.0009666818000000001,6.726,0,0
-0.004473456,-0.004671757800000001,-0.00015831119999999992,0.00047393266,-0.0031581878,6.727,0,0
-0.003521433,-0.0098024778,0.0004551468,0.0004023506,-0.0038621864,6.728,0,0
-0.000887629,-0.0157082978,-0.00046210720000000013,-0.00014448420000000002,-0.0024724064,6.729,0,0
-0.0006768229999999999,-0.01795234,-0.0003627736000000001,0.0003142428,-0.002309703692,6.73,0,0
-0.0003890403999999999,-0.01867808,-3.623999999999999e-05,0.00020817900000000001,-0.001951200492,6.731,0,0
0.0020207975999999997,-0.017674620000000002,-0.0006863540000000001,-0.000486459,0.00042656350800000017,6.732,0,0
0.0019896633999999997,-0.01238753,-0.0005404106,-9.01864e-05,0.001224179248,6.733,0,0
0.00026100139999999994,-0.006820028,0.00036494140000000006,0.0002629924,-0.0002424367520000001,6.734,0,0
0.0013446093999999998,-0.004356252000000001,-0.00016943659999999996,-0.0005233056,-0.00023943424000000014,6.735,0,0
0.0018912008000000003,-0.0010294900000000005,-0.0010068426000000002,-0.00043733620000000004,9.65359999999905e-07,6.736,0,0
0.0004919207999999999,0.0025537800000000003,-0.0008589120000000001,0.00019381379999999998,-0.0008122592400000001,6.737,0,0
0.0009576880000000002,0.0029520059999999996,-0.0010920194000000002,-0.0004561902,-0.00019266298,6.738,0,0
0.00174798,0.0027608400000000005,-0.0018343434000000001,-0.0009302522000000002,0.00131145102,6.739,0,0
0.000648416,0.005048464000000001,-0.0014408550000000002,-2.9074199999999987e-05,0.0013787622,6.74,0,0
2.8162000000000033e-05,0.007368582000000001,-0.0008071032000000001,0.000415596,0.00112348,6.741,0,0
-2.554800000000002e-05,0.009287372,-0.0006690632000000002,0.000461664,0.0012152362,6.742,0,0
-0.001073174,0.013489636000000001,0.0004886628000000001,0.001705426,0.0004569175999999999,6.743,0,0
-0.0017674840000000002,0.01745012,0.0019489108000000002,0.0028247520000000003,-0.0004126622,6.744,0,0
-0.0008705620000000001,0.01815118,0.0021028264,0.0024430759999999998,-0.0005833096,6.745,0,0
0.0002519560000000001,0.016385984,0.0022039846,0.0019981547999999997,-0.0007445982,6.746,0,0
0.0005933550800000001,0.013591857599999998,0.002382032,0.0022885748000000005,-0.0011330558,6.747,0,0
0.0010166710800000001,0.009836075599999997,0.0012246440000000002,0.0016536768,-0.0005840411999999998,6.748,0,0
0.0011453410800000001,0.0039626276,-0.000158924,0.0009587136,0.0007546066000000001,6.749,0,0
-0.0003318389199999999,-0.0039799924,-0.0006468000000000001,0.0016145516000000003,0.001233534,6.75,0,0
-0.0018073109200000001,-0.0100886764,-0.0005332280000000001,0.0015672806,0.0010263660000000003,6.751,0,0
-0.0016543182000000002,-0.012340010000000002,-0.0004481,0.00040262260000000004,0.0013779890000000003,6.752,0,0
-0.0017161624,-0.012267840000000002,0.0001229584,-0.0004464054,0.000946683,6.753,0,0
-0.0020211264,-0.009015812000000002,0.0011252124000000001,-0.0015144662,-0.0009397310000000001,6.754,0,0
-0.0009630498,-0.0039405920000000014,0.0012175888,-0.0032771262,-0.000940317,6.755,0,0
-0.00040390519999999994,-0.0009188220000000001,0.0007404121999999999,-0.004086834,0.0004984730000000001,6.756,0,0
-0.001140187,-0.0017910220000000002,0.0007583922,-0.0036650342,0.00026538600000000016,6.757,0,0
-7.768079999999995e-05,-0.007045810000000001,0.00042212220000000005,-0.0033652802,0.00046997740000000014,6.758,0,0
0.0020845232,-0.013225250000000001,-0.0007446198,-0.0029366282000000002,0.0014759014,6.759,0,0
0.0017402525999999998,-0.015084650000000002,-0.0009084562,-0.0014197422000000002,0.00033701140000000004,6.76,0,0
0.001182048,-0.013994568,-0.0006169745999999999,0.0004393138,-0.0005283146000000001,6.761,0,0
0.0025890180000000002,-0.012138923999999999,-0.001125561,0.0006625855999999998,0.00020278739999999998,6.762,0,0
0.002033338,-0.007185406,-0.0009806042,0.0005630015999999998,-0.0010945500000000001,6.763,0,0
1.623e-05,-0.0019028780000000002,-0.00023599499999999997,0.0012659116,-0.002729762,6.764,0,0
0.0008206159999999999,0.0005878860000000004,7.779720000000004e-05,0.0007844011999999999,-0.0020410612,6.765,0,0
0.0016599479999999998,0.0032683940000000004,0.00016836420000000002,0.00024588720000000004,-0.0016524552000000002,6.766,0,0
-0.00019455199999999996,0.006798510000000001,0.00039967379999999997,0.0008126416,-0.0018545632000000005,6.767,0,0
-0.0013096560000000002,0.007949102000000001,0.00014522259999999996,0.0009824678000000002,-0.0005666012000000002,6.768,0,0
-0.001020324,0.0076709180000000005,-0.0007377926,0.0005764136,0.0010127068,6.769,0,0
-0.001900912,0.008373262,-0.0014718508,0.0006973734,0.00088346,6.77,0,0
-0.0018527019999999997,0.008275158000000001,-0.0029928348,0.0002083852,0.00043637106,6.771,0,0
0.00024108400000000013,0.007072796000000001,-0.004627096000000001,-0.0013777428000000002,0.00078514706,6.772,0,0
0.001169146,0.006806098000000001,-0.004733694000000001,-0.0017210090000000001,0.00083684906,6.773,0,0
0.0014398798,0.007174436000000001,-0.0035847260000000003,-0.0013543788,0.0009664090600000001,6.774,0,0
0.0025477818,0.005905364000000001,-0.001119686,-0.0016868002000000003,0.00204239906,6.775,0,0
0.0028232778,0.005708274,0.002411746,-0.0018933700000000001,0.0023868640000000003,6.776,0,0
0.0017159018000000002,0.0076247960000000005,0.005619066,-0.0008851784000000001,0.001124832,6.777,0,0
0.0008727038,0.0059794240000000005,0.007215066,-5.9772399999999956e-05,0.00047084000000000004,6.778,0,0
0.00037576000000000005,0.001767882000000001,0.0066601788,-4.871439999999986e-05,0.00022571079999999995,6.779,0,0
-0.000856438,-0.00038860199999999983,0.0043930428,0.0006939736000000001,-0.0012383992000000001,6.78,0,0
-0.00219478,-0.0023167940000000005,0.0019858453999999997,0.0014531776000000001,-0.0021611152000000004,6.781,0,0
-0.0023187014000000004,-0.005044855399999999,0.00030450359999999996,0.0015819690000000001,-0.0015932176,6.782,0,0
-0.0027520234000000003,-0.004895043399999999,-0.0002598984000000001,0.001841905,-0.0017072376000000001,6.783,0,0
-0.0041110074,-0.0021538226,0.0003829928,0.0022129490000000005,-0.0026776364000000003,6.784,0,0
-0.0035115733999999997,-0.0005700105999999999,0.0009555834400000001,0.0018791760000000002,-0.0021807292000000002,6.785,0,0
-0.0020915333999999997,2.5162200000000028e-05,0.0009411286400000001,0.001497977,-0.0009985792,6.786,0,0
-0.002321288,0.0004659436,0.00057660044,0.0013719034000000002,-0.0009477296,6.787,0,0
-0.002009764,-0.0009865104000000003,-0.00077441556,0.0003398734000000001,6.040240000000001e-05,6.788,0,0
0.00034609600000000016,-0.0037281112000000006,-0.0019099075600000001,-0.0009822846000000001,0.0021400064,6.789,0,0
0.00195217,-0.0051548112000000005,-0.0019121382000000001,-0.0012656100000000001,0.0024287412,6.79,0,0
0.001976482,-0.006330806000000001,-0.0022401120000000003,-0.0013958514000000002,0.0016803240000000002,6.791,0,0
0.0032942440000000004,-0.008085292,-0.0027091140000000003,-0.0019900368,0.0016798248000000002,6.792,0,0
0.00485865,-0.007298780000000001,-0.0022948340000000004,-0.0016296312000000002,0.0009640228000000002,6.793,0,0
0.003555196,-0.004780596000000001,-0.0015657834,-0.0005286652000000001,-0.0006233212,6.794,0,0
0.0018259098,-0.003166332,-0.0015826694,-0.0001452108,-0.0006555158,6.795,0,0
0.0012385404,-0.0005709960000000003,-0.0012464924000000002,0.0002958396,-0.0004519096,6.796,0,0
-0.0008012536000000001,0.00371829,-5.4722400000000023e-05,0.0015007776000000002,-0.0013332556,6.797,0,0
-0.0022312756,0.006892680000000001,0.0006203316,0.0017078996000000001,-0.0013814396000000001,6.798,0,0
-0.0014105278000000002,0.0084772,0.0005518852000000001,0.0010620276,-0.0008857992,6.799,0,0
-0.0017956056000000002,0.010877632,0.0011285152000000001,0.0012628615999999999,-0.0014459126000000001,6.8,0,0
-0.002013303,0.011810744,0.0016897222000000001,0.0014693396,-0.0016360552000000003,6.801,0,0
0.00010921300000000004,0.008647748368,0.0007975462,0.0010360976000000001,-0.00022911520000000007,6.802,0,0
0.0010561569999999998,0.004819056368,0.00044899214,0.001203722,9.58614e-05,6.803,0,0
0.00046831320000000005,0.0018491683679999996,0.00055336494,0.001485902,-0.00015797880000000008,6.804,0,0
0.0014263492000000002,-0.0023164976320000003,-0.00055474906,0.000464234,0.0011535192,6.805,0,0
0.0025539,-0.0057721156320000005,-0.0011914750600000002,-0.0006828060000000001,0.0019523948000000001,6.806,0,0
0.001866602,-0.006207148000000001,-0.0006056236400000002,-0.00104435,0.001458028,6.807,0,0
0.002145166,-0.0052024060000000006,-0.00120635958,-0.0020083360000000003,0.0019953634,6.808,0,0
0.0027899680000000003,-0.003243848,-0.00214521058,-0.0028423220000000004,0.0029445252000000004,6.809,0,0
0.0013852720000000003,-0.0008862259999999999,-0.0016028513000000003,-0.0021147152000000006,0.0019264210000000002,6.81,0,0
0.00011916400000000011,8.07619999999988e-06,-0.0012402039000000001,-0.0015330632000000004,0.0013491496,6.811,0,0
-0.00044042399999999986,-0.0014328018,-0.0016680273200000003,-0.0016663772000000002,0.0020913764000000004,6.812,0,0
-0.002376606,-0.0047565917999999995,-0.0014320193200000001,-0.0006651252000000002,0.0015200652600000002,6.813,0,0
-0.004735364000000001,-0.0090787858,-0.00034415132000000003,0.0010348528,0.00077305166,6.814,0,0
-0.00526038,-0.0125158818,0.00028997339999999993,0.001345794,0.00122143386,6.815,0,0
-0.0049344056,-0.013035814,0.001107182,0.0012487940000000001,0.00087935726,6.816,0,0
-0.0045962600000000004,-0.009277932000000001,0.002518968,0.0017304740000000003,-0.00100032674,6.817,0,0
-0.0029925360000000005,-0.0012163119999999998,0.0036350680000000004,0.0012944156000000001,-0.0023403076,6.818,0,0
0.0002953140000000001,0.006841788,0.003845854,0.00018739160000000006,-0.0025596604,6.819,0,0
0.00198863,0.012620608000000002,0.0033943406,-2.3348399999999995e-05,-0.0030690240000000005,6.82,0,0
0.0014442776,0.014351120000000002,0.0026142078,0.00018941360000000003,-0.0031417320000000004,6.821,0,0
0.002106848,0.008707564000000001,0.0010051938,-0.0002577204,-0.001276054,6.822,0,0
0.0025110640000000004,0.0006229840000000018,-0.0004989222,-0.000392806,0.0007847380000000001,6.823,0,0
0.0008234500000000001,-0.0044430979999999995,-0.0010804648,0.00018538000000000002,0.0013686144000000001,6.824,0,0
0.000688366,-0.00889527,-0.0016184634,0.00024153,0.00234564,6.825,0,0
0.0019615120000000003,-0.011348708,-0.0019110656,0.00039543,0.003411316,6.826,0,0
0.0008377640000000001,-0.007538443800000001,-0.0007936836,0.00100775,0.0025967890000000004,6.827,0,0
0.00034735600000000005,-0.0033762837999999997,-0.00012360039999999994,0.0006382559999999999,0.001852045,6.828,0,0
0.0019257540000000002,-0.0023670554000000004,-0.0005185877999999999,-0.00024033400000000003,0.0015635098,6.829,0,0
0.0014131100000000004,0.0004603306000000001,5.8258200000000065e-05,-0.0003911404,-2.272619999999989e-05,6.83,0,0
8.160000000000112e-06,0.0037179286,0.00014890520000000003,-0.0006867262000000001,-0.0012297222,6.831,0,0
2.0584000000000086e-05,0.0049925484000000004,-0.0007231948,-0.0013072102,-0.0009714170000000001,6.832,0,0
-0.001489094,0.006422614400000001,-0.0004531508,-0.0008059721999999999,-0.0014347229999999997,6.833,0,0
-0.0041847080000000005,0.008622768000000001,0.00046153720000000005,-0.0003563588,-0.0024058257999999997,6.834,0,0
-0.004721266000000001,0.011033694,0.0005739712,-0.0008658184000000001,-0.0020150378,6.835,0,0
-0.004379034,0.01424151,0.0009240712000000001,-0.0010630446,-0.0018362098,6.836,0,0
-0.004371594,0.017234606,0.0019178872000000001,-0.0006694494,-0.002452818,6.837,0,0
-0.002259152000000001,0.018308440000000002,0.0017073400000000003,-0.0007080552,-0.0018084524000000002,6.838,0,0
0.001525648,0.017560754,0.000898252,-0.0013263526,-0.00036590440000000004,6.839,0,0
0.0034266500000000007,0.0136409908,0.0006602316000000002,-0.0008495672,0.00040118360000000004,6.84,0,0
0.004392316,0.006235970800000001,-0.00023936839999999992,-0.0002661752,0.0008358384000000001,6.841,0,0
0.005978856,-0.0053961292000000004,-0.0022195544,-0.0008126384,0.0011970648,6.842,0,0
0.005160196000000001,-0.0181638092,-0.0035897964000000003,-0.0006350186,0.0006130692,6.843,0,0
0.0021697780000000007,-0.024908603200000004,-0.0042469244,0.0005237854000000001,-0.0007589028,6.844,0,0
0.001066862,-0.026802034000000002,-0.005336432,0.0004927114000000001,-0.0015091048,6.845,0,0
0.0007351880000000002,-0.0246257384,-0.005713048000000001,-0.0001628806,-0.0016357650000000002,6.846,0,0
8.628e-06,-0.0141661384,-0.004151926,0.0003447384,-0.0020022534,6.847,0,0
0.0014000360000000003,-0.00047845839999999945,-0.0011547740000000003,0.0008051324,-0.0022459034,6.848,0,0
0.002881114,0.0077520816,0.001920882,0.0009104424,-0.0017699474,6.849,0,0
0.0017594540000000004,0.0141393156,0.004428268,0.0020090370000000004,-0.0017968594000000002,6.85,0,0
-1.6879999999999933e-05,0.018576820000000004,0.00582604,0.0033050550000000003,-0.0023649820000000003,6.851,0,0
-0.002048888,0.012969580000000003,0.005294442,0.0031972958000000004,-0.0017894162000000003,6.852,0,0
-0.005324026000000001,0.001258780000000001,0.0037821010000000004,0.0027357238000000005,-0.0010097740000000004,6.853,0,0
-0.006677812,-0.007932080000000001,0.002320167,0.0024103578000000004,-0.001139966,6.854,0,0
-0.004110042,-0.01488644,0.0007202385999999999,0.0009837537999999998,-0.000406702,6.855,0,0
-0.0007565420000000005,-0.018955364000000002,0.00017376839999999995,-0.00023134419999999999,0.0014371359999999999,6.856,0,0
0.001791192,-0.014381224,0.0007711984,6.302000000000011e-05,0.0022994382,6.857,0,0
0.004727358000000001,-0.004618080000000002,0.00067702464,3.8818000000000955e-06,0.002903768,6.858,0,0
0.006452360000000001,0.00278574,-0.00012065736000000005,-0.0006000002,0.004029478,6.859,0,0
0.004914112400000001,0.00623016,-0.0004237889600000001,-0.0002493714,0.0037955830000000004,6.86,0,0
0.0025526183999999997,0.005524576000000001,-6.525876000000006e-05,-0.00020898939999999995,0.0026481604000000002,6.861,0,0
0.0015943498000000002,0.0007665559999999994,-8.704676000000007e-05,-0.0010538994,0.0023632924,6.862,0,0
3.930380000000003e-05,-0.004334868,-4.301979999999998e-05,-0.0012580992,0.0014928842000000004,6.863,0,0
-0.0021973882,-0.006477106000000001,0.0003061178,-0.0008372948,0.00013878619999999997,6.864,0,0
-0.0024095906000000003,-0.006993232,5.411799999999927e-06,-0.0008989862,-5.567200000000003e-05,6.865,0,0
-0.0022639086,-0.005369538,-0.0008825662000000001,-0.0008783498,-0.0004631834,6.866,0,0
-0.0038345700000000003,-0.0007635399999999992,-0.0010689018,-7.091380000000003e-05,-0.0018294034,6.867,0,0
-0.00508257,0.0045838400000000005,-0.0012385814,0.00022439659999999996,-0.0025065952,6.868,0,0
-0.005387712,0.008520818,-0.0021651709999999996,-0.00014161780000000008,-0.0018101346,6.869,0,0
-0.006430062,0.010489904000000001,-0.0018596149999999998,0.0001892107999999999,-0.0015104794,6.87,0,0
-0.006811368,0.009722268000000001,-0.0013717268,0.0005267075999999999,-0.0012260905999999998,6.871,0,0
-0.004597874,0.007152676,-0.0015489892,-0.0005179304000000001,0.00037025140000000007,6.872,0,0
-0.0018365159999999998,0.0051066454,-0.0008680557999999999,-0.0014112648,0.0019887374,6.873,0,0
0.0009515960000000003,0.0014708414000000002,0.00048178620000000007,-0.0016154848,0.0020817574,6.874,0,0
0.004514146,-0.0026459866,0.0009768112,-0.0030605888,0.0021984414,6.875,0,0
0.006814282,-0.0021468766,0.0010043972,-0.004373946,0.0028011226000000003,6.876,0,0
0.006858118000000001,0.0020037974,0.001282825,-0.0037278930000000004,0.0018571840000000002,6.877,0,0
0.00661432,0.006177888,0.000515401,-0.0027102230000000003,0.0011075012,6.878,0,0
0.00621349,0.011708572,-0.0008147350000000001,-0.0022807802,0.0013557406,6.879,0,0
0.0035320080000000005,0.01810464,-0.0012400240000000002,-0.0008930142000000001,0.0007051825999999999,6.88,0,0
0.0010377300000000002,0.016669830000000004,-0.0010937994,0.0010539298,-0.00037288140000000007,6.881,0,0
0.0009960780000000003,0.006369310000000002,-0.0018324912,0.0014310388,-0.0002723526,6.882,0,0
-0.0005390479999999999,-0.00571193,-0.0022332472,0.0015281408,-0.00039345860000000005,6.883,0,0
-0.004320792,-0.01598111,-0.0016037540000000002,0.002313622,-0.0018971406000000003,6.884,0,0
-0.005536598,-0.022721270000000002,-0.0009955760000000002,0.0023245080000000003,-0.0024519666,6.885,0,0
-0.005074756000000001,-0.023133034,0.00025964719999999985,0.001923692,-0.0018489986,6.886,0,0
-0.0060502279999999995,-0.016655564,0.0021029652,0.00197281,-0.0021846088000000005,6.887,0,0
-0.004592962,-0.009335544000000001,0.0030432712000000002,0.0015948216000000002,-0.0020078254000000005,6.888,0,0
6.715000000000041e-05,-0.0043486,0.0026707040000000003,0.0007486578000000001,0.0002891186000000001,6.889,0,0
0.0031803660000000004,-0.0006156239999999999,0.0022775274000000002,0.0005290090000000001,0.0016763926000000003,6.89,0,0
0.004350444,0.00282233,0.0015797954,0.00031773120000000004,0.0016757902000000002,6.891,0,0
0.0061085060000000005,0.006047180000000001,0.0005720494,0.00010825980000000002,0.0028622822,6.892,0,0
0.006861406,0.01053958,6.559059999999996e-05,0.0010144662,0.0035550736,6.893,0,0
0.004625764,0.015702175999999998,0.0005857665999999999,0.0023566000000000004,0.0023405768,6.894,0,0
0.0024769600000000003,0.01536333,0.0011122772000000001,0.0028168788000000004,0.0017695211999999999,6.895,0,0
0.001236876,0.010194169999999999,0.0010791272,0.0026531290000000006,0.0014179024,6.896,0,0
-0.0019145580000000002,0.00480073,0.0018747732000000002,0.0029780104000000003,-0.00042900360000000005,6.897,0,0
-0.004458406,-0.000734756,0.0016419160000000002,0.0021789210000000003,-0.0020560476000000003,6.898,0,0
-0.0029220319999999998,-0.0050766000000000006,3.775800000000015e-05,0.000285291,-0.0027019688,6.899,0,0
-0.0011905439999999993,-0.003162330000000001,-0.0011245239999999998,-0.0002403369999999999,-0.0038958592000000003,6.9,0,0
-0.0008847024,0.0019620899999999992,-0.0026855179999999996,-0.0004691821999999999,-0.00509504,6.901,0,0
0.0005929268000000002,0.003305248,-0.005053782,-0.0019936222,-0.00445925,6.902,0,0
0.0009209548000000001,0.005180774000000001,-0.005623958,-0.0030527348000000004,-0.0035116198,6.903,0,0
-0.0011918172,0.009701338000000002,-0.004267854000000001,-0.0029664488000000003,-0.0028992748,6.904,0,0
-0.0016467332,0.010906998000000001,-0.002775704,-0.0043155488,-0.0010172788000000002,6.905,0,0
-0.00041071480000000045,0.007965064,-0.0001411439999999993,-0.005537464,0.0011785672000000002,6.906,0,0
-0.0006859760000000001,0.004729526000000002,0.0027140640000000004,-0.004810752,0.0018292532000000002,6.907,0,0
1.2023199999999963e-05,0.0022248260000000022,0.0038689678000000003,-0.004270540000000001,0.002330801,6.908,0,0
0.0021188451999999995,-0.0023164459999999998,0.0036202257999999998,-0.003943518,0.003426302,6.909,0,0
0.0012650431999999998,-0.011065726,0.0030527495999999998,-0.002264746,0.0028617502,6.91,0,0
-0.0012016928000000001,-0.020659932,0.0021485716,-0.0006232100000000002,0.0015323922000000001,6.911,0,0
-0.0014382108000000004,-0.027231952000000004,0.0005677512,-0.0003868030000000001,0.0013554975999999998,6.912,0,0
-0.0016694520000000003,-0.033349032,0.0003029246,0.000675973,0.0011843155999999998,6.913,0,0
-0.002599086,-0.03644226,0.0016452705999999999,0.002354151,0.0007636196,6.914,0,0
-0.0007732939999999999,-0.030494082,0.0016256976,0.003042799,0.0015044834000000002,6.915,0,0
0.0018190819999999999,-0.017619462000000002,0.0006448655999999999,0.003349941,0.0020140974,6.916,0,0
0.0020466359999999997,-0.002149401999999999,0.001225964,0.0039245719999999994,0.0008153940000000001,6.917,0,0
0.0010462479999999998,0.011771018,0.0019810167999999998,0.0035499226,-0.000892288,6.918,0,0
-0.000594174,0.022966238,0.0007196968,0.0019152305999999997,-0.0020260520000000004,6.919,0,0
-0.004077886000000001,0.031635079999999996,-0.00047384599999999977,0.0009271781999999999,-0.003096426,6.92,0,0
-0.007157628000000001,0.03142556,-0.0016822579999999998,0.0003031064,-0.0034121620000000007,6.921,0,0
-0.006781552200000001,0.020992900000000002,-0.004854768000000001,-0.0008756936000000001,-0.0013031080000000007,6.922,0,0
-0.0041084542,0.010754219999999998,-0.007373312000000001,-0.0017568602,0.0008177879999999998,6.923,0,0
-0.0008397182000000002,0.001006584000000001,-0.007793908,-0.0019104022,0.0014638704,6.924,0,0
0.0033201478,-0.011673216,-0.008168484,-0.0023917378,0.0025140304,6.925,0,0
0.0068662178,-0.016342996000000002,-0.007863438000000002,-0.0023897056,0.0032758284000000003,6.926,0,0
0.007069364000000001,-0.010003426000000001,-0.004288818,-0.0007458076000000001,0.0017607923999999999,6.927,0,0
0.006191256,-0.0037434580000000007,-0.00013111400000000032,0.0005354744,0.0005617104,6.928,0,0
0.006057504000000001,-0.0008709620000000003,0.0031577119999999996,0.0009307624,0.0010639500000000001,6.929,0,0
0.00448781,0.003038228,0.007134588,0.0020807044,0.000276362,6.93,0,0
0.002330148,0.007527668000000001,0.010132336,0.00307513,-0.000699222,6.931,0,0
0.0018230760000000003,0.011645098000000001,0.010431036000000001,0.0026632480000000004,-0.000139743,6.932,0,0
-0.0007788840000000001,0.01494407,0.009115174,0.003055352,-0.00034472499999999994,6.933,0,0
-0.006275386,0.015900090000000002,0.0072325,0.00449233,-0.002045305,6.934,0,0
-0.008638495999999999,0.015784964000000002,0.0041601,0.004652454,-0.002578467,6.935,0,0
-0.008347688,0.014219588000000002,0.0010359059999999998,0.0044705560000000005,-0.0020787571999999997,6.936,0,0
-0.009034586,0.008690900000000001,-0.00075293,0.005014704,-0.0024168622,6.937,0,0
-0.006612908,0.0012210400000000005,-0.0020720860000000003,0.004709334,-0.0013962362,6.938,0,0
-0.000490828,-0.002428268,-0.0033012020000000005,0.0034046230000000003,0.0010618198,6.939,0,0
0.0023313780000000003,-0.0004199720000000002,-0.0028425932000000005,0.002608329,0.0024575038,6.94,0,0
0.003157076,0.005603104,-0.0016976576,0.0017140716000000002,0.00330934,6.941,0,0
0.0056329100000000005,0.011477852,-0.0020699795999999998,0.00010021360000000003,0.004706936,6.942,0,0
0.006215172,0.01343307,-0.0026439996,-0.0011056224000000003,0.004900138,6.943,0,0
0.0038776129999999994,0.009017378,-0.0013989756,-0.0016032454,0.0030503400000000003,6.944,0,0
0.0031288450000000003,-0.004757562,-0.0001677263999999997,-0.0024672694000000004,0.001834186,6.945,0,0
0.0042798870000000004,-0.024890662,4.690380000000032e-05,-0.0034900520000000004,0.0006194840000000002,6.946,0,0
0.004023925,-0.042681322,0.0008574972000000001,-0.003908072,-0.00210824,6.947,0,0
0.003576147000000001,-0.0512504,0.0013850772000000003,-0.004843422,-0.004103600000000001,6.948,0,0
0.004112934,-0.04806776,0.00039883320000000014,-0.006038068,-0.004594668,6.949,0,0
0.002636696,-0.03422026,-0.0007604068,-0.0060263140000000005,-0.005710976,6.95,0,0
-0.0009713359999999999,-0.014761640000000003,-0.0015080866,-0.00575711,-0.006969380000000001,6.951,0,0
-0.0024874860000000006,0.00676504,-0.002894832,-0.006318024,-0.00604487,6.952,0,0
-0.0033119620000000003,0.027174060000000003,-0.00325573,-0.006083922,-0.004949982,6.953,0,0
-0.005651216000000001,0.03880786,-0.0029078058,-0.005553202,-0.0047442840000000005,6.954,0,0
-0.005326234000000001,0.03766132,-0.0031450982,-0.00646424,-0.0029136440000000004,6.955,0,0
-0.0018476719999999999,0.028297959999999994,-0.0024110448,-0.006674940000000001,-5.0123999999999915e-05,6.956,0,0
0.0007403980000000002,0.012892740000000003,-0.0007554391999999999,-0.005238812200000001,0.0012045600000000001,6.957,0,0
0.0028363800000000003,-0.0078207,6.724040000000003e-05,-0.0043058842,0.002017408,6.958,0,0
0.005849716,-0.02532044,9.6659e-05,-0.0035847382,0.0033846600000000003,6.959,0,0
0.0067343554,-0.032484120000000005,0.00014355380000000001,-0.0016287702,0.00322294,6.96,0,0
0.0041063414000000005,-0.029619426,0.00016047080000000002,-4.1840199999999925e-05,0.0022131122000000002,6.961,0,0
0.0012617874000000002,-0.019435525999999998,7.001079999999999e-05,0.0008440780000000001,0.0024535682000000002,6.962,0,0
-0.0014194926,-0.0042271459999999985,9.335959999999999e-05,0.0031775780000000003,0.0029171862000000005,6.963,0,0
-0.0051765826,0.009980094000000002,0.0006079028,0.006714794000000001,0.0024077192000000005,6.964,0,0
-0.007377260000000002,0.018099834000000002,0.0007039556,0.009909458000000001,0.0020658500000000006,6.965,0,0
-0.008481386000000002,0.020644959999999997,0.0006617788000000001,0.012920430000000002,0.002064523,6.966,0,0
-0.011255092000000001,0.021322740000000003,0.0012649192,0.016038418000000002,0.001131157,6.967,0,0
-0.012538720000000001,0.020781320000000002,0.0019059228,0.01710116,-0.00034098300000000005,6.968,0,0
-0.010143220000000001,0.01934446,0.0021384908,0.015390664,-0.0006457468,6.969,0,0
-0.008117471400000003,0.021241460000000004,0.0029355096,0.013552906000000002,-0.0005064376,6.97,0,0
-0.005310703400000001,0.022343840000000004,0.0037668780000000004,0.011797384000000001,-0.00022538280000000005,6.971,0,0
0.0010564765999999995,0.017490722000000004,0.0030849420000000002,0.008574472,0.0015874792000000002,6.972,0,0
0.0062499766,0.0069597420000000005,0.0022341556,0.005614581400000001,0.0035815772000000004,6.973,0,0
0.0079019846,-0.008792258,0.0021040216000000004,0.0039281736,0.004704344000000001,6.974,0,0
0.009727478000000001,-0.026603418,0.0014632414,0.0007703836000000006,0.005755346000000001,6.975,0,0
0.01192837,-0.037520878,0.00027453339999999996,-0.0036370144,0.005673518000000001,6.976,0,0
0.011412910000000002,-0.038371458,-9.850659999999987e-05,-0.0072853624,0.0032196380000000004,6.977,0,0
0.010338632,-0.033268582,-0.0008503122000000001,-0.0109518918,0.0006868200000000002,6.978,0,0
0.011092044,-0.018629222,-0.0027245302000000002,-0.015109948,-0.0011603539999999997,6.979,0,0
0.009249763,0.003760238000000001,-0.0031584580000000003,-0.01816714,-0.004074342,6.98,0,0
0.003099663,0.022009318,-0.0023164220000000003,-0.01931388,-0.0065461519999999995,6.981,0,0
-0.0016218570000000004,0.031190896000000003,-0.002600116,-0.019251080000000004,-0.007082786,6.982,0,0
-0.004714019000000001,0.035154500000000005,-0.0026823780000000005,-0.017364284,-0.007240188000000001,6.983,0,0
-0.007928809,0.03368179400000001,-0.0010771840000000001,-0.0131809156,-0.00765529,6.984,0,0
-0.007258828000000001,0.023059088000000002,-0.00024899999999999987,-0.0079145276,-0.006900238,6.985,0,0
-0.003509262000000001,0.006534168,-0.0010197399999999999,-0.0029605376000000003,-0.005161398,6.986,0,0
-0.001814758,-0.010038391999999998,-0.0009283599999999999,0.0015303424000000002,-0.004277922,6.987,0,0
-0.001273162,-0.022551971999999997,-0.0008432240000000001,0.0050678744,-0.0030752886000000004,6.988,0,0
0.00015480400000000003,-0.028608085999999998,-0.0024772200000000005,0.006782438,-0.0003569725999999999,6.989,0,0
-0.00011018599999999996,-0.027484619999999998,-0.0041902860000000005,0.007629922,0.0017977834000000002,6.99,0,0
-0.001065102,-0.020326912000000003,-0.004885510000000001,0.008682632,0.0031857594,6.991,0,0
0.00013298599999999998,-0.011209127,-0.003977884000000001,0.00882923,0.0052392934,6.992,0,0
0.001419392,-0.002919797,-0.0008881820000000004,0.008049122,0.006545244,6.993,0,0
0.0006918339999999999,0.003483963,0.0027503480000000005,0.0077911560000000005,0.005887038,6.994,0,0
0.000642522,0.0070526830000000006,0.004764672,0.0067281139999999994,0.00565225,6.995,0,0
0.0011221262,0.008846835,0.006104228,0.004195317999999999,0.0053137440000000005,6.996,0,0
-0.0010415338000000001,0.01081281,0.006993672,0.0018644439999999994,0.002965006,6.997,0,0
-0.0028463698000000003,0.011525960800000002,0.006093806,-0.0007407740000000002,0.0008209620000000001,6.998,0,0
-0.0022194238000000006,0.008701886800000001,0.004781942,-0.0044757,-0.0006176500000000002,6.999,0,0
-0.0027052818,0.0054230827999999995,0.00430668,-0.00769415,-0.0030783320000000005,7.0,0,0
-0.0032063880000000006,0.0026521488000000003,0.003613122,-0.010697854,-0.005520872,7.001,0,0
-0.0005908679999999998,-0.0010317972,0.0016675599999999998,-0.014125178,-0.006098280000000001,7.002,0,0
0.0014612020000000002,-0.002689172,-0.0005740400000000002,-0.01603342,-0.006445014000000001,7.003,0,0
0.0011724830000000002,-0.0009135319999999997,-0.002076194,-0.016201240000000002,-0.00687956,7.004,0,0
0.0018458570000000002,-0.00031807399999999957,-0.0031181120000000006,-0.015485460000000001,-0.004860886,7.005,0,0
0.003264459,-0.002233444,-0.003858638,-0.0121489546,-0.0013510039999999998,7.006,0,0
0.002932331,-0.001012186,-0.0036449540000000006,-0.005953674599999998,0.0014837580000000004,7.007,0,0
0.0022505,0.001969172,-0.0028639880000000005,0.0005497653999999995,0.004367010000000001,7.008,0,0
0.002960611,0.002891746,-0.0024929992000000006,0.0070902654,0.007641528000000002,7.009,0,0
0.0025830088,0.003864252,-0.0016147026000000002,0.0138404854,0.009021976000000001,7.01,0,0
0.0001782607999999998,0.0035877819999999994,-0.0005802019799999999,0.019290500000000002,0.008936782,7.011,0,0
-0.0016911892000000001,-0.0008035700000000008,-0.00101755598,0.02295672,0.009615710000000001,7.012,0,0
-0.003964014200000001,-0.008646974000000002,-0.0014255319800000003,0.026335420000000005,0.009433616,7.013,0,0
-0.0077043302000000015,-0.018280654,-0.0008839527800000002,0.029091060000000002,0.008228788,7.014,0,0
-0.008600006,-0.022440574,-0.0010553353800000001,0.029015360000000004,0.007533778000000001,7.015,0,0
-0.006494388000000001,-0.01467746,-0.0009544064,0.025422404,0.006486862,7.016,0,0
-0.0049919000000000005,-0.002483799999999998,0.0013371676,0.019635898200000005,0.004089379200000001,7.017,0,0
-0.0021324219999999997,0.00808472,0.0037389296000000004,0.011054538200000002,0.0011658792000000002,7.018,0,0
0.0025646500000000003,0.016923028,0.0040955876000000006,-0.0007746818000000013,-0.0019153928,7.019,0,0
0.004140382000000001,0.017893954000000004,0.004737025600000001,-0.012359881800000003,-0.0067467368,7.02,0,0
0.0033297836000000004,0.010605216,0.005344048,-0.022229105800000003,-0.012240478800000001,7.021,0,0
0.003665815600000001,0.0026147579999999996,0.0035670840000000003,-0.03154428,-0.015740476000000003,7.022,0,0
0.0030001774000000007,-0.001107872,0.0012358840000000002,-0.0393926,-0.017631840000000003,7.023,0,0
0.0012453517999999998,0.0006016799999999994,-0.00045632800000000015,-0.04175062000000001,-0.018148440000000002,7.024,0,0
0.0022897958,0.004233374,-0.002737016,-0.03688126,-0.014636294,7.025,0,0
0.0054912742,0.008940392,-0.005689394,-0.024637759999999998,-0.007986804,7.026,0,0
0.0059640282,0.01710541,-0.007321128000000001,-0.005770339999999997,-0.0019682840000000003,7.027,0,0
0.0035696483999999996,0.0227374,-0.0069088322,0.01558934,0.004050156,7.028,0,0
0.0006591819999999999,0.020860638,-0.0055338722,0.03517408,0.010049956,7.029,0,0
-0.0032393920000000002,0.014600518000000002,-0.0042477042,0.04972034,0.01301131,7.03,0,0
-0.0078225,0.0011180179999999984,-0.0027344702000000006,0.057280920000000006,0.013686180000000001,7.031,0,0
-0.010508352000000002,-0.021729142,-0.0012716602,0.05787106,0.01459272,7.032,0,0
-0.010663392,-0.045617302,-0.0009685800000000004,0.05508632000000001,0.015094980000000001,7.033,0,0
-0.011501192,-0.06362298000000001,-0.00046640600000000026,0.050704620000000006,0.01478234,7.034,0,0
-0.013028092000000002,-0.0723204,0.0010499799999999998,0.04333816000000001,0.015326900000000001,7.035,0,0
-0.013502984000000003,-0.06994212,0.003222938,0.03190346000000001,0.01620194,7.036,0,0
-0.012836170000000003,-0.056649832000000004,0.005726336,0.01716646,0.01429029,7.037,0,0
-0.008748394000000001,-0.03464355200000001,0.00680153,0.00010976000000000041,0.009313078,7.038,0,0
-0.00035801400000000025,-0.010095851999999999,0.005881325000000001,-0.020610640000000003,0.0030525380000000005,7.039,0,0
0.008122286,0.014701088000000001,0.0046636232,-0.04304372000000001,-0.005390062,7.04,0,0
0.014379626000000001,0.039282228,0.0031465166,-0.06374070000000001,-0.016052042000000002,7.041,0,0
0.020477376000000002,0.05890398000000001,0.0005803446,-0.08021238,-0.024284092,7.042,0,0
0.023621620000000003,0.06980392,-0.0013895794,-0.08950288,-0.028151100000000002,7.043,0,0
0.02114718,0.06960078,-0.0015802814000000001,-0.08978546,-0.03023498,7.044,0,0
0.018278774,0.05899285000000001,-0.0019663436,-0.08256028000000001,-0.029339280000000002,7.045,0,0
0.016557874,0.044837230000000006,-0.002652443,-0.06941006,-0.024964,7.046,0,0
0.012654554,0.028857086,-0.001469011,-0.05184078000000001,-0.02076836,7.047,0,0
0.008558814,0.012862702,-0.00022771899999999982,-0.035064328,-0.016750684000000002,7.048,0,0
0.0065735764,0.006536562,-0.0008325680000000001,-0.021426868,-0.011931025999999999,7.049,0,0
0.0032737484,0.006730056000000001,-0.001277712,-0.008630548,-0.008472486000000001,7.05,0,0
-0.0018714515999999997,0.0049521719999999995,-0.0006754990000000002,0.003984352,-0.0060062200000000005,7.051,0,0
-0.005855411600000001,0.003867914,-0.0006413330000000001,0.015253552,-0.0021573240000000004,7.052,0,0
-0.0093657116,0.0034282199999999996,-0.000642249,0.02685142,0.00218578,7.053,0,0
-0.012166394,0.00023973599999999994,0.00036690700000000003,0.039436519999999996,0.006730922,7.054,0,0
-0.011605309999999999,-0.002976218,0.0012370238000000001,0.050008779999999996,0.013336522,7.055,0,0
-0.009276160000000002,-0.0053895060000000005,0.0013904248000000002,0.0575815,0.020222316,7.056,0,0
-0.008878800000000001,-0.009908684000000001,0.0012776308,0.061764780000000005,0.024270840000000002,7.057,0,0
-0.0071486480000000005,-0.015964486,0.0007333598,0.06082812,0.026437380000000003,7.058,0,0
-0.002315328,-0.020413342,-0.00030678819999999996,0.05493352,0.02719102,7.059,0,0
-0.0005649500000000002,-0.022480272000000003,-0.00035757159999999993,0.04656714,0.02439322,7.06,0,0
-0.0020401060000000003,-0.02414956,-0.00013506759999999993,0.036729239999999996,0.019565014,7.061,0,0
-0.0015614639999999996,-0.0240592,-0.0006783512,0.025007835999999995,0.015863666,7.062,0,0
-0.001400588,-0.02001076,0.0002945157999999999,0.012854975999999999,0.011548248,7.063,0,0
-0.005496668,-0.017437019999999998,0.0029542298000000003,0.0010589759999999988,0.004926062000000001,7.064,0,0
-0.008435668,-0.020139200000000003,0.0039179324,-0.011310504,-0.0017666979999999997,7.065,0,0
-0.006357792000000001,-0.021889739999999998,0.0029203564,-0.025069644000000002,-0.008211652,7.066,0,0
-0.003339806,-0.019243776,0.002471646,-0.03849482,-0.015877784000000002,7.067,0,0
0.0010758060000000003,-0.015924856,0.0019112640000000002,-0.049775820000000005,-0.022983266000000002,7.068,0,0
0.010085666,-0.013238584000000001,-7.68318000000001e-05,-0.05807944,-0.02628654,7.069,0,0
0.018291518,-0.006378928,-0.0013475718,-0.0610075,-0.0261844,7.07,0,0
0.021761588000000002,0.0028594320000000007,-0.00035328180000000005,-0.0573297,-0.023221734,7.071,0,0
0.024372920000000003,0.007751288,-0.0004939578,-0.046709980000000005,-0.016164322000000005,7.072,0,0
0.02467498,0.011028188000000001,-0.0019951838000000005,-0.028158880000000004,-0.006057622,7.073,0,0
0.0202305,0.015263976,-0.00211506,-0.002767780000000001,0.004514518,7.074,0,0
0.015607788000000001,0.01678504,-0.0022400360000000004,0.02395994,0.014575978,7.075,0,0
0.0117382792,0.01659762,-0.0029224540000000005,0.04980724,0.023655252,7.076,0,0
0.0046032391999999995,0.01862072,-0.0020857008000000005,0.07407334,0.0294444,7.077,0,0
-0.005609100800000002,0.01903668,-0.0009869034,0.09166416000000001,0.03214178,7.078,0,0
-0.0164218208,0.017567486,-0.0018455974000000002,0.10046292,0.03328802,7.079,0,0
-0.0286723288,0.018641426,-0.0024017354,0.10300738000000001,0.03209282,7.08,0,0
-0.0422535,0.017663226,-0.0025311573999999997,0.10015322,0.02872574,7.081,0,0
-0.05272892,0.011592868,-0.0034694685999999996,0.08968176,0.024009220000000005,7.082,0,0
-0.058771140000000006,0.005563248,-0.004089257999999999,0.07300768000000002,0.016906462,7.083,0,0
-0.06347058,0.0022961839999999997,-0.003463994,0.0520434548,0.007875662,7.084,0,0
-0.06498168000000001,-0.0033151360000000006,-0.0023085148,0.0259124348,-0.00024111800000000023,7.085,0,0
-0.06047382000000001,-0.013233896,-0.0013961148,-0.004974125199999997,-0.007849478,7.086,0,0
-0.05317646000000001,-0.021628818,-0.00030030280000000007,-0.036755265200000005,-0.015687898000000002,7.087,0,0
-0.042673644000000004,-0.025715338,0.00031260340000000003,-0.0660689852,-0.021670500000000002,7.088,0,0
-0.025604204000000005,-0.02828786,-0.0004122046000000002,-0.09315096,-0.02717734,7.089,0,0
-0.004268944000000004,-0.027989524000000002,-0.0020717118000000002,-0.11422602000000001,-0.03428524,7.09,0,0
0.016539596,-0.022176104000000002,-0.0018328378000000002,-0.1259932,-0.0405801,7.091,0,0
0.035014676,-0.016386604,0.00040115820000000005,-0.1305056,-0.0430648,7.092,0,0
0.05068308,-0.010900536,0.0035887680000000004,-0.1286024,-0.04270064,7.093,0,0
0.06148312,-0.003984576,0.010267062,-0.11880550000000001,-0.040623440000000004,7.094,0,0
0.0683029,0.00015970800000000016,0.018652852,-0.10269014000000001,-0.03539728,7.095,0,0
0.07412388,0.005548427999999999,0.02425336,-0.08284188,-0.027721020000000002,7.096,0,0
0.07752998,0.016514288000000002,0.0262866,-0.05814352600000001,-0.019623472000000003,7.097,0,0
0.07569416,0.026230660000000003,0.024432794000000004,-0.030773226000000004,-0.011347767999999998,7.098,0,0
0.07010580000000001,0.03179694,0.017274616,-0.004107325999999996,-0.002008988,7.099,0,0
0.06023506000000001,0.03901754,0.006839316,0.022271994,0.007327852,7.1,0,0
0.046591280000000006,0.04695752,-0.0037628040000000007,0.048514414000000006,0.016053432,7.101,0,0
0.03370386,0.04457850000000001,-0.012430684000000001,0.07295086,0.025000684000000002,7.102,0,0
0.020963352,0.03146940000000001,-0.014180496000000003,0.09458696000000001,0.03370512,7.103,0,0
0.007205452,0.018872820000000005,-0.010027098,0.11235556000000001,0.04099838,7.104,0,0
-0.005035508,0.005740720000000001,-0.008425238,0.12249048,0.04631902,7.105,0,0
-0.015601107999999999,-0.011890379999999999,-0.010985717999999998,0.12247184,0.04861070000000001,7.106,0,0
-0.026321668,-0.026995,-0.016542998000000003,0.11312022000000001,0.04672212,7.107,0,0
-0.035255220000000004,-0.03617012,-0.028489140000000003,0.0966915,0.04226096,7.108,0,0
-0.039749320000000005,-0.04122672,-0.043302980000000005,0.07595418,0.03659760000000001,7.109,0,0
-0.040337380000000006,-0.03980906,-0.051698959999999995,0.053654740000000006,0.029015540000000003,7.11,0,0
-0.03924086,-0.03337537,-0.0512837,0.031193380000000003,0.019918890000000005,7.111,0,0
-0.036195120000000004,-0.021325849999999997,-0.04557796000000001,0.007268739999999999,0.011502660000000001,7.112,0,0
-0.0301253,-0.001602029999999999,-0.0364183,-0.01865452,0.001972919999999999,7.113,0,0
-0.023212800000000002,0.01381943,-0.023729624000000005,-0.043192400000000006,-0.009935900000000001,7.114,0,0
-0.015570226000000001,0.01228759,-0.009441664000000002,-0.06317274,-0.020784320000000002,7.115,0,0
-0.0067233860000000005,-0.0004933000000000003,0.004754296,-0.07755428,-0.03015921,7.116,0,0
0.0006778540000000007,-0.010953780000000002,0.021901276,-0.0851787,-0.04041142,7.117,0,0
0.006101904000000001,-0.019055868,0.041439516,-0.08582794,-0.048592960000000004,7.118,0,0
0.009139016000000002,-0.02506210828,0.05539828000000001,-0.08129120000000001,-0.04990502000000001,7.119,0,0
0.007663782000000001,-0.019970868279999998,0.06506396,-0.07266788000000002,-0.04692840000000001,7.12,0,0
0.004659493999999999,-0.00479160828,0.07023834000000001,-0.06071120000000001,-0.04144098000000001,7.121,0,0
0.004474434,0.00807029172,0.06361858000000001,-0.04660884000000001,-0.03110344800000001,7.122,0,0
0.005007144,0.013964679720000001,0.050653220000000006,-0.03038383,-0.018331404,7.123,0,0
0.004618102000000001,0.01686882,0.036601428,-0.013211030000000002,-0.008099964000000001,7.124,0,0
0.006220948000000001,0.01901496,0.019285308,0.001220810000000001,0.0003383759999999996,7.125,0,0
0.007093768000000001,0.02010536,0.004062008000000001,0.01191637,0.008422776,7.126,0,0
0.002116728,0.01827972,-0.004243592000000001,0.020956550000000004,0.013282624,7.127,0,0
-0.005456792,0.015436716,-0.012685752000000002,0.026817760000000003,0.015219959999999998,7.128,0,0
-0.011216222000000001,0.01337766,-0.020548340000000002,0.028922,0.01682186,7.129,0,0
-0.017273288,0.0099943544,-0.022664919999999998,0.029585820000000002,0.01661102,7.13,0,0
-0.02356586,0.0043933264,-0.02599116,0.028310060000000005,0.013987280000000001,7.131,0,0
-0.026307960000000002,-0.0010234136000000006,-0.03058624,0.024863839999999998,0.011743496000000003,7.132,0,0
-0.026495340000000003,-0.0042389696,-0.028831580000000002,0.020945580000000002,0.009146964,7.133,0,0
-0.026955640000000003,-0.006875015600000001,-0.021121424200000002,0.016788284,0.00518576,7.134,0,0
-0.0279157,-0.00927831,-0.011667264200000005,0.012220466000000003,0.0028630600000000006,7.135,0,0
-0.027640620000000005,-0.009858727999999999,0.0007116957999999986,0.0084391572,0.002812946,7.136,0,0
-0.02615258,-0.0077088628,0.0148093358,0.005040245200000001,0.002141978,7.137,0,0
-0.023710740000000004,-0.006750472800000001,0.0241159358,0.00042418519999999973,0.00183883,7.138,0,0
-0.016999498000000002,-0.0092837308,0.02656696,-0.005416818800000001,0.0029178840000000004,7.139,0,0
-0.005855598,-0.0114555908,0.022748640000000004,-0.010978120800000001,0.00179993,7.14,0,0
0.005980862,-0.013001564799999999,0.014648518000000003,-0.015748712,-0.0011743320000000002,7.141,0,0
0.018362181999999998,-0.015349090000000001,0.005714524,-0.02028756,-0.003055136,7.142,0,0
0.030252502,-0.015711614,-0.0010714779999999994,-0.022377519999999998,-0.0046965259999999995,7.143,0,0
0.03640608,-0.010889785999999999,-0.004784022,-0.02103048,-0.007430061999999999,7.144,0,0
0.037093259999999996,-0.003475165999999999,-0.006503306,-0.01894772,-0.008691368,7.145,0,0
0.035538219999999995,0.004181234000000001,-0.008518343999999999,-0.016239656,-0.008348907999999999,7.146,0,0
0.031206339999999996,0.013085614,-0.01265183,-0.010970942000000001,-0.009036151999999999,7.147,0,0
0.025123060000000003,0.022534348000000003,-0.018354408000000003,-0.0038713620000000006,-0.008646456,7.148,0,0
0.019343236,0.029578200000000002,-0.023221164000000002,0.005089278000000001,-0.005261562000000001,7.149,0,0
0.01235758,0.031002560000000005,-0.024203480000000003,0.018386898000000002,-0.00031948200000000027,7.15,0,0
0.004610499999999998,0.026878550000000005,-0.021456556,0.034282734,0.005891274,7.151,0,0
-0.0002561159999999997,0.018601840000000005,-0.01747852,0.050886379999999995,0.014562454,7.152,0,0
-0.0036237620000000004,0.0078092000000000005,-0.012247578,0.06945788,0.023457868,7.153,0,0
-0.006628314,-0.0026079999999999996,-0.006068351400000001,0.08652432,0.029900799999999998,7.154,0,0
-0.006394436000000001,-0.01057622,-0.004081387400000001,0.09672566,0.03521174,7.155,0,0
-0.0046434580000000005,-0.013054129999999999,-0.007208111400000001,0.10018706000000001,0.03873940000000001,7.156,0,0
-0.004611698000000001,-0.008077919999999999,-0.011916327400000001,0.09601536000000001,0.03882178000000001,7.157,0,0
-0.005234346000000001,0.00027132000000000024,-0.0198711494,0.08092046000000001,0.03708656,7.158,0,0
-0.006311530000000001,0.006636080000000001,-0.026295676,0.057510906,0.034892820000000005,7.159,0,0
-0.008610972,0.010762276000000001,-0.0204628,0.030011145999999995,0.030680200000000005,7.16,0,0
-0.01001051,0.011503349999999999,-0.003906099999999999,0.0008459660000000001,0.023970226,7.161,0,0
-0.009330643999999999,0.00566229,0.018382580000000003,-0.028039774000000003,0.016466108,7.162,0,0
-0.006567957999999999,-0.0026862299999999995,0.045536820000000006,-0.054189314,0.007441428,7.163,0,0
-0.0011193779999999999,-0.00930265,0.06889577999999999,-0.07552696,-0.005349652000000002,7.164,0,0
0.006021502,-0.013950826,0.07835632,-0.0912426,-0.021123072000000003,7.165,0,0
0.012064762,-0.016990119999999997,0.07501724000000001,-0.0985616,-0.03521923800000001,7.166,0,0
0.014583771999999998,-0.01888798,0.06224768000000001,-0.09625568000000001,-0.046136460000000004,7.167,0,0
0.01462591,-0.02071378,0.04250084800000001,-0.08831687999999999,-0.05456782,7.168,0,0
0.014053270000000003,-0.024201860000000002,0.017056548000000005,-0.0778984,-0.05679224000000001,7.169,0,0
0.012459230000000002,-0.026294980000000003,-0.008210071999999997,-0.0650273,-0.05276020000000001,7.17,0,0
0.01100309,-0.01730208,-0.028144072,-0.05353972,-0.046876900000000006,7.171,0,0
0.01136201,0.002665779999999996,-0.04764157200000001,-0.045725020000000005,-0.038827799999999996,7.172,0,0
0.01105055,0.02170206,-0.06233138,-0.03762644,-0.028465944,7.173,0,0
0.00839349,0.0434837,-0.06946236,-0.028245268,-0.019006570999999996,7.174,0,0
0.005969076,0.07303678,-0.07782724,-0.019477912,-0.010711771,7.175,0,0
0.0045125880000000005,0.09844230000000001,-0.0888105,-0.010846866,-0.0038129912,7.176,0,0
0.002299048,0.10971526000000001,-0.09379232000000001,-0.002402606,-0.0006977291999999999,7.177,0,0
-0.0007138920000000003,0.10011470000000001,-0.09156414,0.004130654000000001,-0.00035458919999999995,7.178,0,0
-0.003512452000000001,0.05609468000000001,-0.07977556,0.009463822,0.00017778580000000002,7.179,0,0
-0.008152658000000002,-0.014839519999999995,-0.058550663999999995,0.016075646,0.0009909898000000001,7.18,0,0
-0.014808410000000001,-0.08153312,-0.035514132,0.02286126,0.002648474,7.181,0,0
-0.01863079,-0.1252886,-0.005254752000000001,0.02775478,0.006694052000000001,7.182,0,0
-0.018569254,-0.13702853999999998,0.027318968,0.03211794,0.011455536,7.183,0,0
-0.017518594000000002,-0.11303250000000001,0.054001588,0.035569460000000004,0.014992508000000002,7.184,0,0
-0.014609502,-0.06870482,0.08246767199999999,0.03600522,0.018300344000000003,7.185,0,0
-0.009385482,-0.03559106,0.11026274,0.03361988,0.02151596,7.186,0,0
-0.006696318,-0.02555098,0.12703456,0.029676839999999996,0.02252616,7.187,0,0
-0.005730961999999999,-0.02383228,0.1330908,0.023997915999999998,0.022188760000000002,7.188,0,0
-0.002436904,-0.017985604,0.12346724,0.016009728,0.021303980000000004,7.189,0,0
0.0009389399999999999,-0.006074644000000001,0.09284727400000001,0.006536808000000002,0.017309495999999997,7.19,0,0
0.002807552,0.010726036000000003,0.057335414,-0.002754312,0.010032216000000002,7.191,0,0
0.005943868000000001,0.030673676000000004,0.022885554000000002,-0.011252531999999999,0.0024991960000000017,7.192,0,0
0.010263046000000001,0.050611896,-0.016402766000000003,-0.018657408,-0.004718944,7.193,0,0
0.012723968000000002,0.062088120000000004,-0.050782006000000005,-0.02206414,-0.012116264,7.194,0,0
0.013944972,0.056691620000000005,-0.06544964,-0.020961088,-0.01521082,7.195,0,0
0.013721888000000002,0.043824522,-0.05636638,-0.01660796,-0.0127907544,7.196,0,0
0.009418938000000002,0.025331041999999998,-0.0386212,-0.00868976,-0.009824945600000001,7.197,0,0
0.00399177,-0.004586518000000003,-0.0205354,0.0013085000000000002,-0.0059869056,7.198,0,0
0.0005087223999999993,-0.031482778,-0.016107379999999998,0.010388340000000001,0.00041921440000000057,7.199,0,0
-0.0042250356000000005,-0.040427838,-0.04687298,0.018156308000000003,0.005791314400000001,7.2,0,0
-0.0096311036,-0.03461566,-0.10060818,0.025766940000000002,0.0092769488,7.201,0,0
-0.0117163536,-0.0200488,-0.1504079,0.032767960000000006,0.013739220000000002,7.202,0,0
-0.012342405599999998,0.0018211800000000012,-0.17413198,0.039082000000000006,0.01792026,7.203,0,0
-0.013623523999999998,0.01991552,-0.15060368,0.04491916,0.01977612,7.204,0,0
-0.011449354,0.025454565800000002,-0.07134947999999999,0.048600420000000005,0.02025068,7.205,0,0
-0.005900455999999999,0.0185654438,0.03641352,0.04867106000000001,0.01952218,7.206,0,0
-0.0026332439999999994,0.004613183799999998,0.13975932000000002,0.04567646000000001,0.01707418,7.207,0,0
-0.003073684,-0.005413556200000001,0.21502912,0.038500120000000006,0.013213802,7.208,0,0
-0.005052198,-0.0025131562000000017,0.24303919999999998,0.02668344,0.009751188000000001,7.209,0,0
-0.00839643,0.012004678,0.22662368,0.012370920000000004,0.0060082980000000005,7.21,0,0
-0.013278328,0.0305119,0.18091416,-0.0019236599999999998,0.000912038,7.211,0,0
-0.01502542,0.04723626,0.118385892,-0.015354940000000001,-0.003483182,7.212,0,0
-0.012812702000000002,0.04835178,0.05090915200000001,-0.026676380000000006,-0.007837324000000001,7.213,0,0
-0.011600760000000002,0.026706560000000004,-0.00045962799999999665,-0.033712980000000003,-0.013757830000000002,7.214,0,0
-0.011519620000000001,-0.005070599999999998,-0.033311108000000006,-0.03826554,-0.01910374,7.215,0,0
-0.011278680000000001,-0.03277912,-0.061684748,-0.041494539999999996,-0.021733040000000002,7.216,0,0
-0.014111640000000002,-0.04929798,-0.07820294,-0.04107864,-0.02295824,7.217,0,0
-0.018335218,-0.049554179999999996,-0.07634478,-0.03736172,-0.022627200000000004,7.218,0,0
-0.01804597,-0.03577737600000001,-0.06980094,-0.0327155,-0.019343498,7.219,0,0
-0.014944391600000002,-0.020794876000000004,-0.06382652,-0.02493015,-0.014722344000000002,7.22,0,0
-0.012190323600000002,-0.014132196000000001,-0.0493394,-0.014231510000000001,-0.009858355400000001,7.221,0,0
