bandpass 1,bandpass 2,bandpass 3,bandpass 4,bandpass 5,time,onset,mark
0.0015800516,0.0007231600000000005,0.006459966,0.0006720722,0.000290351,4.927,0,0
0.0023196256000000003,0.0070525,0.009659266,0.00041985620000000004,0.00013506900000000003,4.928,0,0
0.0022357035999999997,0.01022628,0.010874301999999999,0.0003171162,-0.00032802100000000006,4.929,0,0
0.0009769460000000002,0.027843020000000003,0.008746224000000002,0.0004218456000000001,-0.0007673498,4.93,0,0
-0.0010938679999999998,0.030551140000000004,0.0035615440000000007,-0.00026106839999999996,-0.0004905188,4.931,0,0
-0.002242608,0.020985040000000003,-0.0021727759999999995,-0.0004671832,-0.00019109679999999998,4.932,0,0
-0.0019761859999999996,0.01262004,-0.008068476,0.0004741728,0.0002041052,4.933,0,0
0.00012723599999999997,0.008191232000000001,-0.011876972000000001,0.0003966818,0.0008717392,4.934,0,0
0.0032259540000000005,0.0008889700000000003,-0.012139844,0.00016768979999999992,0.0014201440000000004,4.935,0,0
0.0050594820000000006,-0.0068293699999999995,-0.011893804000000001,0.0007572638,0.001491396,4.936,0,0
0.004468622,-0.01226911,-0.013060704000000001,0.0008417388,0.0010960682,4.937,0,0
0.0014873700000000004,-0.017978710000000002,-0.013016364,-2.7833600000000018e-05,0.0010015334000000001,4.938,0,0
-0.00399087,-0.022544082,-0.012622404,-0.00013984059999999998,0.000956962,4.939,0,0
-0.00802731,-0.020354404,-0.01321978,-0.0002843562,0.0005258856,4.94,0,0
-0.0073098960000000015,-0.011536244000000001,-0.010402292200000001,-0.0011270322,0.0005491316,4.941,0,0
-0.005990956,-0.0031140239999999995,-0.0058765642,-0.0016622124,0.0008972274000000001,4.942,0,0
-0.004239990000000001,0.0052390660000000006,-0.0025289362000000004,-0.0017589840000000001,0.0008705602,4.943,0,0
0.0019222699999999998,0.016061026,0.0025816838,-0.0015461350000000001,0.0009328396000000001,4.944,0,0
0.007487929999999999,0.02062245,0.008851363800000001,-0.0009302190000000001,0.00122539,4.945,0,0
0.007595882,0.01693699,0.011966516,0.0002524669999999999,0.0008121092000000001,4.946,0,0
0.006903906,0.014100232400000001,0.013338768,0.000719583,0.000385999,4.947,0,0
0.0069879593999999995,0.011440062400000001,0.01593634,0.000440775,0.0004053898,4.948,0,0
0.0039978714,0.0036646824000000004,0.01721578,0.00018938200000000004,-3.4364200000000066e-05,4.949,0,0
-0.0002485945999999999,-0.004864037600000001,0.01881908,4.6264600000000004e-05,-0.0003944462000000001,4.95,0,0
-0.0020565986,-0.0105160776,0.02373392,-0.0006207494,-0.00014215400000000005,4.951,0,0
-0.0023644966,-0.01414372,0.028765520000000003,-0.0006684932,-4.7462600000000056e-05,4.952,0,0
-0.0026406980000000004,-0.01489586,0.030358100000000002,0.0004482888000000001,-0.00036039300000000003,4.953,0,0
-0.0025033872,-0.012907962,0.029026180000000002,0.0011115468,-0.00039882100000000005,4.954,0,0
-0.0016554380000000002,-0.008986378,0.022675578000000002,0.0012215242,-0.0005168390000000001,4.955,0,0
-0.0008170152000000001,-0.0036662779999999994,0.008078618000000003,0.0014415482,-0.0009698284,4.956,0,0
-0.00031845219999999995,0.0025326220000000004,-0.008768302,0.0019039500000000002,-0.000992065,4.957,0,0
6.5452e-06,0.008366682,-0.020194282,0.0020663820000000003,-0.0010237674,4.958,0,0
0.00025597480000000007,0.010017834000000002,-0.026188762000000004,0.0021943460000000002,-0.0013370754,4.959,0,0
-0.0005081444,0.005745370000000001,-0.02799692,0.00235975,-0.0012268402,4.96,0,0
-0.0014156292000000001,-7.583000000000025e-05,-0.024383560000000006,0.0021438260000000006,-0.0008379744,4.961,0,0
-0.0005356162000000001,-0.00560569,-0.018625700000000002,0.0014854643999999998,-0.0010244952000000001,4.962,0,0
-0.0007775276000000001,-0.014960629999999999,-0.016003200000000002,0.0009869744,-0.0011675812,4.963,0,0
-0.002000902,-0.02182174,-0.01558518,0.00041230620000000005,-0.0005885684,4.964,0,0
-0.0001681320000000001,-0.015406960000000003,-0.014608415999999999,-0.0003424398000000001,-0.0003145842,4.965,0,0
0.001683496,-0.00356362,-0.012163058,-0.0004230868000000001,-0.00042614180000000005,4.966,0,0
0.0007654625999999999,0.0047075,-0.006626938000000001,-0.0006291312000000001,-0.000447466,4.967,0,0
0.0013339246,0.01449912,0.00021844200000000055,-0.0011281972000000001,-0.00022214360000000005,4.968,0,0
0.0027290666000000002,0.024341599999999998,0.0039552400000000005,-0.0007629270000000002,-0.00033414820000000005,4.969,0,0
0.0015076326,0.02545892,0.006465464000000001,-9.7339e-05,-0.0005501402,4.97,0,0
0.0008173646000000001,0.024452920000000003,0.010841606,-1.0449280000000024e-05,8.576159999999994e-05,4.971,0,0
0.0012692080000000002,0.0277228,0.013329606000000003,0.00030258452000000004,0.0004502974,4.972,0,0
0.000853951,0.02845338,0.013460626000000002,0.0005574185200000002,0.00020505699999999992,4.973,0,0
0.0005339354000000001,0.026363224,0.017237168000000004,6.754520000000074e-06,0.0006921528,4.974,0,0
0.0007398600000000003,0.020615613999999997,0.021441900000000003,-0.00076939348,0.0012804113999999999,4.975,0,0
0.000662908,0.007429693999999999,0.018830598,-0.0011202002,0.0006379797999999998,4.976,0,0
0.0008030280000000001,-0.005911586,0.009969738000000002,-0.001574172,0.0005306695999999999,4.977,0,0
0.0012520750000000003,-0.013263746,-0.003062781999999999,-0.002377782,0.0012877816,4.978,0,0
0.0008707126,-0.01946295,-0.015322262000000001,-0.002623902,0.000832919,4.979,0,0
0.0008651430000000001,-0.02444842,-0.021398072,-0.0026607460000000003,2.6899000000000042e-05,4.98,0,0
0.0013093450000000002,-0.02520334,-0.021364835999999998,-0.0027792460000000004,-3.694759999999993e-05,4.981,0,0
0.0008656528,-0.02215695,-0.015672880000000004,-0.0025349920000000002,-0.00024404699999999995,4.982,0,0
-0.0002742692,-0.012453970000000002,-0.005473128,-0.0018681730000000003,-0.000462764,4.983,0,0
-0.0010697512,0.0019567300000000003,0.0021382514000000004,-0.0012667150000000003,-0.00010205139999999995,4.984,0,0
-0.0018966862,0.013891650000000002,0.0028037638000000006,-0.0008584765999999999,0.0003407004000000001,4.985,0,0
-0.0039029362,0.021414326000000004,-0.00025641420000000023,-1.9086000000000515e-06,0.00025668260000000014,4.986,0,0
-0.005461284,0.020962736000000003,-0.0042400902,0.0009540034000000001,-0.00012042519999999992,4.987,0,0
-0.005299454,0.0022913560000000013,-0.006339104199999999,0.0014941964,-0.00018252879999999997,4.988,0,0
-0.004601722,-0.029070584,-0.0061524476,0.0015940378000000002,-0.0004903048,4.989,0,0
-0.00438022,-0.051153844000000004,-0.004926740000000001,0.0012990034000000003,-0.0009727226000000001,4.99,0,0
-0.0025100540000000003,-0.05785462000000001,-0.0018403839999999992,0.0003753894000000001,-0.0003955606000000001,4.991,0,0
0.0006360359999999998,-0.056651850000000004,0.0028100480000000003,-0.0006108606,0.00029510239999999997,4.992,0,0
0.002632078,-0.04202975,0.007176210000000001,-0.0007302166000000001,-0.00014108900000000006,4.993,0,0
0.004336742,-0.01370443,0.009017214,-0.0007812004000000002,-0.00026947460000000006,4.994,0,0
0.0048230624000000005,0.011201230000000001,0.008690678,-0.0007861024,-3.2574000000000952e-06,4.995,0,0
0.0032610264000000003,0.025651530000000006,0.007553168,-6.314300000000002e-05,-0.0005719244,4.996,0,0
0.0008358444000000004,0.03374184,0.005648036,0.0003574588,-0.0006950856000000001,4.997,0,0
-0.0005483577999999998,0.037224020000000003,0.003032569,-0.00015312920000000002,-0.0002370974,4.998,0,0
-0.00163321,0.033646800000000004,0.000457333,-7.269399999999999e-05,-0.0003288478,4.999,0,0
-0.0032495303999999997,0.025042621,-0.000855701,0.0005528,-0.000646245,5.0,0,0
-0.0026763563999999997,0.017883679,-0.0005487230000000002,0.0003256054,-0.0007128200000000001,5.001,0,0
-0.0009196084000000001,0.013439679000000003,0.0002924309999999999,0.00028716660000000004,-0.0009686370000000001,5.002,0,0
-0.0008873784,0.010205579,0.0004114579999999999,0.0005701206,-0.0013878452,5.003,0,0
-0.0009940622,0.010217899,0.0006279534,6.096780000000004e-05,-0.0008243312000000002,5.004,0,0
0.0007515137999999999,0.012592058,0.0010991934,-0.00019517459999999999,-1.770519999999998e-05,5.005,0,0
0.0012446628,0.009193839999999998,0.000536766,0.00023866260000000007,0.0003529266000000001,5.006,0,0
1.6646800000000045e-05,-0.001024380000000001,0.00030437600000000003,0.00023022380000000008,0.0013766998000000002,5.007,0,0
0.00011624240000000004,-0.012020980000000002,0.002753856,0.00035555260000000007,0.0023300558,5.008,0,0
0.0007911844,-0.020573,0.0061089366,0.0012110926000000002,0.0015418598,5.009,0,0
0.0014994704000000003,-0.02557478,0.0089158566,0.001819431,0.0004577498000000001,5.01,0,0
0.0030427014000000002,-0.02561734,0.011714164,0.0020026510000000003,0.00033999799999999994,5.011,0,0
0.0046319274,-0.019259580000000002,0.011313750999999999,0.0021321188,-0.000317008,5.012,0,0
0.005278644,-0.0071439,0.005072671,0.0022830540000000005,-0.0012502680000000003,5.013,0,0
0.0058558180000000005,0.006682740000000001,-0.005617729000000001,0.002093188,-0.0008771040000000002,5.014,0,0
0.006078450000000001,0.020073060000000004,-0.016181049000000003,0.0013712406000000001,-0.00017344628000000003,5.015,0,0
0.003826702000000001,0.0305459,-0.022849169000000003,0.0008718202,-0.0005203782800000001,5.016,0,0
0.0007826120000000002,0.030774346,-0.02441667,0.0005949996,-0.0007353332800000001,5.017,0,0
-0.001349038,0.019365766,-0.020382008,-3.5994399999999995e-05,-0.00034675908,5.018,0,0
-0.0040953199999999995,0.0017743460000000013,-0.01210383,-0.000346913,-0.00042673267999999997,5.019,0,0
-0.006412822000000001,-0.017039793999999997,-0.00496446,-0.0001568182,-0.0007514583999999999,5.02,0,0
-0.00663333,-0.030577733999999995,-0.0034033600000000002,-0.00021096859999999998,-0.0005038557999999999,5.021,0,0
-0.005447044000000001,-0.03235166,-0.00405845,-4.395959999999999e-05,-0.00023290679999999998,5.022,0,0
-0.003936592600000001,-0.025202823999999995,-0.004711402,0.000409702,-0.0002519027999999999,5.023,0,0
-0.0022158166,-0.015908606,-0.0045282199999999995,-6.845339999999998e-05,0.00032157080000000014,5.024,0,0
-0.0007652526000000002,-0.008682848,-0.0016392499999999996,-0.0011694468,0.0012464108000000002,5.025,0,0
-0.00028658660000000007,-0.005693228000000001,0.0037034100000000003,-0.0016491960000000001,0.0015164408,5.026,0,0
0.0003348834,-0.004043212000000001,0.010102590000000002,-0.0023846064,0.001336487,5.027,0,0
0.00188769,0.00036457199999999964,0.014694000000000002,-0.0034225160000000004,0.0013323846,5.028,0,0
0.0034513780000000006,0.009822194,0.017670980000000003,-0.0031344636000000003,0.0006599686000000001,5.029,0,0
0.004186632,0.022824856,0.020056459999999998,-0.0019817012000000003,-0.0006559214,5.03,0,0
0.005083466000000001,0.034750976,0.02001278,-0.0012492372000000003,-0.000989579,5.031,0,0
0.005094663000000001,0.040214940000000005,0.0133121,-0.0003311892000000002,-0.001009188,5.032,0,0
0.002553231,0.0362851686,0.00233828,0.0011698288000000002,-0.0013400138000000002,5.033,0,0
0.00015329299999999977,0.026376971199999998,-0.00501288,0.0019755124,-0.00100435,5.034,0,0
-0.0009266344000000001,0.013465905200000003,-0.010188731999999999,0.0023593140000000004,-0.0003625034,5.035,0,0
-0.0024883804000000002,0.00038692519999999897,-0.014442216,0.00298276,-0.00010124359999999998,5.036,0,0
-0.0038040714,-0.0094722348,-0.01116441,0.0031933980000000005,0.0003430892,5.037,0,0
-0.0042460834,-0.015839503400000003,-0.0010719500000000003,0.0023986216000000003,0.0012260112,5.038,0,0
-0.005418637400000001,-0.014291592000000002,0.006485090000000001,0.0017514436000000003,0.0015435153999999998,5.039,0,0
-0.00598596,-0.0018366860000000023,0.010182582,0.0013674264,0.0018522487999999998,5.04,0,0
-0.00406991,0.016600754,0.014377786000000004,-0.00017978160000000016,0.002446016,5.041,0,0
-0.0007608999999999997,0.037998434,0.01657496,-0.0014390856,0.002192658,5.042,0,0
0.0020796020000000003,0.053253614000000005,0.012432816000000001,-0.0019326092000000001,0.0013700456,5.043,0,0
0.0035808880000000004,0.03889678,0.006046456,-0.0031223152000000006,0.0008877956000000001,5.044,0,0
0.0034179920000000003,-0.003666200000000005,0.0023709440000000003,-0.004163236000000001,9.783960000000005e-05,5.045,0,0
0.0011916319999999998,-0.04627938000000001,-0.0021492060000000003,-0.0033872632000000002,-0.0013937304,5.046,0,0
-0.002315038,-0.08010868000000002,-0.007141052,-0.0020370652000000003,-0.0018221244000000002,5.047,0,0
-0.0054425540000000005,-0.1017585,-0.00735923,-0.0010354712000000001,-0.0015672704,5.048,0,0
-0.006437842000000001,-0.09764194000000001,-0.005336202,0.0007232748000000002,-0.0017985544,5.049,0,0
-0.004898558000000001,-0.07165578,-0.0037756539999999994,0.0022709488000000003,-0.0016537484000000002,5.05,0,0
-0.001735834,-0.04352864,-0.0012113799999999997,0.0024311820000000005,-0.0010384044,5.051,0,0
0.0013030040000000004,-0.02152302,0.000762666,0.0024386520000000004,-0.0008230836200000002,5.052,0,0
0.0037837360000000007,-0.002631220000000001,0.00018448599999999998,0.00277319,-0.0008052082200000002,5.053,0,0
0.005531952000000001,0.01441852,-0.0030084219999999997,0.0021362822000000003,-0.00015287822,5.054,0,0
0.005636368000000001,0.02681272,-0.006613718,0.0009442881999999999,0.00062461578,5.055,0,0
0.004834078,0.0349799,-0.009379076,-9.546980000000021e-05,0.000815329304,5.056,0,0
0.00357106,0.044435680000000005,-0.011539896000000001,-0.0019759318,0.0010024467239999999,5.057,0,0
0.003315224,0.0529103,-0.011511030000000002,-0.0043143238,0.001211491724,5.058,0,0
0.004326684000000001,0.055250740000000007,-0.0081441026,-0.005533882,0.000804008124,5.059,0,0
0.004404018,0.05465570000000001,-0.0021993826,-0.005708,0.0002475747239999999,5.06,0,0
0.0037636880000000003,0.052922380000000005,0.0025806514000000003,-0.005524262,0.00024775363399999993,5.061,0,0
0.0031041700000000003,0.042680380000000004,0.0043340394,-0.004035698,0.00015555183399999998,5.062,0,0
0.0011336939999999998,0.021114840000000003,0.0044682694000000005,-0.0013161120000000001,2.8171633999999945e-05,5.063,0,0
-0.001671936,0.00021741999999999942,0.002367962,0.000815794,0.0007132792340000001,5.064,0,0
-0.0034111159999999996,-0.013088160000000001,-0.003269898,0.0023486740000000002,0.0010643684340000002,5.065,0,0
-0.004922348,-0.024214440000000004,-0.008893358,0.00396754,0.0005260540000000002,5.066,0,0
-0.0064031800000000005,-0.03476374,-0.010993586,0.0047334180000000005,3.7411599999999986e-05,5.067,0,0
-0.006248472,-0.04001504,-0.011178472,0.004412206,-7.796539999999998e-05,5.068,0,0
-0.0055125420000000005,-0.03976022,-0.010458948,0.004470638,-0.0006673139600000001,5.069,0,0
-0.0050057719999999995,-0.038356600000000005,-0.0080436298,0.0043092519999999995,-0.00087708776,5.07,0,0
-0.0033646479999999996,-0.034791864000000006,-0.0015987697999999993,0.0032204496,0.00046815424000000005,5.071,0,0
-0.000754196,-0.024814584,0.0075615102000000005,0.0024477936,0.00152523624,5.072,0,0
0.0012125400000000002,-0.006794104000000001,0.013874622199999999,0.0018072934,0.0016099214399999998,5.073,0,0
0.0029631580000000005,0.012835436,0.0174628582,3.176939999999977e-05,0.002123712,5.074,0,0
0.0049632520000000005,0.029399955999999998,0.018683464,-0.0018645206000000004,0.00264583,5.075,0,0
0.005327648000000001,0.0421048,0.013655126000000002,-0.0024068222000000004,0.0017543788,5.076,0,0
0.005392072000000001,0.050257880000000005,0.005488655999999998,-0.0030111662000000005,0.0006937587999999999,5.077,0,0
0.005161146,0.0512975,0.0008161935999999997,-0.0037145380000000003,0.00036095219999999996,5.078,0,0
0.0021751440000000004,0.040296078000000006,-0.0020439304000000004,-0.0035066000000000003,-0.0004828458,5.079,0,0
-0.0021668,0.021816978,-0.0052671964,-0.002811002,-0.0014605778,5.08,0,0
-0.004255492,-0.0005106620000000003,-0.0027992523999999996,-0.0022920696,-0.0012206062,5.081,0,0
-0.00378954,-0.022754322,0.0037830176,-0.0013757736000000003,-0.0005425762,5.082,0,0
-0.00383375,-0.040567662000000004,0.005164178,0.00043184639999999976,-0.0002859644,5.083,0,0
-0.002926282,-0.04951486,0.003524062,0.0019286064,6.001999999999984e-06,5.084,0,0
0.000281282,-0.04726826,0.003223824000000001,0.0030458603999999998,0.00021716199999999996,5.085,0,0
0.002869002,-0.042727600000000004,-0.0007947020000000004,0.004001424,-0.00023252240000000006,5.086,0,0
0.002753738,-0.0418907,-0.008737362,0.004128728,-0.0010373844,5.087,0,0
0.0026935279999999997,-0.0363912,-0.01210566,0.003180612,-0.0015425956,5.088,0,0
0.0037294231999999996,-0.01729948,-0.010220234000000002,0.0023442320000000003,-0.0018620800000000001,5.089,0,0
0.0031326224,0.008648340000000003,-0.006399046,0.001502214,-0.001945914,5.09,0,0
0.0025345124,0.04202502,-0.001020446,-1.8049999999999924e-05,-0.0016306220000000002,5.091,0,0
0.0032606384000000003,0.08589226000000001,0.002464816,-0.0013549520000000002,-0.0010274534000000004,5.092,0,0
0.0035949284,0.12936252,0.0014959560000000001,-0.002223742,-0.0005070012,5.093,0,0
0.0031138052,0.13975978,0.0001857759999999997,-0.002886562,6.968879999999996e-05,5.094,0,0
0.0025760400000000004,0.09948910000000001,0.0008059680000000004,-0.003308646,0.0004144228,5.095,0,0
5.878999999999997e-05,0.0458715,-0.0006619959999999995,-0.0028498708000000007,-0.00021303720000000003,5.096,0,0
-0.00431374,-0.008543100000000005,-0.003120002,-0.0018415368000000002,-0.0006302638000000001,5.097,0,0
-0.007126908000000001,-0.0798001,-0.0013922659999999999,-0.0009498308000000003,-0.0005355146,5.098,0,0
-0.008711944000000001,-0.13100328,0.0010544900000000002,3.2003200000000026e-05,-0.0009815446,5.099,0,0
-0.009293692000000001,-0.12889492000000002,0.0009635100000000003,0.0015587332000000001,-0.0009720046,5.1,0,0
-0.007264800000000002,-0.10832254000000001,0.003511634000000001,0.002526224,2.5247400000000025e-05,5.101,0,0
-0.004641954,-0.086714896,0.007860518,0.002626658,0.000238886,5.102,0,0
-0.002804972,-0.048559636,0.009849866,0.003041442,-0.00048152740000000007,5.103,0,0
-0.0006948038,-0.008311376000000002,0.0090807326,0.0028138558,-0.00045602620000000007,5.104,0,0
0.0007313222,0.017586784,0.006361026600000002,0.0016720718,-0.00014260220000000004,5.105,0,0
0.0008373842000000001,0.030189243999999997,0.0008387826000000004,0.0008140216,-0.0003755138,5.106,0,0
0.0010962562,0.035845419999999996,-0.004318557400000001,-0.0002364324,0.00012142159999999996,5.107,0,0
0.0023614202000000004,0.038250059999999995,-0.0052414836,-0.0017386024,0.0013526596000000002,5.108,0,0
0.003077846,0.03475494,-0.006188944200000001,-0.0021414902000000003,0.0018351944000000002,5.109,0,0
0.0029355978,0.027569936000000003,-0.0085743382,-0.0023233342,0.0016527384,5.11,0,0
0.0017892178000000003,0.018667958000000002,-0.0097644942,-0.0031795720000000003,0.0015591384,5.111,0,0
0.00021766980000000047,0.006956538000000001,-0.0093117142,-0.003138142,0.0010400741999999998,5.112,0,0
-0.00018357219999999986,-0.0043901420000000005,-0.0071944240000000005,-0.0023845712,-0.00013365780000000003,5.113,0,0
0.00011836979999999995,-0.013347322,-0.0013361920000000008,-0.0019015329999999995,-0.0008515237999999999,5.114,0,0
0.0007894260000000002,-0.018817638,0.005522188000000001,-0.0012621708,-0.0009379316000000001,5.115,0,0
0.002153714,-0.015190040000000002,0.011302308,0.0001496052000000001,-0.0011572487999999999,5.116,0,0
0.003853342,-0.0017898400000000009,0.016972488,0.0015219632000000002,-0.0011589558,5.117,0,0
0.004450988,0.01297788,0.01894138,0.0020276284,-0.00035515780000000004,5.118,0,0
0.0038705560000000007,0.02630788,0.01635502,0.0025539442,0.00037345620000000005,5.119,0,0
0.002678258,0.038737900000000006,0.01221782,0.003264658,0.0006417160000000001,5.12,0,0
0.001519986,0.0436028,0.007686722000000001,0.0029619278,0.0010972988,5.121,0,0
0.0007717960000000002,0.036202872,0.0007642820000000002,0.0022431792,0.0013019528000000002,5.122,0,0
-5.428799999999994e-05,0.020906052,-0.008552178,0.0018122952,0.0010424008,5.123,0,0
-0.0006473519999999999,-0.0014604679999999995,-0.015747378000000003,0.0005993312,0.0008679576,5.124,0,0
-0.000702082,-0.034688408000000004,-0.017812298000000004,-0.0009461868000000002,0.00043627440000000003,5.125,0,0
-0.00108667,-0.06596056800000001,-0.015535626000000004,-0.0015318706,-0.0003674336,5.126,0,0
-0.0017836440000000002,-0.07818954,-0.008668126000000002,-0.002029782,-0.0008717404000000001,5.127,0,0
-0.0020725516000000004,-0.07137266,0.0021338939999999995,-0.002449056,-0.0009024383999999999,5.128,0,0
-0.0016972336000000002,-0.0452248,0.011275594,-0.001657056,-0.0008515600000000001,5.129,0,0
-0.0009311916,0.00019179999999999892,0.015496448000000001,-0.000659632,-0.0010994248,5.13,0,0
-0.00018394640000000007,0.047659200000000006,0.015900068,-0.00035058920000000007,-0.0009209328,5.131,0,0
-7.454439999999998e-05,0.07978350000000001,0.010520792000000001,-9.115559999999998e-05,-0.0006352084,5.132,0,0
-0.0015950128,0.08962162000000001,-0.0003464680000000008,0.0005232926000000001,-0.0011770984,5.133,0,0
-0.0026774368,0.075511464,-0.010045868000000001,0.0006154986000000001,-0.0014652264,5.134,0,0
-0.0032540627999999997,0.042698124,-0.017645222000000002,0.00023994720000000003,-0.0009448563999999999,5.135,0,0
-0.004635166,0.0017904240000000023,-0.024149016000000002,0.0004380868,-0.0008114412,5.136,0,0
-0.00525892,-0.034529816000000005,-0.02399876,0.0007402672,-0.0009115756,5.137,0,0
-0.005022332000000001,-0.055829136,-0.017791792,0.00025020299999999995,-0.0001636756,5.138,0,0
-0.005047212000000001,-0.056947160000000004,-0.011203426,-0.0004233830000000001,0.000118124,5.139,0,0
-0.004883104600000001,-0.041653420000000003,-0.0038393100000000003,-0.0006547656000000001,0.00024704400000000003,5.14,0,0
-0.0031031826,-0.02068092,0.0033410519999999997,-0.001480902,0.0012757348,5.141,0,0
-0.0006063826000000003,-0.004578878,0.005672184,-0.0023980780000000005,0.0019909008,5.142,0,0
0.0023451514,0.004021536000000001,0.004342966,-0.0022135798,0.0020078428,5.143,0,0
0.006763117400000001,0.006515371000000002,0.0036346139999999996,-0.0019424004000000003,0.0018596008,5.144,0,0
0.010840838000000002,0.0030595766000000003,0.00365107,-0.0018842244000000002,0.0013796627999999999,5.145,0,0
0.011866228000000003,-0.0010171874,0.004254848,-0.0008705204000000002,1.1510800000000005e-05,5.146,0,0
0.010711966000000003,-0.0021501434000000003,0.0072840560000000006,0.0003785096,-0.0008127992,5.147,0,0
0.0091230934,-0.0007201454,0.011471486,0.0006267692,-0.0006702252000000001,5.148,0,0
0.005579720400000001,0.004115639600000001,0.012317565999999999,0.0008020552,-0.0008536946,5.149,0,0
0.0010904024,0.010840834,0.010295322,0.0013247451999999999,-0.0010170966,5.15,0,0
-0.0011063176,0.016224438,0.008364931999999999,0.0014938432000000002,-0.00028082860000000004,5.151,0,0
-0.0014689416000000003,0.019044278,0.0042734800000000005,0.0016694392,0.0002541186,5.152,0,0
-0.0022722310000000004,0.01789438,-0.0028231800000000002,0.0023430433999999997,-0.0003057562000000001,5.153,0,0
-0.003575796,0.011240200000000002,-0.010569554000000002,0.0029824779999999998,2.2604199999999976e-05,5.154,0,0
-0.004021106,0.002445080000000001,-0.015616082000000003,0.003142356,0.0008355802,5.155,0,0
-0.004252314,-0.004005048,-0.014317216,0.0026944972,0.0005053262,5.156,0,0
-0.004533108,-0.0062927040000000005,-0.007648143999999999,0.0018060292000000003,0.00044145899999999995,5.157,0,0
-0.0036505599999999997,-0.003680618,0.002595016000000001,0.0004915972,0.0010005558,5.158,0,0
-0.0019717479999999997,0.0001286820000000002,0.016287536000000002,-0.0007625408000000001,0.0007568884000000001,5.159,0,0
-0.000625426,0.001780602,0.028052516000000007,-0.0013838201999999999,-1.5143600000000002e-05,5.16,0,0
0.0011075920000000001,0.0017925299999999994,0.028266906,-0.0017001514,-2.9313199999999928e-05,5.161,0,0
0.002352584,-0.0009909199999999997,0.018487986,-0.0015501214,8.390080000000004e-05,5.162,0,0
0.001496,-0.00632546,0.008519325999999999,-0.0010041308,-0.0003495676000000001,5.163,0,0
0.00060603,-0.0085658672,-1.925600000000048e-05,-0.0005914276,-0.00022456999999999997,5.164,0,0
0.0008707540000000001,-0.0045839672000000005,-0.009875316,-0.0003420988,0.0002899228,5.165,0,0
0.0009253000000000002,0.00021193280000000002,-0.018556962,-7.738240000000003e-05,0.0001808164,5.166,0,0
4.3642000000000095e-05,0.0035012668000000005,-0.022096622,7.677080000000001e-05,-0.0001473982,5.167,0,0
-0.00018518600000000016,0.006109312800000001,-0.023297782000000003,1.8640800000000006e-05,-8.797379999999995e-05,5.168,0,0
-0.0011347920000000004,0.005837930000000001,-0.02555748,2.7193799999999997e-05,-0.00010474639999999999,5.169,0,0
-0.0036167380000000004,0.002688282,-0.02578538,0.0002922724,-0.0004982012,5.17,0,0
-0.004907638000000001,-0.0032527180000000004,-0.020197012,0.0006108140000000001,-0.00045873120000000005,5.171,0,0
-0.00499179,-0.010410532,-0.011373210000000002,0.0004304468000000001,-0.0003215402,5.172,0,0
-0.00455506,-0.012487498000000001,-0.0019452299999999983,0.0002647664000000001,-0.0005716082,5.173,0,0
-0.0026190420000000002,-0.005045307999999999,0.009940669999999999,0.00025883199999999996,-0.0004877196,5.174,0,0
4.19620000000001e-05,0.004791540000000001,0.02217359,-0.000586234,-2.863360000000001e-05,5.175,0,0
-0.001166894,0.013627900000000002,0.029455382,-0.0013715460000000002,0.00016674240000000002,5.176,0,0
-0.002186044,0.02721838,0.03099642,-0.0014538840000000001,0.000376506,5.177,0,0
0.00128236,0.04089524,0.026203846,-0.0015010782000000002,0.0009232000000000001,5.178,0,0
0.003989304,0.04104534,0.014801566,-0.0013473988000000001,0.001137258,5.179,0,0
0.004861798,0.020005679999999998,0.0018829060000000002,-0.000679117,0.00122916,5.18,0,0
0.007075948,-0.0012245200000000015,-0.007221693999999999,-0.000488425,0.0017205240000000002,5.181,0,0
0.008344579799999998,-0.012380760000000001,-0.009762996,-0.0010553110000000002,0.0018086040000000001,5.182,0,0
0.0042750978000000005,-0.03255758,-0.007411261999999998,-0.001237933,0.001263868,5.183,0,0
-0.0005076682,-0.04987286,-0.003934435999999999,-0.0015802522000000002,0.0005468179999999999,5.184,0,0
-0.0021325195999999996,-0.04142352,-0.002143216,-0.0016797660000000003,-0.0006759299999999999,5.185,0,0
-0.0023888143999999997,-0.025996882199999998,-0.002327976,-0.0003760520000000002,-0.002143746,5.186,0,0
-0.002428302,-0.0211795322,-0.0032033516,0.0009791259999999999,-0.0031732979999999997,5.187,0,0
-0.0017467119999999999,-0.015377692200000001,-0.0031245116,0.001299827,-0.0032598720000000005,5.188,0,0
-0.0009103560000000001,-0.013818952200000002,-0.0008548775999999998,0.0014521578000000002,-0.0029343664,5.189,0,0
-0.0016122186,-0.0207685722,0.0032479184000000004,0.0013246424000000001,-0.0021944388000000002,5.19,0,0
-0.0024312917999999998,-0.027060430000000003,0.008893518400000001,-0.00016604760000000005,-0.0008040788,5.191,0,0
-0.0021134834,-0.031074140000000004,0.011578156000000003,-0.0014566516,0.0001811472,5.192,0,0
-0.0009590693999999999,-0.029143362,0.008597138000000002,-0.0011786144,0.0005736646,5.193,0,0
-4.5051399999999865e-05,-0.021741482000000003,0.0036389179999999997,-0.001005471,0.001147103,5.194,0,0
0.0005034308,-0.011423846,-0.0011740580000000004,-0.0011830896,0.0019284554,5.195,0,0
0.0021361408,0.003130794,-0.007636698000000001,-0.000504007,0.0015760734000000002,5.196,0,0
0.0039049542000000005,0.019729294,-0.014299038000000003,0.00013916680000000003,0.0010228994000000002,5.197,0,0
0.0041902702,0.033766956,-0.017552200000000004,-0.00017920539999999996,0.0008520146000000001,5.198,0,0
0.0038213810000000004,0.04416401600000001,-0.01819934,-0.00018925039999999994,0.00013106260000000008,5.199,0,0
0.0031436668,0.048787380000000005,-0.016087742,0.00045714560000000004,-0.0005362813999999999,5.2,0,0
0.0017271228,0.044547880000000005,-0.010626972,0.0006535110000000001,-0.0005967473999999999,5.201,0,0
-0.0005249852000000002,0.032456084,-0.003903652,0.0008996990000000001,-0.0006759994000000001,5.202,0,0
-0.0024765412,0.018992286,0.002372908,0.0014134630000000002,-0.001391202,5.203,0,0
-0.0028099120000000003,0.011137107999999998,0.007621008,0.0014543282,-0.0016607500000000001,5.204,0,0
-0.001468134,0.009543368,0.009288152000000001,0.0010470596000000001,-0.0015829524000000002,5.205,0,0
-0.000642778,0.009722308,0.007122166000000001,0.0008837955999999999,-0.001760468,5.206,0,0
-0.0007776759999999999,0.006925656,0.005385082,0.000838512,-0.00120311,5.207,0,0
0.0005035300000000001,0.003809874000000001,0.0041020100000000006,0.00029472760000000004,0.00037271000000000006,5.208,0,0
0.0010430566,0.0045206920000000015,0.0015711800000000004,0.00021594840000000001,0.001535204,5.209,0,0
-0.00025514140000000004,0.004401592000000001,0.0008899940000000003,0.000480815,0.0017524744,5.21,0,0
-0.0010174674000000001,0.0013006660000000009,0.0029274060000000005,5.159300000000003e-05,0.0021570220000000006,5.211,0,0
-0.0017935934000000001,0.0008421340000000005,0.003915764,-0.00044444319999999995,0.00231897,5.212,0,0
-0.0034131834000000003,0.0015495540000000007,0.005565296,-0.0005139808,0.0016984246,5.213,0,0
-0.0035664528000000006,-0.0033372460000000003,0.009544786,-0.0006092223999999999,0.0012903966,5.214,0,0
-0.0024075728000000005,-0.011534946,0.011774070000000001,-0.0005773104000000001,0.0017444086,5.215,0,0
-0.0017557908000000004,-0.01594094,0.0105534764,0.0002902116000000001,0.0021038686,5.216,0,0
-0.0005625350000000003,-0.014422014,0.0071107724000000015,0.0013389896000000003,0.0019091088000000001,5.217,1,1
0.0008373969999999999,-0.010778582000000002,0.0021012064,0.0021330016,0.0021707102000000002,5.218,0,0
0.0009298487999999999,-0.0072883819999999995,-0.0036620536,0.002838934,0.0019323303999999998,5.219,0,0
0.0002508988,-0.0026248800000000004,-0.007047935600000001,0.002941542,0.0005891604,5.22,0,0
0.0003087028,0.0006836322000000004,-0.007224696,0.0023206892,-0.00029134160000000007,5.221,0,0
0.000959869,0.0006521822000000001,-0.006439536000000001,0.0016134401999999997,-0.0008118058,5.222,0,0
0.001247691,-0.0008759918,-0.006019526000000001,0.0011250621999999997,-0.0020205898,5.223,0,0
0.0015187500000000001,-0.0026349698000000003,-0.006895986000000001,6.321019999999992e-05,-0.0025112560000000003,5.224,0,0
0.002166608,-0.0056047118,-0.010389464000000001,-0.0010275758,-0.00213355,5.225,0,0
0.002329424,-0.009913164,-0.015428126,-0.0013377870000000002,-0.00251232,5.226,0,0
0.002308618,-0.0127602,-0.017969376000000002,-0.0016421580000000001,-0.0025460280000000005,5.227,0,0
0.0028618980000000003,-0.013739379999999999,-0.016858146,-0.0021770240000000005,-0.001476968,5.228,0,0
0.0031459160000000003,-0.014032857999999999,-0.01190418,-0.001875104,-0.0006926759999999999,5.229,0,0
0.0028048172,-0.009890401999999998,-0.0026206399999999996,-0.0006613060000000001,-0.00015588999999999995,5.23,0,0
0.0022447842000000006,-0.00012548200000000054,0.00849448,0.000141636,0.001104488,5.231,0,0
0.0010531942,0.009563658,0.01649548,0.0006254165999999999,0.00178289,5.232,0,0
-0.0012999718000000003,0.01749614,0.016939009096,0.0014120666,0.0018717620000000003,5.233,0,0
-0.0031549238000000003,0.024745136,0.012870563096000001,0.0018692226,0.0022122520000000005,5.234,0,0
-0.0039171150000000005,0.028623960000000004,0.010090753096000004,0.001274696,0.0019358944000000002,5.235,0,0
-0.004967062,0.023883472,0.007340733096,0.0006366822,0.0009735663999999998,5.236,0,0
-0.005767724000000001,0.011574532000000002,0.003418227096,0.00023623160000000004,0.00020492239999999993,5.237,0,0
-0.005321416000000001,-0.0004491079999999993,0.0022389739999999995,-0.0008096004000000001,-0.0002738258000000001,5.238,0,0
-0.004333502,-0.008735867999999999,0.0019344139999999998,-0.0017751544,-0.0011978158000000001,5.239,0,0
-0.003129398,-0.014934256,-0.0016705720000000004,-0.0022311958,-0.0015245302000000001,5.24,0,0
-0.00043538400000000003,-0.016832878,-0.005300506,-0.002709798,-0.0010379006,5.241,0,0
0.0027087520000000005,-0.013800618,-0.006669804,-0.002884698,-0.0009199706,5.242,0,0
0.0035235404000000005,-0.013578038,-0.006265344,-0.002212335,-0.0007789402000000001,5.243,0,0
0.0034514484000000003,-0.016159958000000002,-0.0034887460000000005,-0.0015209111999999999,0.00022491379999999993,5.244,0,0
0.004155290400000001,-0.018170650000000003,0.0018697100000000006,-0.0008929653999999998,0.0009476398000000002,5.245,0,0
0.0030484304000000005,-0.021170580000000005,0.008168924000000001,0.0003120606,0.00045433420000000015,5.246,0,0
0.0005243464,-0.02157924,0.012766328,0.0010668466,0.0005319521999999999,5.247,0,0
-0.0002836719999999999,-0.016004668,0.016583738,0.0007443376000000001,0.00082021,5.248,0,0
-0.000625178,-0.007321288000000002,0.02131218,0.0004505818,0.00017777720000000007,5.249,0,0
-0.00223405,0.005093112,0.022847420000000004,0.0002351934,4.158720000000001e-05,5.25,0,0
-0.0028372358,0.022934572,0.017797474,-0.0006526666000000001,0.0011321492000000001,5.251,0,0
-0.0026030618,0.040582872000000006,0.006168774000000002,-0.0011273718000000001,0.0019874532,5.252,0,0
-0.0014822298,0.050678720000000003,-0.012534646,-0.0006553024,0.0018040248,5.253,0,0
0.0006062502000000001,0.047906058,-0.031748586,-0.00024108139999999995,0.0020146896000000003,5.254,0,0
0.0022630302,0.034027518,-0.043163766000000006,7.999520000000001e-05,0.0019192328000000002,5.255,0,0
0.0040673260000000004,0.014756998,-0.045187544,0.0006567092000000001,0.0011337196,5.256,0,0
0.0048682000000000005,-0.003857982000000001,-0.036588944,0.0004257664000000001,0.0003273236,5.257,0,0
0.006003256000000001,-0.014117416,-0.017588304,-0.0003208350000000001,-0.0015250160000000001,5.258,0,0
0.0063414100000000004,-0.013440156,0.0012252360000000015,-5.2748000000000085e-05,-0.004611316,5.259,0,0
0.006401226000000001,-0.011786356000000001,0.010612816,0.001254804,-0.007695105200000001,5.26,0,0
0.0048393818,-0.013627496000000003,0.01404642,0.003443764,-0.010029188000000001,5.261,0,0
-0.0021676902000000017,-0.015016976000000001,0.013269445400000003,0.00645253,-0.011535248000000001,5.262,0,0
-0.009735702200000002,-0.019947042,0.007584305400000001,0.009084248,-0.010041936000000001,5.263,0,0
-0.0150761142,-0.02710776,0.0010933234000000001,0.009839212,-0.005898078000000001,5.264,0,0
-0.019522666200000004,-0.0287044,-0.0025610506000000002,0.0085009972,-0.0012078140000000004,5.265,0,0
-0.019854806000000003,-0.02362438,-0.0034630266,0.0048860932,0.0036630459999999997,5.266,0,0
-0.011522502,-0.018096008,-0.000710072,-0.00011676680000000019,0.008437206000000001,5.267,0,0
-0.0019083819999999993,-0.011690276000000001,0.004460208,-0.004977684800000001,0.011643142,5.268,0,0
0.006481318000000001,-0.0022237760000000002,0.00969525,-0.0094376148,0.012537264000000001,5.269,0,0
0.015322998000000001,0.006959763999999999,0.016198904,-0.013191004000000001,0.012692634000000001,5.27,0,0
0.020996544000000002,0.014333564,0.02102936,-0.01542572,0.011156764,5.271,0,0
0.023728580000000003,0.019675232,0.02109406,-0.015281,0.007555942,5.272,0,0
0.02286006,0.02243864,0.019014296000000003,-0.013288423999999998,0.0032300420000000002,5.273,0,0
0.018496412,0.020427214000000003,0.015783362000000002,-0.010025036219999998,-0.0012579580000000004,5.274,0,0
0.010792706000000001,0.014954076,0.008316726000000003,-0.004933596219999998,-0.005975912,5.275,0,0
0.0022065660000000005,0.009327370000000001,-0.0018417540000000001,0.00103614378,-0.009760422000000001,5.276,0,0
-0.005368414,0.0035505300000000014,-0.009815254,0.00623146378,-0.0116897,5.277,0,0
-0.012857314000000002,-0.00318031,-0.015289030000000002,0.01075026778,-0.01279538,5.278,0,0
-0.019032306000000002,-0.007032606,-0.019663356,0.0144075,-0.012321946000000002,5.279,0,0
-0.021985300000000003,-0.008237366,-0.0201204,0.015658480000000002,-0.009817854,5.28,0,0
-0.022985440000000003,-0.01144758,-0.014842928,0.014797036,-0.006249396000000001,5.281,0,0
-0.021337818,-0.01278756,-0.007320227999999999,0.012729082000000001,-0.002256702,5.282,0,0
-0.014216598,-0.010815290000000002,0.0006256320000000001,0.008392394,0.002696298,5.283,0,0
-0.005237318000000001,-0.012229368,0.008711212,0.002437894,0.007356184,5.284,0,0
0.0032235819999999987,-0.01424813,0.014508492000000001,-0.0030345260000000005,0.009836752,5.285,0,0
0.011895241999999999,-0.011555102,0.01775834,-0.007706862000000002,0.010971634,5.286,0,0
0.01848864,-0.006827082,0.02012894,-0.011652688000000001,0.01102283,5.287,0,0
0.01967532,-0.0032291119999999993,0.01967502,-0.013518000000000002,0.009141612000000002,5.288,0,0
0.017103994,0.0007665259999999997,0.016435026000000002,-0.012793618,0.005847612,5.289,0,0
0.015126268000000002,0.010107266,0.012616850200000002,-0.010597035999999999,0.00306402,5.29,0,0
0.012557762000000002,0.021025318,0.0057761702,-0.007174378,0.00026090999999999983,5.291,0,0
0.006268882,0.028058078,-0.004170549800000001,-0.0026172060000000004,-0.0032042320000000004,5.292,0,0
-0.0008132780000000002,0.033884178,-0.013138209800000002,0.0019623340000000005,-0.005706962,5.293,0,0
-0.0057624519999999995,0.03826438,-0.020875975800000002,0.006073132,-0.007098210000000001,5.294,0,0
-0.011713826,0.033557767999999995,-0.028141060000000002,0.009782470000000001,-0.008217432,5.295,0,0
-0.017255520000000003,0.021305188,-0.03134134,0.011927392,-0.008122034,5.296,0,0
-0.01844426,0.008301708,-0.02868608,0.011679496,-0.0060538872,5.297,0,0
-0.016207128,-0.004394132,-0.022484526,0.010027368,-0.0036180532000000005,5.298,0,0
-0.011471942000000002,-0.014918172,-0.013129386,0.0074130967999999995,-0.0008592312000000005,5.299,0,0
-0.0051187839999999995,-0.02448856,-0.0005039060000000001,0.0030663667999999995,0.0026877788,5.3,0,0
0.0009741960000000001,-0.03209856,0.011812774000000002,-0.0018732532,0.005375122800000001,5.301,0,0
0.006099276000000001,-0.03386252,0.020288574000000004,-0.0057430292,0.006755846000000001,5.302,0,0
0.011005164000000001,-0.029079749999999998,0.025421760000000005,-0.0087270012,0.007574800000000001,5.303,0,0
0.013536798000000001,-0.0236558518,0.02473099,-0.01119447,0.00753267,5.304,0,0
0.01186671,-0.0188769118,0.01565837,-0.011988144,0.00609368,5.305,0,0
0.010367260000000001,-0.0046284518,0.003807930000000001,-0.010702956,0.0041050558,5.306,0,0
0.009600952000000001,0.0135188682,-0.006317990000000001,-0.008343633999999999,0.0020486318,5.307,0,0
0.005350880000000001,0.0207616382,-0.014747409999999999,-0.004916986,-0.0004223562000000001,5.308,0,0
0.00024522,0.021987444000000002,-0.01902964,-0.000897644,-0.0027925942,5.309,0,0
-0.0024786699999999997,0.024265372,-0.01798664,0.0028878420000000003,-0.0044229382000000005,5.31,0,0
-0.00669752,0.016933912000000002,-0.01633414,0.006254894,-0.0056060220000000004,5.311,0,0
-0.012011472,0.00027407200000000107,-0.01640496,0.009062832,-0.0065126,5.312,0,0
-0.0140378,-0.010661048,-0.01596906,0.010264706,-0.005966802,5.313,0,0
-0.013896977999999999,-0.014068491999999998,-0.0133686026,0.01010825,-0.0040777059999999995,5.314,0,0
-0.012668414000000001,-0.013189046,-0.0080518226,0.009243842000000002,-0.0018597140000000004,5.315,0,0
-0.009342566,-0.007315746000000001,0.00017701739999999994,0.006948376200000001,0.0012869959999999999,5.316,0,0
-0.003605946,0.0015285740000000004,0.0096240774,0.0036387722,0.00486606,5.317,0,0
0.002543854,0.008503714,0.0170668774,0.00036341019999999984,0.0070110680000000005,5.318,0,0
0.0071686119999999996,0.011664728,0.02117994,-0.0027615058000000003,0.007856456000000001,5.319,0,0
0.011071268,0.011870894,0.02252862,-0.0059364398,0.008019804000000002,5.32,0,0
0.0137374,0.008980672,0.021342559999999997,-0.008162254,0.006446514,5.321,0,0
0.013728480000000001,0.0041236228,0.01881,-0.009087032,0.003305578,5.322,0,0
0.011920796000000003,0.00025964639999999996,0.016242720000000002,-0.008993438,0.00034505600000000005,5.323,0,0
0.009549012000000003,-0.0015725435999999998,0.012243994999999999,-0.0077262120000000005,-0.002580792,5.324,0,0
0.005841848,-0.0025622476000000003,0.006822617000000001,-0.0049315340000000004,-0.006038974000000001,5.325,0,0
0.000968048,-0.0030406136,0.001501863,-0.001566408,-0.007973938,5.326,0,0
-0.004114592,-0.0035328864,-0.003659157,0.0014699220000000002,-0.007872760000000001,5.327,0,0
-0.008789908,-0.004147242000000001,-0.0077948769999999995,0.004894928000000001,-0.007219688,5.328,0,0
-0.012129064000000002,-0.003671058,-0.009089921999999999,0.0077919120000000015,-0.0057933312,5.329,0,0
-0.013577560000000002,-0.0023216508,-0.008759438000000001,0.008813892000000002,-0.0028993352,5.33,0,0
-0.012676640000000001,-0.0029025328,-0.00856796,0.008217156000000002,-0.00014929919999999994,5.331,0,0
-0.009555164000000001,-0.0043283508,-0.00998414,0.006771225400000001,0.0012694268,5.332,0,0
-0.004588806000000001,-0.006049478800000001,-0.01117682,0.0039654314,0.0026282148,5.333,0,0
0.0013312740000000001,-0.010395066800000002,-0.006343009999999999,0.0004743413999999998,0.0033551979999999998,5.334,0,0
0.0064244540000000004,-0.012014502000000002,0.0018834640000000005,-0.0023355086000000002,0.0028661371999999996,5.335,0,0
0.010108194000000001,-0.006487332000000002,0.009357,-0.0047525206,0.0022647011999999997,5.336,0,0
0.012606938,0.002848588,0.018440480000000002,-0.006579112000000001,0.0022663272000000003,5.337,0,0
0.012471820000000002,0.014441128000000001,0.02549158,-0.007209644000000001,0.0015497458000000002,5.338,0,0
0.009495432,0.025102588000000002,0.023751560000000005,-0.006869562000000001,0.00044133180000000016,5.339,0,0
0.006632226,0.026851430292,0.015353604,-0.006311168000000001,0.00011494060000000013,5.34,0,0
0.0040557194,0.019365230292,0.0033376039999999992,-0.0045894075999999995,-0.0012343674,5.341,0,0
-0.0008160806000000005,0.0034301502919999987,-0.009343416,-0.0013747336000000001,-0.0030811474000000004,5.342,0,0
-0.0061836606,-0.017931209708000002,-0.017375896000000002,0.0015342404000000002,-0.0041082720000000005,5.343,0,0
-0.009510472600000002,-0.031136729708,-0.021557896,0.0038868164000000005,-0.004624182000000001,5.344,0,0
-0.011659046600000002,-0.032208302,-0.0228453,0.0065083824,-0.0051829760000000015,5.345,0,0
-0.013107404000000001,-0.028426724,-0.01948308,0.008246172000000001,-0.004792292,5.346,0,0
-0.012358194000000001,-0.020389214,-0.014223340000000001,0.007625366,-0.0032276839999999998,5.347,0,0
-0.009118118000000001,-0.00869369,-0.011140022000000001,0.005960269000000001,-0.001589732,5.348,0,0
-0.004838942,0.00129079,-0.0089660044,0.004210818,0.00011149800000000024,5.349,0,0
0.000307318,0.008990452000000001,-0.005452138400000001,0.0014264340000000003,0.0018770720000000002,5.35,0,0
0.005747222,0.014351154000000001,-0.0023634883999999997,-0.001322512,0.003713922,5.351,0,0
0.010577872,0.016288122000000002,-0.0006396004000000001,-0.0030034040000000003,0.004558864,5.352,0,0
0.013864696000000001,0.015074486000000002,0.0018801736000000002,-0.004548265,0.004824606,5.353,0,0
0.015317460000000001,0.010931026,0.004505716,-0.0057036560000000005,0.005093058,5.354,0,0
0.014521080000000002,0.0039598260000000005,0.005130050000000001,-0.005695686,0.004352622,5.355,0,0
0.011788446000000001,-0.0014629360000000004,0.0064533820000000006,-0.0051614880000000005,0.0031077692,5.356,0,0
0.008330971000000001,-0.00112699,0.009031794000000001,-0.004804216,0.002059313,5.357,0,0
0.0038599510000000004,0.004951922,0.008505396,-0.0036192920000000005,0.0004558549999999998,5.358,0,0
-0.001425809,0.015765442,0.004200052,-0.0010911140000000002,-0.0011947970000000003,5.359,0,0
-0.006280629,0.026048722,-0.0006406079999999995,0.001281548,-0.0018490170000000003,5.36,0,0
-0.009220239000000002,0.031621624,-0.00585973,0.003127724,-0.0023016842,5.361,0,0
-0.011731164000000002,0.031331264000000004,-0.01157301,0.005449762,-0.0025588220000000005,5.362,0,0
-0.012965424,0.024663124,-0.013533564,0.0071925980000000014,-0.0014867540000000003,5.363,0,0
-0.010765728,0.008707483999999998,-0.009705357999999999,0.0068458780000000006,0.00014966800000000004,5.364,0,0
-0.00862591,-0.015474976000000001,-0.004092217999999998,0.00577505,0.001187796,5.365,0,0
-0.007813806,-0.036151716,0.0016450020000000004,0.0045825781999999995,0.00242443,5.366,0,0
-0.00483159,-0.04589252,0.010574782,0.0020567762000000002,0.0037945059999999996,5.367,0,0
-0.0007210880000000004,-0.0478965,0.019231982,-0.0006447498,0.004220356000000001,5.368,0,0
0.0015335140000000001,-0.04274219,0.023887199999999997,-0.0025833558,0.00396029,5.369,0,0
0.00425336,-0.027567174000000003,0.027575800000000004,-0.004455755800000001,0.004155506,5.37,0,0
0.007050558000000001,-0.01128675,0.02801234,-0.006014032,0.0038832560000000003,5.371,0,0
0.007619796000000001,-0.0011654580000000003,0.02037734,-0.006234974000000001,0.002410732,5.372,0,0
0.0069433920000000005,0.008705102,0.00813092,-0.005302460000000001,0.001037918,5.373,0,0
0.005112636,0.018301631999999998,-0.003622319999999999,-0.0038641560000000005,-0.0005625979999999998,5.374,0,0
0.001913466,0.022352556000000003,-0.013923440000000002,-0.001516038,-0.0028279159999999998,5.375,0,0
-0.001531542,0.021377864,-0.020486220000000003,0.0009999580000000002,-0.0049138440000000005,5.376,0,0
-0.003732020000000001,0.017429732,-0.021311540000000004,0.0028602920000000004,-0.005919223999999999,5.377,0,0
-0.005320104000000001,0.008096872,-0.018730540000000004,0.00410854,-0.006224834,5.378,0,0
-0.006863040000000001,-0.004390448,-0.016645180000000002,0.004698464,-0.006120412,5.379,0,0
-0.0064307520000000005,-0.012302548,-0.015469960000000001,0.00417823,-0.005106234,5.38,0,0
-0.005385786,-0.017478320000000002,-0.012505468000000002,0.0031807180000000003,-0.003571708,5.381,0,0
-0.004185968000000001,-0.0196412,-0.007273648000000001,0.0024486602,-0.0016633319999999996,5.382,0,0
0.00016479799999999942,-0.013990620000000002,-0.0016135880000000004,0.0012547142000000002,0.0004154279999999999,5.383,0,0
0.0061969519999999995,-0.005003360000000001,0.004930792,0.00010076219999999994,0.002270212,5.384,0,0
0.00961291,0.0039866400000000005,0.012004672000000001,-0.00019820340000000001,0.0033260900000000003,5.385,0,0
0.011552966000000001,0.01650932,0.01635446,-0.0006287834000000001,0.003654956000000001,5.386,0,0
0.013225549999999999,0.02855154,0.0175866,-0.0016798256,0.003611744000000001,5.387,0,0
0.0098193494,0.030888599999999995,0.015770644,-0.0022521316000000003,0.0026262256000000005,5.388,0,0
0.0037231114000000004,0.030353460000000002,0.011781808000000001,-0.0025881736,0.0011338316000000003,5.389,0,0
0.0017044454,0.03305698,0.00879332,-0.003054704,-0.00014289439999999988,5.39,0,0
0.0013222834,0.03058392,0.0056476980000000005,-0.0028449622,-0.0014000224,5.391,0,0
-0.0014994306000000002,0.023135154,0.0009105559999999996,-0.0017517602,-0.0029822744,5.392,0,0
-0.00254942,0.01720803,-0.002912308,-0.0005550262,-0.0040989040000000004,5.393,0,0
-0.002138568,0.00586013,-0.006573812,0.00038704780000000007,-0.004478576,5.394,0,0
-0.005455142,-0.01445173,-0.010587664,0.0014975118000000003,-0.004770044,5.395,0,0
-0.008979392000000001,-0.02977133,-0.01149467,0.0023516640000000003,-0.004284164,5.396,0,0
-0.009606568000000001,-0.036150524,-0.009854616,0.0025477960000000006,-0.003021826,5.397,0,0
-0.009422514,-0.03854102,-0.0069258259999999995,0.0023397626,-0.0015376799999999998,5.398,0,0
-0.009195886,-0.03374510000000001,-0.0015526200000000002,0.0018045691999999999,0.0003768640000000002,5.399,0,0
-0.006289803,-0.021687682,0.002968862,0.0004274392000000001,0.002511966,5.4,0,0
-0.0014911630000000002,-0.010030358,0.003969918,-0.0013846928,0.003993784,5.401,0,0
0.0017169149999999998,-0.0041056756000000015,0.002953946,-0.0027718248,0.004808364000000001,5.402,0,0
0.003918421,-0.0017292236,0.0013514059999999999,-0.0037837554,0.005440486,5.403,0,0
0.0068390890000000005,0.0005355924000000002,-0.0005609079999999999,-0.00428481,0.005378222,5.404,0,0
0.008224418,0.0015850524000000001,-0.003190106,-0.00413287,0.004526522000000001,5.405,0,0
0.006643164000000001,0.0011919784000000004,-0.005223814,-0.0032068012,0.0034321878000000004,5.406,0,0
0.005700626,0.0015895120000000004,-0.005799912000000001,-0.002128529746,0.002321654,5.407,0,0
0.005102282,0.001999794,-0.006504060000000001,-0.001217381946,0.0003606780000000001,5.408,0,0
0.0030657980000000002,0.0019834260000000004,-0.007980072000000001,-0.0003578399459999999,-0.002008856,5.409,0,0
0.0011543699999999998,0.002840968,-0.0068336102000000004,0.00011001645400000001,-0.003243562,5.41,0,0
0.00026375999999999993,0.005259098,-0.0040625082,0.000664357654,-0.0039885158,5.411,0,0
-0.0011604060000000001,0.009329522,-0.0040600022,0.0015916782,-0.004328572,5.412,0,0
-0.0034037480000000007,0.016156868,-0.0038611262000000004,0.0021181764,-0.002915702,5.413,0,0
-0.0047459780000000005,0.021235860000000002,-0.0020315662,0.0020660680000000003,-0.0008406240000000003,5.414,0,0
-0.0060871680000000004,0.016992854000000005,-0.002410972,0.0025081776,0.0004257079999999998,5.415,0,0
-0.006967926,0.008826974000000001,-0.0036938120000000003,0.0024548556,0.001802292,5.416,0,0
-0.006573276,0.002415380000000001,-0.0019523399999999999,0.0011491516,0.0028847939999999996,5.417,0,0
-0.0050384164,-0.00537424,0.000545366,0.0002648176,0.002693684,5.418,0,0
-0.0018488043999999996,-0.011800394,0.0035857860000000005,-0.000461616,0.002338422,5.419,0,0
0.0010546036000000003,-0.011995608000000001,0.009578886000000002,-0.001633536,0.002702264,5.42,0,0
0.0030014476,-0.010125908000000001,0.015806244,-0.0021505219999999998,0.0025350919999999996,5.421,0,0
0.0036419850000000004,-0.011774474000000002,0.020317764000000002,-0.0017399784,0.0017397553999999999,5.422,0,0
0.0033347994,-0.013907254,0.02330554,-0.0013246453999999999,0.0015896273999999998,5.423,0,0
0.0037776354000000002,-0.013057544,0.023132719999999996,-0.0006710434,0.0010801334000000002,5.424,0,0
0.0041304254,-0.010433726,0.0176435372,0.0004398686000000001,-0.0004769846,5.425,0,0
0.0036873754,-0.006648292,0.0092295972,0.0010564186000000001,-0.0015692386000000001,5.426,0,0
0.0034252344000000002,-0.0008306519999999999,0.0009259371999999996,0.0012077518000000002,-0.002049492,5.427,0,0
0.0028983684,0.0033773918,-0.009107662800000001,0.0014605888000000001,-0.003180594,5.428,0,0
0.00041871840000000013,0.0011106158,-0.018975542800000002,0.0021033668,-0.003727816,5.429,0,0
-0.0015038216000000002,-0.0028338022000000004,-0.02184014,0.0023395348,-0.00292261592,5.43,0,0
-0.0022614956000000003,-0.0073102162000000005,-0.017538072000000002,0.0022550788,-0.0019123639199999996,5.431,0,0
-0.0030785240000000005,-0.012167656200000002,-0.011608192000000002,0.0022494734000000002,-0.00079335792,5.432,0,0
-0.0026061300000000008,-0.00985824,-0.004115306,0.0014877314,0.0006350420800000002,5.433,0,0
-0.0019624711600000006,-0.001556000000000001,0.00508037,0.0003055834,0.0014509770800000003,5.434,0,0
-0.0023023951600000003,0.0066424200000000004,0.008939988,-0.0007920206,0.0010457090000000001,5.435,0,0
-0.0023483871600000006,0.01402832,0.005860152,-0.0016331346,0.00038360100000000007,5.436,0,0
-0.0015429909600000002,0.02027136,0.0007785919999999998,-0.00207882,9.25989999999999e-05,5.437,0,0
-0.0014943789600000003,0.02192722,-0.005161114,-0.001509725,-0.00019532100000000014,5.438,0,0
-0.0012220698000000002,0.018125514000000002,-0.00985107,-0.0006393429999999997,-0.00032067620000000006,5.439,0,0
0.0012457362,0.011451342,-0.011214366,-0.00021841349999999996,0.00032849179999999993,5.44,0,0
0.0042316102,0.006289096,-0.013611758000000002,0.0004710075,0.000738302,5.441,0,0
0.006053632,0.004960215999999999,-0.013885198000000001,0.0012784055,0.000198518,5.442,0,0
0.00723922,0.008692376,-0.004810318000000001,0.0015995425000000002,-0.00014304260000000006,5.443,0,0
0.007266782000000001,0.021239302,0.0042512620000000004,0.0018174725000000003,-0.0002076590000000001,5.444,0,0
0.00460233,0.036433754,0.005972139999999999,0.0026951530000000005,-0.000961081,5.445,0,0
-0.0002454900000000001,0.044056200000000004,0.008488022,0.0029043380000000007,-0.0011796558,5.446,0,0
-0.004892208,0.038854120000000006,0.011766474,0.0021011220000000004,-0.0006200998,5.447,0,0
-0.007347106000000001,0.01912366,0.007289566,0.0014947096000000003,-0.0007156492,5.448,0,0
-0.007690367,-0.004855800000000002,0.00011145199999999995,0.0005172956000000001,-0.0006425873999999999,5.449,0,0
-0.00679413978,-0.023134920000000003,0.00024991200000000014,-0.0011773584,0.0002487886000000001,5.45,0,0
-0.00433789778,-0.03518798,0.002955206,-0.0023337184000000004,0.0007586792000000001,5.451,0,0
-0.00134744838,-0.04041032,0.000639398,-0.0025778664,0.0007922652000000002,5.452,0,0
0.00028655522000000007,-0.0383969,-0.0024634740000000002,-0.002856324,0.0015838392000000001,5.453,0,0
0.00110496422,-0.0342958,-0.002192074,-0.003081476,0.002014182,5.454,0,0
0.002002649,-0.03154056,-0.0014154740000000003,-0.002370494,0.0014733440000000001,5.455,0,0
0.002296635,-0.027688344,0.0008160899999999998,-0.0016792801999999999,0.0009692514,5.456,0,0
0.0012078776,-0.021701664000000002,0.008105806,-0.0016705421999999998,0.0008352308,5.457,0,0
0.0005417279999999999,-0.014348564000000003,0.016516666000000003,-0.001111745,0.000321725,5.458,0,0
0.0011090039999999998,-0.009754180000000001,0.02053554,3.119500000000003e-05,-0.000589011,5.459,0,0
0.0008658400000000001,-0.00967482,0.018960154,0.0005739690000000001,-0.000961255,5.46,0,0
-0.0005786239999999999,-0.010971096000000001,0.010729794,0.0009386572000000001,-0.0012628244,5.461,0,0
-0.00039564000000000016,-0.009390984,-0.001563245999999999,0.0017751232000000003,-0.0016816838,5.462,0,0
0.00022002220000000012,-0.004437204,-0.011520786000000002,0.00192967,-0.001576502,5.463,0,0
-0.0017534718,0.0002945519999999996,-0.017755746,0.0012746912000000002,-0.0004802280000000001,5.464,0,0
-0.0028534358,0.006364172,-0.02146692,0.0009068584000000001,0.0005507880000000002,5.465,0,0
-0.0014621698000000002,0.014311672000000001,-0.0198575,0.0008002850000000001,0.001391838,5.466,0,0
-1.3075800000000143e-05,0.02026386,-0.014095502000000001,0.00030220340000000005,0.002125938,5.467,0,0
0.0007414359999999999,0.022074340000000005,-0.009072832000000001,-0.0001126472,0.001746404,5.468,0,0
0.0019295280000000002,0.021552520000000002,-0.004605661999999999,-0.0002111662,0.0009160620000000001,5.469,0,0
0.0030437820000000005,0.02007796,0.00027150799999999973,-0.0003480978,0.0004771452,5.47,0,0
0.0022036160000000003,0.015081204,0.0053548680000000005,-0.00045342400000000007,-9.439160000000001e-05,5.471,0,0
0.0007663080000000003,0.008513241999999999,0.00968445,-0.00045375540000000005,-0.0008303615999999999,5.472,0,0
0.000913324,0.0041705200000000005,0.01150668,-0.0009719068000000001,-0.0007864265999999999,5.473,0,0
0.0019157780000000001,0.00047745999999999997,0.010577432000000001,-0.001449559,-0.0005854806,5.474,0,0
0.002280224,-0.00445538,0.008188526,-0.0013514570000000001,-0.0005266015999999999,5.475,0,0
0.0015758399999999998,-0.009893364000000002,0.004889210000000001,-0.0015244512,3.5065200000000045e-05,5.476,0,0
0.0007019700000000005,-0.011746962000000001,0.0004895139999999999,-0.0013376674,0.000417348,5.477,0,0
0.0002596100000000004,-0.009243460000000002,-0.00352914,-0.0002959973999999999,0.00016979699999999996,5.478,0,0
-0.001055798,-0.006704766000000003,-0.006134602,0.0006785606000000001,-0.0005280150000000001,5.479,0,0
-0.002706604,-0.003621256000000002,-0.007507538,0.0007215748000000001,-0.0017094032,5.48,0,0
-0.001441238,0.0030301219999999997,-0.008688982000000001,0.0010646366,-0.0031926812,5.481,0,0
0.000985652,0.008303342,-0.009489548,0.0012347272,-0.00427234,5.482,0,0
0.000955794,0.009506922000000001,-0.008744094,0.0002588972000000001,-0.004341536000000001,5.483,0,0
0.0009060518,0.011723728000000001,-0.007517992,-0.0006641428000000001,-0.0036031218,5.484,0,0
0.0017484198,0.014813398,-0.00652838,-0.0009616106000000002,-0.0023539200000000002,5.485,0,0
0.0020895538000000003,0.017751640000000003,-0.00368066,-0.00117835342,-0.0007030500000000001,5.486,0,0
0.0021424558000000004,0.02058878,0.0019830620000000003,-0.0013968082200000002,0.000807912,5.487,0,0
0.0021885738000000004,0.021118320000000003,0.007246642000000001,-0.00030793422000000004,0.001488404,5.488,0,0
0.0011851560000000001,0.01627063,0.011809440000000001,0.00100554778,0.0017838158000000003,5.489,0,0
-0.00014485399999999992,0.010343429999999999,0.018074,0.0015148397800000002,0.0021814160000000003,5.49,0,0
-0.000308146,0.006238024,0.02326666,0.0019414786000000002,0.00192214,5.491,0,0
-0.0011604772,-0.0028134160000000004,0.02352878,0.002414012,0.00114837,5.492,0,0
-0.0016346978,-0.013389536,0.020626042,0.0019864628,0.000813607,5.493,0,0
-0.0006148358,-0.018270386,0.015383116000000002,0.0011136994,0.0008289390000000001,5.494,0,0
-0.0004697538000000001,-0.019287326,0.0031360359999999983,0.0009664161999999997,0.00028144220000000003,5.495,0,0
-0.0017863638,-0.01993661,-0.011818104000000003,0.0007402402,-0.00011824259999999994,5.496,0,0
-0.0025911686,-0.016831046,-0.018755904000000004,0.0004703066,0.0007516814000000002,5.497,0,0
-0.0031366740000000003,-0.01161211,-0.019176768000000004,0.0007954118,0.0014155784000000002,5.498,0,0
-0.0038585980000000004,-0.011633790000000001,-0.017190846000000003,0.0012657132,0.0015011744000000002,5.499,0,0
-0.003187466,-0.01580393,-0.008836892000000002,0.0011545354,0.0021747752,5.5,0,0
-0.002486478,-0.01912312,0.002972268,0.0009043466000000001,0.002806336,5.501,0,0
-0.0022297280000000003,-0.017336692,0.008471168000000001,0.0009277322000000002,0.0024172440000000003,5.502,0,0
-0.0016194516,-0.010795868,0.0074040404,0.0006014866,0.0020165742,5.503,0,0
-0.0005520696,0.0004429919999999997,0.0029084843999999995,-0.0003543854,0.0018782602000000002,5.504,0,0
0.0005567484000000001,0.012646012000000002,-0.004347169600000001,-0.0008931664000000001,0.0008886841999999999,5.505,0,0
0.0012191844,0.018341152,-0.011241989600000002,-0.0010244548,7.330199999999959e-06,5.506,0,0
0.0023081724,0.016752979999999997,-0.015488539600000004,-0.0019107968,-0.00018523960000000003,5.507,0,0
0.0029348940000000004,0.011009924,-0.016190776,-0.0025319572000000005,-0.0006721698000000001,5.508,0,0
0.002102296,0.004983023999999999,-0.012161141200000001,-0.0019068838000000001,-0.0014391398000000001,5.509,0,0
0.0007399520000000002,0.000906162,-0.0037750612,-0.0016282598,-0.0012914308,5.51,0,0
0.0003790608000000001,0.0023445420000000002,0.0046959988,-0.0017303166,-0.000850891,5.511,0,0
0.00043382280000000005,0.008341842,0.0074183068000000015,-0.0008628196,-0.0012235112000000001,5.512,0,0
0.00020725880000000015,0.015354398000000002,0.005983692800000001,-0.00033567159999999994,-0.0009783504000000001,5.513,0,0
0.0006890408000000002,0.023748958,0.005329572000000001,-0.000514435,2.5587599999999917e-05,5.514,0,0
0.0011492172000000002,0.026434399999999997,0.002887962200000001,-0.0001831338,0.0003246635999999999,5.515,0,0
0.0006455164,0.018179640000000004,-0.0014543323999999995,3.138960000000001e-05,0.00017013799999999994,5.516,0,0
-0.0002612835999999999,0.0033204199999999993,-0.0030185804,-0.0008625174000000001,0.0006476486,5.517,0,0
-0.00036786160000000013,-0.017426000000000004,-0.0028904663999999997,-0.0014347214,0.0003690098,5.518,0,0
-0.0002281956000000002,-0.04203578,-0.0026868224000000003,-0.0011973702000000002,-0.0012750482,5.519,0,0
0.0003151819999999999,-0.058187100000000005,0.0002980274000000003,-0.0015539074000000001,-0.0018153592,5.52,0,0
0.001584824,-0.062218300000000004,0.005425822,-0.0017676948000000003,-0.0017457724000000002,5.521,0,0
0.0024505300000000002,-0.05935136000000001,0.009330632000000002,-0.0008321428000000002,-0.002127955,5.522,0,0
0.0026004720000000004,-0.04777202,0.012078674,0.0001342192,-0.001409303,5.523,0,0
0.002479466,-0.02864734,0.010991734,0.00042968,-0.00024018500000000005,5.524,0,0
0.0016646500000000002,-0.0032309400000000016,0.003163113999999999,0.0013420060000000002,-0.0002497570000000001,5.525,0,0
-0.000616912,0.02664656,-0.006159426000000001,0.00232526,-0.0006678680000000001,5.526,0,0
-0.0027240960000000005,0.04929212,-0.010244504000000001,0.00236714,-0.00073347,5.527,0,0
-0.005005934000000001,0.05716648,-0.010037540000000001,0.002399958,-0.0007706379999999999,5.528,0,0
-0.007138318000000001,0.05574061,-0.008652153800000001,0.0027327420000000002,-0.00047672600000000007,5.529,0,0
-0.006546662000000001,0.04655433,-0.004867557800000001,0.002706098,0.0005112160000000001,5.53,0,0
-0.0038086140000000005,0.02898987,-0.0013110098,0.0021185796,0.0015617960000000003,5.531,0,0
-0.0017890640000000001,0.015146370000000001,-0.0015679178,0.0018256938,0.0017538176,5.532,0,0
0.000234516,0.01247115,-0.0020506298000000003,0.0013708964,0.0012948214,5.533,0,0
0.0027193580000000003,0.013289554000000002,0.000832766,-4.3160000000016033e-07,0.0009197552,5.534,0,0
0.0025076312000000003,0.011538922000000002,0.00441625,-0.0010337116,0.0003824340000000001,5.535,0,0
0.0008512191999999999,0.00975418,0.006892536,-0.0011633763400000002,6.799200000000001e-05,5.536,0,0
-0.00040005880000000007,0.008317154,0.009381396,-0.0016686025400000004,0.0006530164000000001,5.537,0,0
-0.0007753834000000001,0.007692718000000001,0.009161328,-0.0020934551400000005,0.0009601264000000001,5.538,0,0
-0.0006369754,0.0074596260000000005,0.005819576000000002,-0.00153188294,0.0008508768000000001,5.539,0,0
-0.00018511260000000018,0.004902500000000001,0.0034008220000000004,-0.00152259294,0.0008069202000000001,5.54,0,0
0.0012239954,0.0016060940000000004,0.0016895862000000004,-0.0018573478,0.00021887620000000008,5.541,0,0
0.0026500134,-0.0016798999999999996,-0.0007292458,-0.00123983,-0.0007103138,5.542,0,0
0.00326052,-0.0060714440000000005,-0.0015671838,-0.0006442552000000001,-0.0007178144,5.543,0,0
0.003108748,-0.010523286,-0.000932854,-0.0007414754,-0.0003163986,5.544,0,0
0.001969478,-0.017738308,-0.000687918,-0.0006149094,-0.0006885208,5.545,0,0
-9.74280000000001e-05,-0.029161180000000002,0.0003816418000000001,0.00010305659999999996,-0.0005091288,5.546,0,0
-0.001199306,-0.03667834,0.0027700218,0.0002654528,0.00018871919999999997,5.547,0,0
-0.002182652,-0.0381972,0.0049711898,3.6440999999999985e-05,0.00010271099999999997,5.548,0,0
-0.0030278520000000006,-0.035585082,0.006343194,0.0006424849999999999,-0.00015499340000000005,5.549,0,0
-0.00436133,-0.027808856,0.005914610200000001,0.0011788649999999999,0.0007589786000000001,5.55,0,0
-0.0064159180000000005,-0.01360951,0.0027406722,0.0010802630000000001,0.0015051566000000003,5.551,0,0
-0.004754656,0.0010788699999999991,-0.0014204898000000007,0.0014329610000000002,0.0010282266000000003,5.552,0,0
-0.0007991379999999996,0.008787370000000001,-0.0048981718,0.0017644020000000002,0.0005497536000000001,5.553,0,0
0.0016139519999999997,0.013765392000000001,-0.0083116418,0.001374686,0.00020805600000000014,5.554,0,0
0.005040068,0.020022226000000004,-0.01038268,0.0012276374,-0.0007757319999999999,5.555,0,0
0.009376196,0.024407840000000004,-0.008735857999999999,0.000908721,-0.001965624,5.556,0,0
0.008962002000000002,0.02416418,-0.003937618,-0.00011720300000000002,-0.001538594,5.557,0,0
0.00620687,0.02373756,-0.0022770396000000004,-0.0006803530000000001,-0.0008695700000000001,5.558,0,0
0.005808462,0.02377516,-0.005489391600000001,-0.0006096968,-0.0011912440000000002,5.559,0,0
0.0064544580000000015,0.022155219999999996,-0.0053234096000000005,-0.0005422228,-0.0009808980000000002,5.56,0,0
0.006490448,0.017292506,-0.0041053696,-0.00034329939999999995,-0.0004131028000000001,5.561,0,0
0.005529606,0.009153026,-0.007516477600000001,0.0005367526,-0.0011022968,5.562,0,0
0.0033171400000000005,-0.0025710740000000013,-0.011610884,0.0011501466,-0.0015253996000000002,5.563,0,0
-0.00024926400000000034,-0.024205234,-0.013780984,0.0007820944,-0.0002031076000000001,5.564,0,0
-0.0035425720000000008,-0.048059214,-0.012040696399999998,0.00035136100000000007,0.0002171524,5.565,0,0
-0.005824166,-0.058626880000000006,-0.004060278400000001,-4.526400000000002e-05,0.0001961674,5.566,0,0
-0.006337510000000001,-0.054335829999999995,0.006440949600000001,-0.001126642,0.0011003013999999998,5.567,0,0
-0.005194558000000001,-0.04111557,0.017847589599999998,-0.002038926,0.0010484982,5.568,0,0
-0.0042859560000000005,-0.01936925,0.0304799096,-0.0017464808,6.443219999999997e-05,5.569,0,0
-0.003911584,0.00534289,0.0341111,-0.0016519944,0.00010685020000000001,5.57,0,0
-0.0030795248000000004,0.021079590000000002,0.025842988000000004,-0.0018465524000000001,0.000290806,5.571,0,0
-0.0022686052000000004,0.025198660000000005,0.013568688,-0.001137379,-0.000695114,5.572,0,0
-0.0024544112,0.021457578000000005,0.001962768,-0.0005408676000000001,-0.000765488,5.573,0,0
-0.0021367372,0.015262978000000005,-0.005186038,-0.0007459028,-4.1282000000000016e-05,5.574,0,0
-0.0014375258000000003,0.008161476,-0.008561023,-0.0001420372000000001,-0.00044760000000000004,5.575,0,0
-0.0014253906000000003,-0.00028986400000000035,-0.009712075,0.0009399228,-0.0008218522,5.576,0,0
-0.0012763342000000003,-0.006603396000000001,-0.007357725,0.0009765766,0.00016645379999999995,5.577,0,0
-0.0002655382,-0.007284970000000001,-0.004169259,0.0011358226,0.0009445858,5.578,0,0
0.0010114218,-0.004341376000000001,-0.003822607,0.0012595932000000001,0.0008987778,5.579,0,0
0.0015578884000000002,0.0006438059999999998,-0.004821122,0.0003115191999999999,0.0015375898,5.58,0,0
0.00195837,0.007828266,-0.00596299,-0.0005052428,0.002102806,5.581,0,0
0.0022776280000000003,0.013390258000000002,-0.00829974,-0.0006111198000000001,0.0016295116000000001,5.582,0,0
0.002492858,0.018460174000000003,-0.010534986000000001,-0.0008694148,0.0011506436000000002,5.583,0,0
0.0028568540000000003,0.024138640000000003,-0.012302332000000003,-0.0010976554,0.000923499,5.584,0,0
0.0024381720000000006,0.025424780000000004,-0.014196312000000003,-0.00043070680000000005,0.000124473,5.585,0,0
0.0010931820000000005,0.022573718,-0.014119620000000003,2.3749199999999952e-05,-0.0007219630000000002,5.586,0,0
-3.339399999999996e-05,0.018552641999999998,-0.012012612,-0.00031296700000000004,-0.0006674820800000001,5.587,0,0
-0.0010485160000000002,0.009460542,-0.009951786,-0.00033740859999999997,-0.0004765106800000001,5.588,0,0
-0.0024639700000000002,-0.004393998,-0.005342375999999999,6.870360000000001e-05,-0.0008903400800000002,5.589,0,0
-0.0025631032,-0.014759577999999999,0.002622644000000001,-0.00018106259999999994,-0.0007666276800000002,5.59,0,0
-0.0014199868,-0.019762756,0.007973844,-0.0009654886,3.5578319999999945e-05,5.591,0,0
-0.0010745408,-0.020562804,0.009280444,-0.0006624406,-2.1938200000000088e-05,5.592,0,0
-0.0012755608,-0.014549484,0.011482036000000001,-0.00020804340000000001,-0.00012224220000000007,5.593,0,0
-0.0009904684,-0.003768324,0.012754846,-0.0002726696,0.0004955818,5.594,0,0
-0.0002684832,0.0043294760000000005,0.009882326,0.00011586400000000005,0.0004705374000000001,5.595,0,0
0.00020257640000000013,0.008230257999999999,0.009168546,0.00061737928,0.0002010944,5.596,0,0
0.0006539704000000002,0.010708618,0.012874098,0.00020389328,0.0006534603999999999,5.597,0,0
0.0014037108000000001,0.010994638000000001,0.015370239999999999,-0.00047462272000000006,0.000467709,5.598,0,0
0.0014338506,0.009780398000000001,0.014628028,-0.00031080992,-3.2049000000000086e-05,5.599,0,0
0.0008753690000000002,0.010518218000000001,0.012871434000000001,-0.0004903253200000001,0.000430283,5.6,0,0
0.000604105,0.008839482000000001,0.009545644,-0.0003899900000000001,0.00046922999999999995,5.601,0,0
0.00014026499999999999,-0.000203534,0.004808814000000001,0.000817492,-0.00023349799999999998,5.602,0,0
-0.0007211654000000001,-0.010477914,0.0031745560000000003,0.001474976,-0.0002992558,5.603,0,0
-0.0010530436,-0.016662434,0.003631928,0.0014267614,-0.00015714839999999997,5.604,0,0
-0.0015347820000000002,-0.020666202,0.0029345472,0.0018551648000000001,-0.0008025004,5.605,0,0
-0.002721082,-0.018676237999999998,0.0009091171999999997,0.0019020032000000003,-0.0010581846000000002,5.606,0,0
-0.00298715,-0.005980798000000001,-0.0013315928000000002,0.0009477470000000001,-0.0005431146,5.607,0,0
-0.0022621454,0.007248282000000002,-0.0026088468000000004,0.0007580668,-0.0006175748000000001,5.608,0,0
-0.0018462630000000001,0.012392260000000002,-0.0033498588,0.0009444726,-0.0007292052,5.609,0,0
-0.0014765844,0.012135390000000003,-0.0027287180000000006,9.669460000000002e-05,1.3754799999999992e-05,5.61,0,0
-0.0006436354000000001,0.0062709800000000015,-0.0018394120000000001,-0.0003332024,0.00042560500000000007,5.611,0,0
-0.0008195994,-0.00894708,-0.004195932000000001,-2.2454399999999986e-05,8.004820000000003e-05,5.612,0,0
-0.001568804,-0.025437960000000003,-0.010577240000000002,-0.0006891602000000001,0.0001814434,5.613,0,0
-0.0008329784000000001,-0.030729378000000005,-0.016699428000000002,-0.0017466642000000003,0.00045804100000000007,5.614,0,0
0.00028540900000000003,-0.029361114599999998,-0.020097334,-0.0016972582000000002,7.841360000000004e-05,5.615,0,0
0.0007825320000000001,-0.0252601106,-0.02016796,-0.0013849746000000002,-5.38162e-05,5.616,0,0
0.001720352,-0.011795150600000002,-0.014830508200000002,-0.0015504076000000002,0.0004068686000000001,5.617,0,0
0.0025982974,0.0058523294,-0.008088134200000001,-0.0008295672,0.0004491714000000001,5.618,0,0
0.0024136474000000002,0.018585449400000002,-0.0035185642000000006,0.00040441079999999996,4.106680000000003e-05,5.619,0,0
0.0027260294,0.032118304,-0.0009467842000000001,0.0004218748,-1.2429199999999959e-05,5.62,0,0
0.0033732894,0.04845954,-0.0008715182000000002,-5.1380800000000015e-05,-0.00033890820000000003,5.621,0,0
0.0024273654000000005,0.054873000000000005,-0.00448543,-0.0001565418,-0.0012490742000000003,5.622,0,0
0.0010197900000000002,0.04490616000000001,-0.009477504000000001,-0.0006238502000000001,-0.0017384802000000002,5.623,0,0
-0.0002607839999999998,0.024248900000000004,-0.009455159400000001,-0.0011883474,-0.0017118602,5.624,0,0
-0.002526092,0.0003941600000000045,-0.0042867593999999995,-0.0008317512,-0.0014729252,5.625,0,0
-0.0041431540000000005,-0.02049136,0.002208514600000001,-0.0006225012000000001,-0.0012404978,5.626,0,0
-0.0028077720000000005,-0.031026566,0.010422054600000001,-0.0011814310000000001,-0.0008068946000000002,5.627,0,0
-5.118000000000136e-06,-0.025826865999999997,0.0193422546,-0.0015848330000000001,-0.00037825940000000007,5.628,0,0
0.002525198,-0.011602685999999997,0.022262740000000003,-0.0021621338000000004,-0.0006041854000000001,5.629,0,0
0.004709982,0.0018733140000000005,0.01945016,-0.003087316,-0.000982061,5.63,0,0
0.0055398520000000005,0.009582794,0.015563640000000002,-0.003711382,-0.0010961856000000002,5.631,0,0
0.0042567080000000005,0.00784254,0.00882136,-0.0032329740000000004,-0.0009752542,5.632,0,0
0.001621372,-0.0011912,0.001227240000000001,-0.0019066320000000003,-0.00030279739999999997,5.633,0,0
-0.0009690960000000001,-0.01003962,-0.0031734960000000005,-0.00018150799999999993,0.0010273726000000001,5.634,0,0
-0.0034813760000000004,-0.015741460000000002,-0.006714576000000001,0.0027741680000000005,0.0019628685999999998,5.635,0,0
-0.005324440000000001,-0.02047898,-0.009368466,0.006625078000000001,0.0023916226,5.636,0,0
-0.005661450000000001,-0.02170222,-0.009577506000000001,0.009692586000000001,0.0032240360000000004,5.637,0,0
-0.005355838,-0.018932360000000002,-0.010626686,0.012357084,0.003366434,5.638,0,0
-0.004869394,-0.018377660000000004,-0.01145783,0.01476446,0.0026490596000000003,5.639,0,0
-0.0037163832000000003,-0.02062432,-0.0100548682,0.01488134,0.0029314696,5.64,0,0
-0.0017090471999999998,-0.02065138,-0.0089947102,0.013678034000000002,0.0039437336,5.641,0,0
-0.00010531920000000016,-0.0170334634,-0.0067761302,0.012550802,0.0040417835999999995,5.642,0,0
0.0016888368,-0.008680983399999998,-0.0004623501999999999,0.010194144,0.0041662436,5.643,0,0
0.0038766788,0.005229856600000001,0.0066537298,0.007119217999999999,0.004787472,5.644,0,0
0.004839184000000001,0.021790296600000002,0.012354468,0.004698722400000001,0.00425808,5.645,0,0
0.0045555427999999995,0.0401962166,0.02040054,0.0016397044000000002,0.0031251380000000004,5.646,0,0
0.004371378800000001,0.0557195,0.028889600000000005,-0.0025780436000000006,0.0024628900000000006,5.647,0,0
0.0037900788,0.06042948,0.029308760000000003,-0.0067425656,0.0013946679999999997,5.648,0,0
0.0014860148000000002,0.05513092,0.020778120000000004,-0.010883599600000002,-0.0005955940000000003,5.649,0,0
0.00038533280000000017,0.03920982,0.008697760000000002,-0.015038664000000002,-0.002809476,5.65,0,0
0.001034616,0.011163699999999999,-0.006733639999999999,-0.0182017,-0.004982914000000001,5.651,0,0
0.000812318,-0.01619846,-0.02120894,-0.019739760000000002,-0.007191226,5.652,0,0
-7.112200000000001e-05,-0.03179602,-0.02608432,-0.01989232,-0.008760432000000002,5.653,0,0
1.725400000000002e-05,-0.03924830000000001,-0.023004274,-0.018547020000000004,-0.008577182000000001,5.654,0,0
-0.00042288000000000015,-0.03943272,-0.016428145,-0.014918026000000001,-0.007500954000000001,5.655,0,0
-0.002113264,-0.030379600000000003,-0.006771503,-0.010285750000000001,-0.006099150000000001,5.656,0,0
-0.0019252660000000001,-0.019737276,0.0020677570000000004,-0.0064300794,-0.0039952270000000005,5.657,0,0
-0.00018998400000000025,-0.015190076,0.005693297000000001,-0.0026764454000000005,-0.0020962306,5.658,0,0
0.0008832620000000001,-0.015014696000000001,0.006037313200000002,0.0003577386,-0.0006962746,5.659,0,0
0.0019200600000000001,-0.015365756000000001,0.004691292200000001,0.0011714336000000001,0.0003864334000000001,5.66,0,0
0.0034845820000000004,-0.016631056,0.00045421020000000097,0.0006940936000000001,0.0009120412400000001,5.661,0,0
0.00341026,-0.01806164,-0.005279089799999999,0.000575129,0.00047351224000000006,5.662,0,0
0.0022031576000000005,-0.015858062000000003,-0.009840249799999999,0.000651187,0.00041462644000000006,5.663,0,0
0.0018154236,-0.008988422000000003,-0.012751372,0.0012195290000000002,0.0007114504400000001,5.664,0,0
0.0017122256,0.0019842179999999994,-0.01398542,0.002642096,0.00034478684000000003,5.665,0,0
0.0014352015999999999,0.016123478,-0.0116386548,0.004316296000000001,0.0003020102,5.666,0,0
0.0008026115999999999,0.029568518000000002,-0.0044664948,0.00589231,0.0009074442,5.667,0,0
-0.00041167999999999977,0.03706964,0.004012745200000001,0.007000158,0.0012869556,5.668,0,0
-0.0018709579999999998,0.035880658,0.010192825200000002,0.007748396000000001,0.0010506856000000002,5.669,0,0
-0.0028693620000000003,0.02798319,0.015367145200000001,0.007781286000000001,0.0014904612000000003,5.67,0,0
-0.0035704,0.016026210000000003,0.01892804,0.007485350000000001,0.0020525840000000005,5.671,0,0
-0.003575946,0.0026008699999999995,0.018153640000000002,0.00713244,0.0016423126000000001,5.672,0,0
-0.0025422360000000002,-0.007377410000000001,0.017648320000000002,0.005735101000000001,0.0014049406000000001,5.673,0,0
-0.000879102,-0.011704508000000002,0.02102646,0.003342513,0.0016771686000000001,5.674,0,0
0.0002230100000000001,-0.013495440000000001,0.022657800000000002,0.0016698504,0.0014026086,5.675,0,0
0.0003392780000000001,-0.013308939999999998,0.02135028,0.0007810484,0.000708253,5.676,0,0
0.0006221548,-0.012315528000000001,0.019042648,-0.00034722760000000007,0.0007601832000000001,5.677,0,0
0.00041516480000000004,-0.016842728,0.013020022,-0.0004822625200000001,0.000479274,5.678,0,0
-0.0010809632,-0.022895968000000003,0.0015884619999999997,0.00011438007999999996,-0.000584498,5.679,0,0
-0.0029542272000000003,-0.021712568000000005,-0.012491598,-0.00016624732000000006,-0.0010502,5.68,0,0
-0.0041137112,-0.015506308000000002,-0.022508378000000002,-0.00066478732,-0.0012661464,5.681,0,0
-0.005082994,-0.007906140000000002,-0.025055508000000004,-0.0006677693200000002,-0.0016656192000000002,5.682,0,0
-0.005804500000000001,0.004060000000000001,-0.023106490000000004,-0.0009482254,-0.0015028563800000001,5.683,0,0
-0.004759559400000001,0.01844056,-0.017905178000000004,-0.001115624,-0.0006503523800000003,5.684,0,0
-0.0025588074,0.027378120000000002,-0.009765098,-0.0004384900000000001,-0.00019571438,5.685,0,0
-0.0009616873999999998,0.0315785,-0.005319758000000001,-3.462440000000003e-05,0.00022814221999999993,5.686,0,0
-3.6151599999999906e-05,0.036621820000000006,-0.008570156,-0.00011254240000000004,0.0012726682200000002,5.687,0,0
0.00043320040000000015,0.04113096000000001,-0.015777328,-0.00021350640000000005,0.0017130626000000002,5.688,0,0
0.00019367100000000013,0.0399291,-0.022974080000000004,-0.0010916804,0.0013320426,5.689,0,0
0.000988249,0.031700166,-0.027403160000000003,-0.0029215684,0.0012084642,5.69,0,0
0.0036795730000000002,0.014414306,-0.02885982,-0.004654966,0.0008236236000000001,5.691,0,0
0.006499543200000001,-0.009938474000000001,-0.028078640000000002,-0.005936548,-0.0007649403999999999,5.692,0,0
0.009397311200000001,-0.030374814000000003,-0.023647898,-0.007362222000000001,-0.0020232144,5.693,0,0
0.011710370000000001,-0.04195771400000001,-0.014293878,-0.00846272,-0.0026603164,5.694,0,0
0.01106493,-0.04561830000000001,-0.0010561379999999999,-0.008122820000000001,-0.003725736,5.695,0,0
0.007871646000000001,-0.04070936000000001,0.012718001999999999,-0.0064861836,-0.004337056000000001,5.696,0,0
0.003710782,-0.030312800000000004,0.025182721999999998,-0.004137497600000001,-0.0034184604000000005,5.697,0,0
0.00023595799999999987,-0.02044334,0.033779460000000004,0.0005396304000000003,-0.0017075584000000002,5.698,0,0
-0.0017987528000000005,-0.013321860000000001,0.03615704,0.008189602399999999,0.0006759076000000001,5.699,0,0
-0.0025593096000000003,-0.006668348,0.036396319999999996,0.0163551204,0.0046800056,5.7,0,0
-0.0026162836000000003,0.0024319320000000004,0.036929340000000005,0.024028717999999998,0.008690209600000002,5.701,0,0
-0.0030925616000000004,0.013242352,0.03464802,0.03128636,0.0111508,5.702,0,0
-0.004803617600000001,0.021739732,0.028866896000000003,0.035536319999999996,0.012473262,5.703,0,0
-0.0069240688000000005,0.025628792,0.021059836000000002,0.03503574,0.01302366,5.704,0,0
-0.007919440000000002,0.025491786000000002,0.009942456000000002,0.03235672,0.01241458,5.705,0,0
-0.008797976,0.019523202,-0.0033105840000000005,0.028695659999999998,0.01124758,5.706,0,0
-0.008278722,0.007469602000000001,-0.012998664,0.023640460000000002,0.010757974,5.707,0,0
-0.007091000000000001,-0.004753318000000001,-0.016628220000000003,0.018329446000000003,0.010664354000000001,5.708,0,0
-0.007643478,-0.011046118,-0.01642884,0.012926990000000001,0.009926944000000002,5.709,0,0
-0.007370252000000001,-0.011200492000000001,-0.014775940000000001,0.005257030000000001,0.007761,5.71,0,0
-0.0069326100000000005,-0.011135532,-0.01341718,-0.00514511,0.004099576000000001,5.711,0,0
-0.007456192000000001,-0.008607118,-0.013166440000000001,-0.01683833,-0.0019853579999999996,5.712,0,0
-0.005065096,0.00017936199999999975,-0.011477062,-0.030972056000000005,-0.010697818000000001,5.713,0,0
-0.000141216,0.006370182,-0.009112184,-0.04636458,-0.020120368,5.714,0,0
0.0029386760000000003,0.0050082246000000006,-0.009389364,-0.058436720000000004,-0.028258244000000002,5.715,0,0
0.006454348,0.005930598600000001,-0.008953284,-0.06484816000000002,-0.032896260000000004,5.716,0,0
0.011481897999999999,0.0102619246,-0.005556308,-0.06586150000000002,-0.032922400000000004,5.717,0,0
0.01369036,0.0078682226,-0.0033561999999999997,-0.06050330000000001,-0.029544660000000004,5.718,0,0
0.014212720000000002,0.0030108306,-0.0025077959999999996,-0.04888912000000001,-0.0238842,5.719,0,0
0.015042900000000001,0.0007097559999999998,0.0008918160000000002,-0.035273926000000004,-0.016309032,5.72,0,0
0.01506794,-0.002828754,0.004892046000000001,-0.021928379999999997,-0.008795406,5.721,0,0
0.014022320000000001,-0.008698694,0.006587330000000001,-0.00859078,-0.002992906000000001,5.722,0,0
0.012077684000000002,-0.013592052,0.009583984,0.00418948,0.0028669540000000006,5.723,0,0
0.009388374000000001,-0.0156472,0.015245902000000002,0.01570292,0.009191354,5.724,0,0
0.005199530000000001,-0.015224979999999999,0.01909695,0.026329526000000002,0.013869686,5.725,0,0
9.370999999999989e-05,-0.010963766,0.020133619999999998,0.035332520000000006,0.01696948,5.726,0,0
-0.004610090000000001,-0.0019106659999999984,0.019005924000000004,0.04157824,0.0197562,5.727,0,0
-0.009387194000000001,0.010813794000000002,0.013673162,0.045768800000000005,0.0213998,5.728,0,0
-0.013564084000000002,0.023369174,0.0061662700000000015,0.04823604000000001,0.02144498,5.729,0,0
-0.015501880000000003,0.031105894000000002,-0.0001840100000000003,0.0481723,0.02153214,5.73,0,0
-0.015545660000000003,0.028737398000000004,-0.005070654,0.045012420000000004,0.02087316,5.731,0,0
-0.014035230000000003,0.017956238000000003,-0.006271172,0.0393804,0.01857854,5.732,0,0
-0.010284630000000003,0.00815507,-0.00420051,0.030958394,0.015828354,5.733,0,0
-0.006192138,0.00385999,-0.004903178000000001,0.019004933999999998,0.012018746,5.734,0,0
-0.0033793820000000007,0.00379873,-0.010674958000000002,0.0050174339999999994,0.005968197999999999,5.735,0,0
-0.0020219200000000004,0.00646196,-0.018986874,-0.009084246,-0.0008765420000000006,5.736,0,0
-0.0018387619999999999,0.005050439999999999,-0.026704600000000002,-0.023720506000000002,-0.0076704220000000005,5.737,0,0
-0.0007734560000000001,-0.0060931319999999985,-0.031260920000000005,-0.03799388,-0.015425716,5.738,0,0
0.0013439320000000002,-0.020353092,-0.030990942,-0.048598619999999995,-0.022512928,5.739,0,0
0.0037477560000000005,-0.029842652,-0.02255599,-0.054947220000000005,-0.026313880000000005,5.74,0,0
0.007169794,-0.032260027999999996,-0.00909019,-0.056561600000000004,-0.026714740000000004,5.741,0,0
0.010615046000000001,-0.026750448000000003,6.788399999999983e-05,-0.05221506000000001,-0.0246233,5.742,0,0
0.01233738,-0.014789214,0.004448912,-0.04351420000000001,-0.019969622000000003,5.743,0,0
0.012899920000000002,-0.0034203739999999995,0.006895452,-0.03224785,-0.014097102000000002,5.744,0,0
0.01270918,0.0032149859999999995,0.0031192999999999998,-0.018683504000000004,-0.009158428,5.745,0,0
0.011543156,0.006791414,-0.006483040000000001,-0.004330144,-0.004823622000000001,5.746,0,0
0.009249664000000001,0.0067921100000000005,-0.013871734,0.008800456,-0.0006645959999999999,5.747,0,0
0.005485236,0.0013450559999999999,-0.019264302,0.020838816,0.002654488,5.748,0,0
0.0008065379999999999,-0.0075647840000000015,-0.02315686,0.031030686000000002,0.005902668000000001,5.749,0,0
-0.003101106,-0.016452264,-0.019653692,0.03829664,0.009408294000000001,5.75,0,0
-0.006043606,-0.024393384,-0.008211432000000001,0.04250416,0.011750368,5.751,0,0
-0.009152834,-0.028276080000000002,0.007540388000000001,0.04412579999999999,0.012811522000000002,5.752,0,0
-0.011198886000000002,-0.025029586,0.023112788000000002,0.044114459999999994,0.013635260000000001,5.753,0,0
-0.011565548,-0.016671504,0.034634468,0.04218678,0.01439368,5.754,0,0
-0.011841292000000002,-0.0067169840000000005,0.04042954,0.03875524,0.01437248,5.755,0,0
-0.011389864000000001,0.004264296000000001,0.04005744,0.03300766000000001,0.01390032,5.756,0,0
-0.008974386,0.016602796,0.032404836,0.023927366,0.013610520000000001,5.757,0,0
-0.0060291222000000005,0.026708141999999997,0.020537589999999998,0.012132366,0.01199181,5.758,0,0
-0.0038582508,0.03353642,0.011300488,-0.0017612139999999997,0.008061754,5.759,0,0
-0.0019042172000000002,0.03913552,0.00650212,-0.016749694000000002,0.00347891,5.76,0,0
-0.00020420319999999998,0.04326974,0.00411702,-0.030643894000000005,-0.0015484300000000004,5.761,0,0
0.0006293068000000001,0.04562502,0.004252894,-0.04089856,-0.00746105,5.762,0,0
0.0013420390000000002,0.047409240000000005,0.00832342,-0.047143700000000004,-0.01226112,5.763,0,0
0.0026004076,0.04806818000000001,0.011177174000000002,-0.04872894,-0.014977564,5.764,0,0
0.0034002900000000003,0.037148352,0.010131959999999999,-0.04594408,-0.0166432,5.765,0,0
0.002647688,0.010670832000000002,0.006861774000000001,-0.04081278,-0.01675716,5.766,0,0
0.0018311959999999998,-0.016187748,-0.0002255759999999999,-0.035092500000000006,-0.0150609,5.767,0,0
0.0010303336,-0.036358828,-0.009149356,-0.02932374,-0.01335158,5.768,0,0
-0.00048033240000000006,-0.054684888,-0.016847568,-0.02311142,-0.01080112,5.769,0,0
-0.0006700964000000002,-0.062002680000000004,-0.021776206,-0.015772324,-0.006287032,5.77,0,0
0.0007056975999999999,-0.05166508,-0.0210167042,-0.0016718840000000002,-0.0019904519999999993,5.771,0,0
0.0025373076,-0.03791962000000001,-0.0132104442,0.023137156000000002,0.0020674480000000004,5.772,0,0
0.004787154,-0.027196994000000002,-0.004463684199999998,0.052575456,0.007827088000000001,5.773,0,0
0.007556740000000001,-0.015124954000000005,0.0008874817999999996,0.078792176,0.012648668,5.774,0,0
0.009349416000000001,-0.002518454000000002,0.0039431878,0.09830628000000001,0.01439112,5.775,0,0
0.008647614,0.007510086,0.0048950140000000005,0.1052773,0.01535438,5.776,0,0
0.006387456,0.011870184,0.0042001140000000005,0.09556888000000001,0.0161541,5.777,0,0
0.002874652,0.010847644000000002,0.003380254,0.07574548,0.01596922,5.778,0,0
-0.002847988,0.005936664,0.005044618,0.052804524000000005,0.015550940000000001,5.779,0,0
-0.009295508000000001,-0.0015431160000000002,0.006141311,0.028233884,0.016027060000000003,5.78,0,0
-0.013072196000000001,-0.006231672000000001,0.005673901,0.0036488040000000003,0.01598962,5.781,0,0
-0.014132176000000002,-0.004961570000000002,0.006954481,-0.018877516,0.01404553,5.782,0,0
-0.012617480600000001,0.001160144,0.010595161000000002,-0.041165016,0.0104102358,5.783,0,0
-0.0066551805999999995,0.013302984000000002,0.015649451,-0.06191832,0.0048550958000000005,5.784,0,0
0.0019064593999999994,0.030888904000000002,0.019855252000000004,-0.07649210000000001,-0.0027821242,5.785,0,0
0.0105621594,0.05002432000000001,0.01831779,-0.08606396000000001,-0.011267844200000002,5.786,0,0
0.017856371399999998,0.06787502000000001,0.006620869999999999,-0.08993782000000002,-0.0172002142,5.787,0,0
0.02169768,0.0794556,-0.012888690000000001,-0.08541524,-0.018967886,5.788,0,0
0.020591966,0.07666088,-0.03709585,-0.07392652,-0.0170470122,5.789,0,0
0.015714876,0.053416820000000004,-0.05612963,-0.057055800000000004,-0.011989164200000001,5.79,0,0
0.010150328,0.011583819999999995,-0.05785054,-0.03433792,-0.0059047492,5.791,0,0
0.0049542171999999995,-0.03719418000000001,-0.04530634000000001,-0.00688852,-0.0012130532,5.792,0,0
0.00044003519999999993,-0.0791116,-0.02618918,0.023124980000000003,0.0021134328000000004,5.793,0,0
-0.0026127128,-0.1028228,-0.0023575800000000023,0.05157872000000001,0.005142299,5.794,0,0
-0.0054328828,-0.1020786,0.017753120000000004,0.07226692000000001,0.007797711000000001,5.795,0,0
-0.010614014800000002,-0.08222568,0.024292200000000003,0.08362002,0.011220396,5.796,0,0
-0.017615604,-0.054376618,0.022460460000000005,0.08599348000000001,0.01531434,5.797,0,0
-0.025235422,-0.028326992000000006,0.017955124,0.07944158000000001,0.017931660000000002,5.798,0,0
-0.0334041,-0.010598006,0.010158183999999999,0.06550622,0.018108140000000002,5.799,0,0
-0.03908254,0.0013843740000000003,0.0010809840000000001,0.0466923922,0.015333268,5.8,0,0
-0.03982722,0.011281554,-0.006406736,0.023985472200000003,0.00972364,5.801,0,0
-0.03669444,0.015843232,-0.012039596000000001,-0.0036412077999999973,0.0008674999999999993,5.802,0,0
-0.029922194000000003,0.014172956,-0.015713860000000003,-0.0342745478,-0.01106054,5.803,0,0
-0.019352470000000004,0.01079503,-0.015643298,-0.06314838780000001,-0.02358274,5.804,0,0
-0.007384390000000001,0.007067634,-0.011658026000000002,-0.08713246000000001,-0.034919108000000004,5.805,0,0
0.00331619,0.002232912,-0.0038890060000000013,-0.10357044000000001,-0.04354708,5.806,0,0
0.01245939,0.0016307119999999999,0.006977994000000001,-0.10984906000000001,-0.046374200000000004,5.807,0,0
0.020627404000000002,0.008372502,0.017277934000000002,-0.10564708,-0.043572700000000006,5.808,0,0
0.02673526,0.016423562000000003,0.025007572000000002,-0.09173708,-0.03772462000000001,5.809,0,0
0.030612040000000004,0.022001338,0.030025339999999998,-0.06953509799999999,-0.027870240000000004,5.81,0,0
0.03360766,0.02770142,0.02902044,-0.04181629799999999,-0.0151184,5.811,0,0
0.0362226,0.03194676,0.019522400000000002,-0.013147798000000002,-0.004189899999999999,5.812,0,0
0.037970920000000005,0.03169962,0.0061012800000000015,0.011397802,0.0043960200000000005,5.813,0,0
0.03877134000000001,0.02964498,-0.00701616,0.029305802000000006,0.01182592,5.814,0,0
0.03810792,0.026461540000000002,-0.020270879999999998,0.041578540000000004,0.0165283,5.815,0,0
0.03480724,0.020382872000000003,-0.03038814,0.0481829,0.018272240000000002,5.816,0,0
0.030000760000000005,0.012123354,-0.03222242,0.04902846,0.01843954,5.817,0,0
0.0237692,0.003852554,-0.026764470000000002,0.04760976000000001,0.01745894,5.818,0,0
0.016526374,-0.0032955059999999997,-0.017557506,0.04501712000000001,0.015724039999999998,5.819,0,0
0.010640845999999999,-0.007513766000000002,-0.006847706000000001,0.0398666,0.014626920000000002,5.82,0,0
0.005747564000000001,-0.007481004000000001,0.00174157,0.03440528,0.015397680000000002,5.821,0,0
-0.0017144960000000002,-0.005314208000000001,0.006341254,0.03265072,0.01745692,5.822,0,0
-0.012708216000000001,-0.0018737880000000001,0.007542748,0.03494374,0.02005136,5.823,0,0
-0.024927110000000002,0.002423308,0.0056000284,0.038515860000000006,0.02247314,5.824,0,0
-0.037576042000000004,0.004416161399999999,0.0030531423999999997,0.041422900000000006,0.02253426,5.825,0,0
-0.047194980000000004,0.0024695353999999994,0.0025656764000000004,0.041189800000000006,0.018657466,5.826,0,0
-0.04953668,-0.0006565626000000001,0.0042608124,0.035172850000000005,0.012140733999999999,5.827,0,0
-0.04463164000000001,-0.0041317826,0.0084534484,0.024409382000000004,0.005212135999999999,5.828,0,0
-0.034482434,-0.0101654386,0.014993984000000002,0.012432536,0.0003895859999999999,5.829,0,0
-0.022505896,-0.017838412,0.021232690000000002,0.0027085159999999994,-0.000687132,5.83,0,0
-0.013199894000000002,-0.02415832,0.028215700000000003,-0.002997172,0.0006658420000000003,5.831,0,0
-0.0075141140000000006,-0.02776448,0.034361600000000006,-0.005463484,0.0028899119999999997,5.832,0,0
-0.0029119360000000004,-0.02869186,0.03366052,-0.008214456,0.0037142380000000003,5.833,0,0
0.001940318,-0.025059758000000005,0.027256012599999997,-0.01351093,0.00011636800000000037,5.834,0,0
0.00792584,-0.016770392000000002,0.015143072599999998,-0.02255169,-0.009196674000000002,5.835,0,0
0.015369118000000001,-0.007544934,-0.004051907400000001,-0.036648802,-0.022296634000000003,5.836,0,0
0.022823698,0.00020522599999999933,-0.023431267400000004,-0.0520302,-0.03525803200000001,5.837,0,0
0.028751259999999997,0.005751046,-0.0348583874,-0.06377128,-0.04488654000000001,5.838,0,0
0.03079044,0.009827904,-0.042343860000000004,-0.06739676,-0.04716506000000001,5.839,0,0
0.02774286,0.012843498,-0.045696020000000004,-0.0595988,-0.03912010600000001,5.84,0,0
0.02103312,0.01377034,-0.03743678,-0.040972020000000005,-0.023207006000000006,5.841,0,0
0.010927760000000002,0.01299159,-0.02337974,-0.014617920000000001,-0.004805006000000002,5.842,0,0
-0.0007800199999999985,0.012334232,-0.009355939999999997,0.013598080000000002,0.013094314000000001,5.843,0,0
-0.01066562,0.011447732,0.006744800000000001,0.036859380000000004,0.027023874000000003,5.844,0,0
-0.01737168,0.009214978,0.0223582,0.05171702,0.033369220000000005,5.845,0,0
-0.01982294,0.0066207804,0.03116758,0.059877440000000004,0.03467812,5.846,0,0
-0.018078152,0.0035410904000000003,0.03469052,0.06154316,0.034862080000000004,5.847,0,0
-0.015192212,-0.0008200716000000001,0.03082716,0.05874642,0.0341398,5.848,0,0
-0.013071632,-0.0049396116,0.020903346000000003,0.05510972,0.03221548,5.849,0,0
-0.010526028,-0.0092693976,0.017284626,0.04934316,0.029725020000000005,5.85,0,0
-0.007244674,-0.01676506,0.019727766,0.040318440000000004,0.025964800000000003,5.851,0,0
-0.003628162,-0.02281482,0.023292586000000004,0.026188580000000003,0.018213562000000003,5.852,0,0
0.0007548979999999999,-0.021899706,0.029929586,0.006525560000000001,0.006992321999999999,5.853,0,0
0.006622058,-0.017169006,0.03682994,-0.015579720000000002,-0.004438738000000001,5.854,0,0
0.013547774,-0.008292865999999998,0.034293277999999996,-0.036137260000000004,-0.015765618000000002,5.855,0,0
0.01843314,0.007418414000000002,0.022044818000000008,-0.05291006000000001,-0.025782058000000004,5.856,0,0
0.020925580000000003,0.023806294000000002,0.006478838000000001,-0.06254528000000001,-0.030415220000000003,5.857,0,0
0.02185086,0.03308714000000001,-0.014160442,-0.061094360000000014,-0.02900874,5.858,0,0
0.018443902,0.029372290000000002,-0.039359782,-0.052269760000000005,-0.024935912,5.859,0,0
0.011393276,0.01327761,-0.05647962000000001,-0.04155912,-0.01918268,5.86,0,0
0.0037757360000000005,-0.0035788699999999996,-0.06080766,-0.029710442000000004,-0.012637636,5.861,0,0
-0.004482724,-0.017332510000000002,-0.060763460000000005,-0.016588838000000005,-0.007960744,5.862,0,0
-0.012847104000000002,-0.026577833999999998,-0.05208128000000001,-0.005883858000000001,-0.004660204,5.863,0,0
-0.018404146000000003,-0.022495664,-0.031363364000000005,0.001344802,-0.0017023219999999998,5.864,0,0
-0.0209875,-0.009537564000000002,-0.013796914,0.007433022000000001,0.000259302,5.865,0,0
-0.022058080000000004,0.00045058600000000043,-0.005917690000000001,0.011635704,0.0009929359999999998,5.866,0,0
-0.020803980000000003,0.006358104000000001,-0.0007026906000000002,0.011538931999999998,-9.977599999999977e-05,5.867,0,0
-0.01824266,0.008237614,0.0026256334000000006,0.006060951999999999,-0.004223776,5.868,0,0
-0.015941660000000003,0.006445878000000001,0.0021907114000000003,0.0010386919999999995,-0.008829666,5.869,0,0
-0.013510054000000002,0.0070946180000000005,0.0023717054,0.002905811999999999,-0.010395733999999998,5.87,0,0
-0.009727494,0.010073748,0.0049171814,0.009581612,-0.009268064,5.871,0,0
-0.0056219680000000015,0.01190829,0.007716522000000001,0.01796892,-0.005181418,5.872,0,0
-0.0026601720000000006,0.012502996,0.012126998,0.02819824,0.001934862,5.873,0,0
0.0026303680000000005,0.01132008,0.018378404,0.03459768,0.007895442,5.874,0,0
0.009157042,0.008308732000000001,0.02258636,0.030625134,0.0097204,5.875,0,0
0.012761862000000002,0.006049552,0.021998734000000002,0.018684973999999997,0.008918537399999999,5.876,0,0
0.015685756000000002,0.008361412,0.016907994000000003,0.003926314000000001,0.006744729400000001,5.877,0,0
0.019029660000000004,0.012848600000000002,0.006113273999999999,-0.009971926,0.003189923400000001,5.878,0,0
0.018963020000000004,0.011709259999999999,-0.007283346000000001,-0.020802746,-0.0005942466000000002,5.879,0,0
0.015182952000000001,0.0021825479999999994,-0.016707206000000002,-0.02744492,-0.0025672406000000004,5.88,0,0
0.011193098200000001,-0.010334972000000003,-0.023399,-0.029188699999999998,-0.0039682020000000005,5.881,0,0
0.007234122200000001,-0.020188172,-0.02957708,-0.026898779999999997,-0.00678952,5.882,0,0
0.0034087628000000008,-0.025116168,-0.031303700000000004,-0.021432379999999997,-0.008588114,5.883,0,0
8.365880000000018e-05,-0.022862312,-0.02786038,-0.014016586000000001,-0.008447098,5.884,0,0
-0.0028742892,-0.013175168,-0.022694982000000002,-0.006869912000000001,-0.008470702,5.885,0,0
-0.0044966854,-0.0013147559999999996,-0.012818221999999997,-0.0005640820000000005,-0.00691621,5.886,0,0
-0.0047281536,0.004631252000000001,0.002547738,0.004211482,-0.0015954900000000002,5.887,0,0
-0.0037272782,0.002061448,0.015048338000000001,0.006287620000000001,0.0037391900000000003,5.888,0,0
-0.0012207742000000005,-0.003468676,0.021324118000000003,0.006196344,0.008135464000000002,5.889,0,0
0.0030142218,-0.00736666,0.02544224,0.005056697200000001,0.013482596,5.89,0,0
0.0073595718,-0.010965472000000002,0.027674860000000003,0.0033107740800000004,0.01714774,5.891,0,0
0.009552876,-0.013941336000000002,0.02651178,0.00261611808,0.01804186,5.892,0,0
0.010702928000000002,-0.012424944,0.025240600000000002,0.00354818008,0.01790504,5.893,0,0
0.011747448000000002,-0.0076366920000000005,0.02452678,0.00532898208,0.01688236,5.894,0,0
0.011061070000000001,-0.0038470400000000012,0.020197184,0.00939087488,0.014507780000000001,5.895,0,0
0.00794668,-0.0020126500000000004,0.012791908,0.015693788,0.012237356,5.896,0,0
0.0033900400000000013,-0.0008999300000000001,0.0070069414,0.02261018,0.01098373,5.897,0,0
-0.0016924880000000002,-0.001022048,0.0045781414,0.029651320000000002,0.01015581,5.898,0,0
-0.007990628000000001,-0.0009776520000000003,0.0041158614,0.036329020000000004,0.008993988,5.899,0,0
-0.01378675,0.0053347559999999995,0.007812917400000001,0.04095366,0.008065415999999999,5.9,0,0
-0.01731676,0.018342606000000004,0.0173762134,0.044003219999999996,0.007506436,5.901,0,0
-0.02039274,0.033537442,0.027113280000000003,0.04515462,0.006001516,5.902,0,0
-0.022833239999999998,0.048693308000000005,0.03363492,0.03990226,0.003750656,5.903,0,0
-0.023536720000000004,0.06372108,0.0365858,0.026747399999999998,-0.00042862200000000003,5.904,0,0
-0.024374540000000004,0.07365426,0.029041640000000007,0.007245499999999995,-0.00719421,5.905,0,0
-0.02452618,0.07418512,0.006145259999999996,-0.0158458,-0.013460266000000002,5.906,0,0
-0.0213338,0.06035105,-0.022867080000000005,-0.03926326,-0.019012600000000004,5.907,0,0
-0.016241432,0.02448995000000001,-0.05088708000000001,-0.05865572,-0.02607844,5.908,0,0
-0.008958952000000003,-0.022239669999999996,-0.07545352000000001,-0.06868695999999999,-0.031255620000000005,5.909,0,0
0.0019074680000000016,-0.06508841,-0.08565488000000002,-0.06912966,-0.0323186,5.91,0,0
0.013569428000000001,-0.10095794999999999,-0.07770796,-0.062413779999999995,-0.03108036,5.911,0,0
0.022427268,-0.11686312000000001,-0.06119642,-0.04844979199999999,-0.02626745,5.912,0,0
0.02751154,-0.09967324000000001,-0.040130664,-0.028755771999999992,-0.01654259,5.913,0,0
0.026402692000000002,-0.06664982399999998,-0.013485603999999998,-0.006278111999999999,-0.0030435700000000024,5.914,0,0
0.019263758,-0.038616484000000006,0.010227216,0.018825868000000003,0.011399990000000002,5.915,0,0
0.011615543900000002,-0.016064883000000002,0.024593296,0.042560247999999995,0.024334890000000005,5.916,0,0
0.006166777900000001,-0.002083547,0.032730076,0.05965326000000001,0.03455926,5.917,0,0
0.0029434878999999997,0.0003079550000000006,0.03499086,0.07143638000000001,0.0409578,5.918,0,0
0.0033772939,-0.001985037,0.028416781999999998,0.07825723999999999,0.0434816,5.919,0,0
0.0072194479,-0.0021444389999999997,0.015275842000000001,0.07721044,0.04396938,5.92,0,0
0.00851471,0.0006787,0.002817982,0.0684327,0.043006420000000004,5.921,0,0
0.006089878000000001,0.006182884,-0.005363378,0.05215286200000001,0.038097200000000005,5.922,0,0
0.0031020140000000006,0.013743062,-0.009078438,0.028180482000000007,0.029749499999999998,5.923,0,0
0.0002599620000000001,0.021466178000000002,-0.005534299999999999,-0.0011276980000000016,0.018302699999999998,5.924,0,0
-0.0025332100000000006,0.02835276,0.0072794600000000015,-0.034073058,0.0010501199999999981,5.925,0,0
-0.0035976560000000007,0.03379672,0.0233789,-0.067036098,-0.02019738,5.926,0,0
-8.701800000000034e-05,0.03683306,0.036014300000000006,-0.09500468000000001,-0.04109008,5.927,0,0
0.005427356,0.03717566,0.04288638,-0.11487152,-0.059071080000000005,5.928,0,0
0.010540850000000001,0.03452688,0.04084604,-0.1255496,-0.07136248,5.929,0,0
0.015418622,0.03032916,0.029869232000000003,-0.1257078,-0.07425410000000002,5.93,0,0
0.01950954,0.026224980000000002,0.015605432000000002,-0.11359476,-0.06839396,5.931,0,0
0.02144878,0.02055626,0.003446311999999999,-0.09078948,-0.056363880000000005,5.932,0,0
0.0209729,0.015105016,-0.0035244480000000003,-0.061689280000000006,-0.039663518,5.933,0,0
0.01878376,0.011047633999999999,-0.00541098,-0.0304735,-0.021336158,5.934,0,0
0.014414492000000001,0.005426144,-0.006008668,0.001140200000000001,-0.004441377999999999,5.935,0,0
0.008710216,-0.000731076,-0.006152108,0.02835572,0.009277242,5.936,0,0
0.0022994360000000006,-0.003682876,-0.0072671079999999996,0.04792420000000001,0.021663582,5.937,0,0
-0.005287804,-0.004982174000000001,-0.013472248000000001,0.06379784000000001,0.03280628,5.938,0,0
-0.013470864,-0.00590398,-0.023287176,0.07755886000000001,0.04025666,5.939,0,0
-0.020590556000000003,-0.003379504,-0.03234256,0.08554608,0.0452149,5.94,0,0
-0.026380920000000002,0.001561616,-0.039319160000000006,0.08643638000000001,0.04745474,5.941,0,0
-0.03125952,0.005504376,-0.04504346,0.0823526,0.04409872,5.942,0,0
-0.03401004,0.005001906,-0.04882754,0.0702177,0.035664448,5.943,0,0
-0.03314488,0.00048079399999999967,-0.048431520000000006,0.048332708,0.023582687999999997,5.944,0,0
-0.02932456,-0.0035441520000000005,-0.0415933,0.022677268000000004,0.008111128,5.945,0,0
-0.023688058,-0.006622170000000001,-0.027994100000000004,-0.0024106719999999983,-0.008618792,5.946,0,0
-0.015392060000000003,-0.0086172,-0.008334200000000002,-0.025840192,-0.023379332000000003,5.947,0,0
-0.006102060000000001,-0.00781248,0.01439876,-0.043573352,-0.03325942,5.948,0,0
0.000695066,-0.006748860000000001,0.036042,-0.05140596,-0.0368567,5.949,0,0
0.006014546000000001,-0.00794738,0.05210386,-0.051699480000000006,-0.0355489,5.95,0,0
0.010330444000000001,-0.012075122,0.058430600000000006,-0.0468832,-0.030129359999999997,5.951,0,0
0.010850886,-0.021100752,0.05669076000000001,-0.03709918,-0.021775448,5.952,0,0
0.00947881,-0.031066200000000002,0.050158180000000004,-0.02614573,-0.0136653914,5.953,0,0
0.009674082,-0.03549846,0.041658320000000006,-0.018035824,-0.0061892934,5.954,0,0
0.010658822000000002,-0.03613066,0.033142500000000005,-0.011855242000000002,0.0007930265999999998,5.955,0,0
0.010708442,-0.03434048000000001,0.024458920000000002,-0.004776502,0.0076428066,5.956,0,0
0.010505536000000001,-0.026582208,0.017003597999999998,0.004142858000000001,0.0160895146,5.957,0,0
0.010544576000000002,-0.013939727999999997,0.012222724,0.015899268,0.025265018,5.958,0,0
0.008943776,-0.001125888000000001,0.005131904,0.030274062000000004,0.03262188,5.959,0,0
0.0056166366000000014,0.009431512,-0.004767515999999999,0.04411194,0.037778040000000006,5.96,0,0
0.0014507905999999997,0.017407092,-0.011495716,0.05622316000000001,0.040539580000000006,5.961,0,0
-0.0029742234000000004,0.021936920000000002,-0.017492994,0.06719962,0.0390717,5.962,0,0
-0.0065904474,0.024041840000000002,-0.024145200000000002,0.07584906000000001,0.0345795,5.963,0,0
-0.0094892454,0.024310440000000003,-0.02684374,0.08061963999999999,0.02952872,5.964,0,0
-0.013251766,0.02088086,-0.026105220000000002,0.08228579999999999,0.024811220000000002,5.965,0,0
-0.0180279,0.015299050000000002,-0.02583662,0.07910248,0.02061072,5.966,0,0
-0.02214574,0.00894099,-0.025198160000000004,0.06760096,0.016281496,5.967,0,0
-0.02522784,0.0014622300000000001,-0.0221861,0.050028154,0.010997274000000003,5.968,0,0
-0.02660198,-0.00553381,-0.016095328,0.027770734000000005,0.004021434000000001,5.969,0,0
-0.024214198,-0.010002214,-0.006819188000000001,-0.00016420600000000007,-0.006083026,5.97,0,0
-0.016960460000000004,-0.012054964000000001,0.003566672,-0.030640726,-0.019288686,5.971,0,0
-0.008984698000000001,-0.012738104,0.010082932000000001,-0.059009706,-0.032314302,5.972,0,0
-0.0026677520000000002,-0.012477784000000002,0.010941674,-0.08369938,-0.0425971,5.973,0,0
0.005176128,-0.011992612000000001,0.008479962,-0.10088664,-0.04792284000000001,5.974,0,0
0.012361406000000002,-0.011203226,0.0021792819999999994,-0.10645342,-0.0473799,5.975,0,0
0.015748528,-0.00834649,-0.0028254319999999992,-0.10221406000000001,-0.04224986000000001,5.976,0,0
0.018345526,-0.0027310499999999996,0.00023158799999999959,-0.09024028,-0.03389844,5.977,0,0
0.021807240000000002,0.00462283,0.007114446,-0.07243082,-0.024417716000000006,5.978,0,0
0.02367974,0.012160998,0.010933306,-0.0508622488,-0.015897848000000003,5.979,0,0
0.023886700000000004,0.018865596000000002,0.010288826000000001,-0.026521328800000004,-0.008321952,5.98,0,0
0.0246097,0.0235331,0.0029912600000000025,-0.0009533288000000001,-0.0010436980000000005,5.981,0,0
0.026077120000000002,0.02432584,-0.00764118,0.023405251200000005,0.004886682,5.982,0,0
0.02534644,0.02110397,-0.013520410000000002,0.0431166912,0.009824758,5.983,0,0
0.020205110000000002,0.014472574,-0.014672548,0.05554686,0.01462815,5.984,0,0
0.012511134000000002,0.005435814000000001,-0.012440534000000001,0.06131384000000001,0.019559834,5.985,0,0
0.0038821940000000016,-0.0022990059999999997,-0.007602892,0.06124968,0.024336319999999998,5.986,0,0
-0.005238086,-0.006392128,-0.0039561,0.05511234000000001,0.02881938,5.987,0,0
-0.012575206,-0.009059709999999999,-0.0041903900000000004,0.0446553,0.031207419999999996,5.988,0,0
-0.016260176,-0.012328634000000002,-0.006220837999999999,0.031494208,0.029186339999999998,5.989,0,0
-0.015860204000000003,-0.014042794,-0.006355242,0.015073508000000003,0.024282070000000003,5.99,0,0
-0.011734188000000001,-0.009577552,-0.0018913839999999999,-0.004099272000000002,0.016002466,5.991,0,0
-0.0077130114000000015,0.0013869899999999994,0.005515244000000001,-0.022651972000000003,0.003946486000000001,5.992,0,0
-0.005755151400000001,0.014111941999999999,0.013451364,-0.037788072000000006,-0.008211774000000002,5.993,0,0
-0.0034758994000000003,0.025340182000000003,0.02161195,-0.04862582000000001,-0.017358714,5.994,0,0
-9.755140000000011e-05,0.035401982,0.02561482,-0.052486200000000004,-0.023454404,5.995,0,0
0.0038517926000000004,0.039330079999999996,0.023222606,-0.047406260000000006,-0.025673420000000002,5.996,0,0
0.009467316,0.03368152,0.01645823,-0.035020418000000005,-0.023815880000000005,5.997,0,0
0.016323536,0.02390463,0.003002369999999999,-0.016839118,-0.020478560000000003,5.998,0,0
0.020773964,0.010338449999999999,-0.018072070000000003,0.002981421999999999,-0.016654380000000003,5.999,0,0
0.020607802,-0.00905663,-0.03790291,0.018437342,-0.012428472000000001,6.0,0,0
0.016586374000000004,-0.02834329,-0.050935396,0.028141962,-0.007502,6.001,0,0
0.011141174,-0.03924223,-0.057177280000000004,0.03223322,-0.0021993800000000008,6.002,0,0
0.005164254,-0.03882658,-0.053611000000000006,0.02884086,0.0029660199999999998,6.003,0,0
-0.0009846059999999996,-0.027055120000000002,-0.03855018,0.019887106,0.007116140000000001,6.004,0,0
-0.005674168,-0.010288299999999998,-0.016219300000000002,0.010895406,0.008860010000000001,6.005,0,0
-0.00982592,0.0027915999999999996,0.00849256,0.002767206,0.008230414,6.006,0,0
-0.01437686,0.009248464000000001,0.03358282,-0.006533694,0.0061434052,6.007,0,0
-0.01825924,0.005036684,0.05314928000000001,-0.016283974,0.0033041712,6.008,0,0
-0.02116624,-0.006772036000000001,0.06342746,-0.02424552,-0.00031787679999999976,6.009,0,0
-0.02176356,-0.013719596,0.0666574,-0.03134424,-0.0030871208,6.01,0,0
-0.019282283999999997,-0.013692890000000001,0.06040988,-0.03699576,-0.0046479308,6.011,0,0
-0.015289608000000001,-0.014527116000000001,0.0424732538,-0.03784656,-0.006800822,6.012,0,0
-0.008341208000000001,-0.015003956000000002,0.023717473800000003,-0.03431374,-0.008931888,6.013,0,0
0.0014892120000000006,-0.010954096,0.0107785338,-0.028257120000000004,-0.009841160000000002,6.014,0,0
0.009513951999999999,-0.007481286,-0.004446566199999999,-0.020670362,-0.011051654000000001,6.015,0,0
0.015368176,-0.007568852,-0.0188359262,-0.012002176,-0.01252056,6.016,0,0
0.01996412,-0.0071053712,-0.023690740000000002,-0.0030870560000000003,-0.011340792000000002,6.017,0,0
0.02083436,-0.0035677631999999995,-0.024167,0.006480764000000002,-0.007379718000000002,6.018,0,0
0.017390418,0.0012746567999999997,-0.022991854000000003,0.017823924,-0.0014296580000000008,6.019,0,0
0.011081054,0.0056628267999999995,-0.014768502000000003,0.029705786,0.006532221999999999,6.02,0,0
0.0032840339999999995,0.009145526800000001,-0.004406936,0.039732100000000006,0.015141462000000001,6.021,0,0
-0.004617546,0.011655248,0.00032118474000000037,0.046503520000000007,0.022217734,6.022,0,0
-0.011891526,0.01255679,0.0013569827400000004,0.049910420000000004,0.027689440000000003,6.023,0,0
-0.018072944,0.00737701,-0.0029149032599999998,0.049093620000000004,0.03162532,6.024,0,0
-0.02213396,-0.00416159,-0.013148135259999999,0.04515318,0.03312302,6.025,0,0
-0.022945280000000002,-0.01314731,-0.02135682126,0.03956252,0.032986879999999996,6.026,0,0
-0.020856528,-0.015863354,-0.023172272,0.03082395,0.0309995,6.027,0,0
-0.016955312,-0.012238024000000002,-0.022006176,0.019086454,0.025617408,6.028,0,0
-0.011460709800000001,0.0009384960000000022,-0.017276609999999998,0.008645654000000003,0.017081686000000002,6.029,0,0
-0.0050008198,0.021131736,-0.005733030000000001,0.0018200380000000004,0.007172266,6.03,0,0
0.0009733601999999998,0.039034596000000005,0.00602157,-0.00382009,-0.003153274,6.031,0,0
0.006966188200000001,0.05012748,0.011561120000000001,-0.007301714000000001,-0.012198434000000001,6.032,0,0
0.013830572200000002,0.05269866000000001,0.013675380000000001,-0.007423398,-0.017844962000000002,6.033,0,0
0.02006985,0.04429435,0.01516681,-0.006839258000000001,-0.01913478,6.034,0,0
0.022751720000000003,0.02318261,0.013978190000000001,-0.007822682000000001,-0.017877166000000003,6.035,0,0
0.020001994000000002,-0.013911029999999996,0.010112624,-0.009674074000000001,-0.016215826,6.036,0,0
0.013008894,-0.053641230000000005,0.007393904000000001,-0.009739484000000001,-0.012885596000000003,6.037,0,0
0.0034597939999999995,-0.07720095,0.007683250000000001,-0.007982236,-0.008949088000000001,6.038,0,0
-0.006235026,-0.08265182000000001,0.008440634,-0.005940556000000001,-0.006027094,6.039,0,0
-0.012117986,-0.0704811,0.00708143,-0.005485682000000001,-0.0028233999999999993,6.04,0,0
-0.013275322,-0.04094474,0.005105626,-0.004796460000000001,-1.8589199999999588e-05,6.041,0,0
-0.012580190000000002,-0.00946736,0.003215494,-0.004636798,7.594080000000031e-05,6.042,0,0
-0.010073626000000002,0.008312040000000001,0.0012855981999999998,-0.009664226,-0.0025278472000000002,6.043,0,0
-0.005697296000000001,0.014424480000000003,0.00014322419999999992,-0.017563205999999998,-0.006997101200000001,6.044,0,0
-0.002867218,0.013944740000000002,-0.0011130498000000003,-0.023773540000000003,-0.012244209200000002,6.045,0,0
-0.0007713319999999998,0.01295232,-0.0021057898000000005,-0.027642682000000002,-0.016008020000000005,6.046,0,0
0.0027849040000000004,0.015795740000000003,-0.0021031238000000004,-0.027827064000000002,-0.016203914000000003,6.047,0,0
0.0050733160000000005,0.019649820000000005,-0.0027500680000000005,-0.018668264000000004,-0.011904926000000001,6.048,0,0
0.003413292000000001,0.02216456,-0.005213922,-0.0008095840000000021,-0.004978106000000001,6.049,0,0
-0.0012734060000000004,0.024507340000000002,-0.009463204,0.019164116,0.002539233999999999,6.05,0,0
-0.00912955,0.02366462,-0.013675913999999999,0.037758096,0.009564734,6.051,0,0
-0.022542898000000002,0.015961020000000003,-0.017489628,0.05258558,0.013869007999999999,6.052,0,0
-0.03853685400000001,0.006863500000000001,-0.021002608000000002,0.0598608,0.015596639999999998,6.053,0,0
-0.05033892000000001,0.00027008399999999986,-0.023153620000000003,0.05712268000000001,0.0168339,6.054,0,0
-0.055255660000000005,-0.0060616540000000005,-0.02292746,0.047646560000000004,0.01700394,6.055,0,0
-0.053174400000000004,-0.009706542,-0.018550042000000003,0.03210074,0.014809256,6.056,0,0
-0.042891526,-0.007755152,-0.010505402000000002,0.008088060000000001,0.010503637999999997,6.057,0,0
-0.026625224,-0.006433122,-0.0004494820000000019,-0.01859238,0.0053198180000000005,6.058,0,0
-0.008758443999999999,-0.0043663980000000005,0.012051818,-0.04191632000000001,-0.00017753400000000003,6.059,0,0
0.010520116,0.004595780000000001,0.026697078000000006,-0.06315108000000001,-0.006308814000000001,6.06,0,0
0.029939516,0.017485868,0.03733564000000001,-0.080655,-0.012652950000000001,6.061,0,0
0.04886188200000001,0.032860638,0.04164846000000001,-0.09003794000000001,-0.018969152000000003,6.062,0,0
0.06753722,0.048675028,0.04256432,-0.0927915,-0.025876052000000004,6.063,0,0
0.08275154,0.05658386,0.03833706,-0.09083046000000003,-0.032810080000000005,6.064,0,0
0.09167014000000001,0.048020410000000006,0.025513680000000004,-0.08217046000000001,-0.03774166,6.065,0,0
0.09301496000000001,0.024103570000000005,0.006230699999999999,-0.06569726,-0.03810488,6.066,0,0
0.08716716000000001,-0.0017145100000000024,-0.011694520000000003,-0.042341000000000004,-0.032132886,6.067,0,0
0.07576654000000001,-0.020742290000000004,-0.022061300000000006,-0.014605719999999999,-0.022150198000000006,6.068,0,0
0.06001228000000001,-0.03484661,-0.024073500000000005,0.014330780000000001,-0.011016938,6.069,0,0
0.0410645806,-0.0390035,-0.018597440000000007,0.04096106,0.0014191020000000002,6.07,0,0
0.022061460600000003,-0.029614080000000004,-0.00622756,0.06172234,0.013635882000000002,6.071,0,0
0.003581860600000001,-0.0155954,0.005117740000000001,0.07468584,0.022712208,6.072,0,0
-0.0158409594,-0.0006818199999999979,0.006352740000000001,0.07849892,0.030014440000000003,6.073,0,0
-0.0339568594,0.014111160000000003,-0.00182972,0.07161054,0.03618844,6.074,0,0
-0.04842764,0.019991356000000002,-0.0149102,0.057276339999999995,0.03839428,6.075,0,0
-0.05881900000000001,0.014368956,-0.025619120000000002,0.041016345999999995,0.03685234,6.076,0,0
-0.06436168,0.0013077359999999968,-0.025187908000000002,0.023475736000000004,0.03197532,6.077,0,0
-0.06476562000000001,-0.015409724000000003,-0.016753248,0.005929016,0.022524801999999997,6.078,0,0
-0.06074736000000001,-0.028800864000000006,-0.006066307999999996,-0.008045164,0.010028022000000003,6.079,0,0
-0.05266066000000001,-0.033197880000000006,0.006669992000000001,-0.018313084,-0.001325358,6.08,0,0
-0.04119596000000001,-0.028433740000000002,0.014076028,-0.026232610000000003,-0.010108598,6.081,0,0
-0.027627886,-0.0219647,0.009820516000000001,-0.029946979999999998,-0.016532778,6.082,0,0
-0.012550485999999996,-0.019242500000000003,-0.0007989440000000007,-0.02925468,-0.01915292,6.083,0,0
0.003263613999999999,-0.019161920000000002,-0.011240244,-0.025921700000000002,-0.01819884,6.084,0,0
0.017009874,-0.021546540000000003,-0.018992924,-0.017370592,-0.015870462000000002,6.085,0,0
0.025861414000000003,-0.02609922,-0.02145066,-0.003779191999999999,-0.012646003999999999,6.086,0,0
0.029116259999999998,-0.02933526,-0.018195412,0.010508128,-0.006361884,6.087,0,0
0.02692056,-0.029893799999999998,-0.010527272000000002,0.024262748,0.0016334560000000006,6.088,0,0
0.019804318,-0.02891246,-0.0016406920000000022,0.036241508,0.008673716000000001,6.089,0,0
0.009089858000000003,-0.020670174000000003,0.006002947999999999,0.04177754,0.015068198000000001,6.09,0,0
-0.0026804619999999998,-0.001021293999999999,0.012401408000000001,0.04005592,0.01930658,6.091,0,0
-0.013542182000000002,0.024918106000000002,0.0172962,0.03526912,0.019393040000000004,6.092,0,0
-0.023341942,0.049001146,0.02206758,0.028889420000000006,0.01724676,6.093,0,0
-0.03041716,0.06836576600000001,0.029038440000000002,0.02254552,0.01511626,6.094,0,0
-0.032182100000000005,0.07926844,0.03699492,0.018020440000000002,0.011456578,6.095,0,0
-0.028329856,0.07642576,0.04040965999999999,0.012867702,0.005893688,6.096,0,0
-0.020683896,0.056403117999999995,0.034534694,0.003946682,-0.0002984719999999993,6.097,0,0
-0.009784916000000001,0.020582958,0.018526353999999995,-0.007497598,-0.007667052,6.098,0,0
0.0036987039999999993,-0.014136542000000002,-0.0057119860000000005,-0.019193358,-0.015929871999999998,6.099,0,0
0.016010023999999998,-0.03804508200000001,-0.034090926,-0.032185678,-0.02339823,6.1,0,0
0.02512594,-0.054679142,-0.054220026,-0.043658220000000005,-0.028941079999999998,6.101,0,0
0.031419220000000005,-0.05737706000000001,-0.05696344,-0.0478501,-0.0309339,6.102,0,0
0.034523,-0.039598992000000006,-0.04815458799999999,-0.04497268,-0.02772646,6.103,0,0
0.03312154,-0.014429312000000003,-0.034003590199999996,-0.037807968,-0.019877128,6.104,0,0
0.026939898,0.007331608000000001,-0.015596276200000002,-0.024384788,-0.008377888,6.105,0,0
0.015711577999999997,0.027172928000000002,-0.0009687662000000003,-0.006096168000000001,0.005611972000000001,6.106,0,0
0.0014236379999999988,0.044881988,0.0037956557999999996,0.010128832000000003,0.019071172,6.107,0,0
-0.012607502,0.06423622,0.0073889638,0.022648212,0.028557272,6.108,0,0
-0.024937122000000003,0.08400478,0.015323746000000001,0.03178834,0.032244720000000004,6.109,0,0
-0.033488220000000006,0.09574816000000001,0.022714772,0.036130760000000005,0.030842840000000003,6.11,0,0
-0.03770406,0.0925967,0.025417042,0.03691278,0.026234820000000002,6.111,0,0
-0.03825632,0.07327276,0.025552912000000004,0.0363693,0.018951346,6.112,0,0
-0.035467280000000004,0.04270468000000001,0.024575932,0.033273880000000006,0.010757629999999999,6.113,0,0
-0.02966078,0.001309140000000002,0.021152492,0.026646118000000007,0.0039455739999999994,6.114,0,0
-0.021564188,-0.04256906,0.017489352,0.018167236,-0.0021795860000000007,6.115,0,0
-0.010954467999999998,-0.07206692,0.017483632,0.008240636,-0.008152306000000002,6.116,0,0
0.0012390120000000007,-0.08871702000000001,0.0218521,-0.003581324000000001,-0.012950712000000001,6.117,0,0
0.013698572000000003,-0.10888254000000001,0.023193700000000005,-0.014850744,-0.017480576,6.118,0,0
0.025508472000000004,-0.13111540000000002,0.01652766,-0.022913282,-0.022541360000000003,6.119,0,0
0.035843940000000005,-0.142934,0.008912400000000001,-0.029674320000000004,-0.02593438,6.12,0,0
0.04552008,-0.1446206,0.005408756000000001,-0.03727126,-0.02771168,6.121,0,0
0.05181208,-0.13663318,0.003472416,-0.04419832,-0.02904404,6.122,0,0
0.05079406000000001,-0.11368009999999999,0.003571276,-0.04874174,-0.02800044,6.123,0,0
0.04335446000000001,-0.075156006,0.004816288,-0.0503436,-0.022967678,6.124,0,0
0.0324817148,-0.030652965999999997,0.0026635079999999993,-0.046765459999999995,-0.015578255999999999,6.125,0,0
0.016772814800000004,0.011429594000000003,-0.0038453280000000003,-0.035047772,-0.006181515999999998,6.126,0,0
-0.0011879452000000002,0.05165957400000001,-0.020163548,-0.014580352,0.005531204,6.127,0,0
-0.0141913852,0.08530889400000001,-0.046568488,0.011194767999999999,0.016348104000000002,6.128,0,0
-0.0226959052,0.10109836000000001,-0.06724308000000001,0.037137428,0.024058342000000003,6.129,0,0
-0.0275639,0.10546092000000001,-0.07690592,0.058160887999999994,0.028797240000000005,6.13,0,0
-0.02689348,0.10591196,-0.0789957,0.07025522000000001,0.03102684,6.131,0,0
-0.022214440000000002,0.09599861999999999,-0.065655492,0.07260206000000001,0.03067462,6.132,0,0
-0.015238376,0.08381102,-0.036262572,0.06572888,0.02885434,6.133,0,0
-0.006925696,0.07809694,-0.000585111999999997,0.05222772,0.02679468,6.134,0,0
-0.0010889059999999997,0.07013838,0.035339948,0.035638976,0.023042940000000005,6.135,0,0
0.002330654,0.0579987,0.064449088,0.016575556000000005,0.016124448000000003,6.136,0,0
0.003797078,0.04961174,0.08435458000000001,-0.004967424,0.007501328,6.137,0,0
-0.0015650860000000007,0.041226860000000004,0.09821786,-0.024825804,-0.0012284920000000012,6.138,0,0
-0.011613446000000001,0.02352158,0.09427926,-0.039901404,-0.010500712000000002,6.139,0,0
-0.021660656,-0.008692660000000001,0.06225786,-0.052500240000000004,-0.018524292,6.14,0,0
-0.030670696000000004,-0.04395658,0.01914446,-0.062436660000000005,-0.023565720000000002,6.141,0,0
-0.03561496,-0.06861086,-0.018808240000000004,-0.06615174,-0.026102940000000005,6.142,0,0
-0.03414764000000001,-0.08798056,-0.05109766,-0.06455986000000001,-0.026588240000000003,6.143,0,0
-0.026059474200000002,-0.09534216000000001,-0.07203898,-0.061420260000000004,-0.02579238,6.144,0,0
-0.012114494200000003,-0.08241010000000001,-0.07016974000000001,-0.055818000000000006,-0.025099240000000002,6.145,0,0
0.0047123058,-0.06478184000000001,-0.05019072,-0.045986200000000005,-0.024803280000000004,6.146,0,0
0.0217298858,-0.05342348000000001,-0.02952578,-0.03494966,-0.024089040000000003,6.147,0,0
0.0378149058,-0.04039617400000001,-0.01408784,-0.024477743200000002,-0.02322868,6.148,0,0
0.049694260000000004,-0.021524314000000003,-0.0002605400000000005,-0.012260803200000002,-0.02109614,6.149,0,0
0.05476724,0.0015551460000000003,0.012813580000000001,0.0011883567999999992,-0.0161587584,6.15,0,0
0.051672720000000005,0.026874466,0.01940988,0.014858896800000002,-0.008808492400000003,6.151,0,0
