bandpass 1,bandpass 2,bandpass 3,bandpass 4,bandpass 5,time,onset,mark
-0.0040148648,-0.009292356000000002,0.001006998,-0.0006852986000000001,-0.00015137400000000002,5.042,1,1
-0.004440272800000001,-0.008094554,0.00213473,-0.0010243806000000003,0.00011611799999999996,5.043,0,0
-0.004524112,-0.005809314000000002,0.0027544740000000002,-0.0012636626,0.00014527159999999997,5.044,0,0
-0.0055557092,-0.0035467820000000005,0.001927382,-0.0011405106,0.00031937679999999996,5.045,0,0
-0.0041578232,0.0015829980000000002,-0.0007047020000000002,-0.0012517026000000001,0.0009417408,5.046,0,0
-0.0011866951999999998,0.007717678,-0.004111296,-0.0015325920000000002,0.0013729840000000003,5.047,0,0
-0.0010650612,0.007541252000000001,-0.0073586680000000005,-0.001738174,0.0012551114,5.048,0,0
-0.0009639871399999999,0.00558942,-0.008936448000000001,-0.0019285600000000002,0.0010197518000000002,5.049,0,0
0.00207155086,0.007375424,-0.007621680000000001,-0.002037988,0.0004412174000000002,5.05,0,0
0.004025844860000001,0.008006024,-0.004375244000000001,-0.001711316,-0.0006780546000000001,5.051,0,0
0.00405086486,0.00591677,-0.0011849060000000008,-0.0012548842,-0.0015374966,5.052,0,0
0.0054188768600000005,0.005514482,0.001227888,-0.0006021401999999999,-0.002141164,5.053,0,0
0.006230570000000001,0.005468562,0.0023550698000000003,0.00011537179999999999,-0.0024117640000000003,5.054,0,0
0.0037571520000000006,0.0020797320000000004,0.0018777953639999999,0.000549626,-0.0019527590000000003,5.055,0,0
0.001274794,-0.0002938379999999998,0.0007945273640000001,0.0007150114000000001,-0.0013072736200000002,5.056,0,0
0.00017345199999999988,-0.0005239365999999999,0.00022068936400000002,0.0009783836,-0.0009943196200000001,5.057,0,0
-0.0025518740000000004,-0.0021800446,0.00024868536400000007,0.0012111416,-0.00046897542000000006,5.058,0,0
-0.005678042000000001,-0.0036578886,0.00013883756400000002,0.0010769888,0.00071897458,5.059,0,0
-0.006211220000000001,-0.0031765186,0.00028661820000000005,0.0012780746,0.00133481558,5.06,0,0
-0.006439330000000001,-0.0031987546,0.0010796922,0.0015890472000000002,0.0014963104000000002,5.061,0,0
-0.007018756000000001,-0.003878686,0.0014874722000000002,0.0014785712,0.0019256504,5.062,0,0
-0.004666108,-0.0024806200000000002,0.0018299402,0.0011127538,0.0022134242000000004,5.063,0,0
-0.0011698960000000003,-0.0005735059999999999,0.0026590602000000005,0.0009399226000000001,0.0015480448,5.064,0,0
0.0004472540000000001,-0.00012590279999999984,0.0034893840000000003,0.0007075360000000001,0.000812655,5.065,0,0
0.0028627620000000005,0.0007918432000000003,0.0043157080000000006,-0.00010266200000000003,0.0008129314000000001,5.066,0,0
0.006115322,0.0021503632000000003,0.004441108,-0.00022361280000000001,0.00014579340000000005,5.067,0,0
0.006517838000000001,0.0015328472000000004,0.0036618116000000007,0.00030436260000000007,-0.0007839606,5.068,0,0
0.005932764,0.00045085520000000013,0.0027632736000000003,0.000396257,-0.0013007212,5.069,0,0
0.006754462,0.0009154540000000001,0.0011246856,0.0004053728,-0.0018356834,5.07,0,0
0.005861742,0.0004301446,-0.0010637304000000003,0.0009877867999999999,-0.002420756,5.071,0,0
0.002904246,-0.0012453594,-0.0020226804000000004,0.0012156356,-0.0021156972000000002,5.072,0,0
0.0013924819999999998,-0.0013608834000000002,-0.0020976412,0.0009654976,-0.0014099244,5.073,0,0
8.319999999999812e-06,-0.0014280094000000002,-0.0020373110000000004,0.0009802116000000001,-0.0008815424,5.074,0,0
-0.0035658240000000004,-0.0030669834000000007,-0.0011978956,0.00047079239999999996,0.0001380376,5.075,0,0
-0.006516788000000001,-0.0037068080000000002,0.00031500440000000005,-0.0001703236,0.0011663216,5.076,0,0
-0.007044580000000001,-0.003038124,0.0021137784000000003,-0.0006281912,0.0018446368000000002,5.077,0,0
-0.007851784,-0.0031222140000000008,0.0038891616000000006,-0.0012137932,0.00219424,5.078,0,0
-0.007973594,-0.0027381030000000004,0.0046777894,-0.0015220636,0.00254052,5.079,0,0
-0.004607514,-0.000608393,0.004048976,-0.00106885144,0.0026437020000000004,5.08,0,0
-0.0009489419999999999,0.001185667,0.001902262,-0.00051059744,0.002377492,5.081,0,0
0.00111128,0.001820519,-0.002165182,-0.00012774983999999998,0.0021050260000000003,5.082,0,0
0.0038995,0.003224745,-0.007474626000000001,0.00020231416,0.0017006427999999999,5.083,0,0
0.006031012,0.004598380000000001,-0.010809064000000002,0.00046558476,0.0009751487999999998,5.084,0,0
0.004821094200000001,0.0037660770000000005,-0.008464602000000002,0.0008835266000000001,0.0004152486,5.085,0,0
0.0038542602000000005,0.0030254210000000004,-0.0029379980000000007,0.0008125866,2.1621799999999963e-05,5.086,0,0
0.0039352262,0.0032704770000000004,0.0018390219999999996,0.0006354176000000001,-0.00038106800000000003,5.087,0,0
0.0022769484,0.0016021809999999998,0.00622957,0.0006998772,-0.0003020462,5.088,0,0
0.0008797047999999999,-0.000745815,0.008713710000000001,0.0005393608000000001,-0.0001329874,5.089,0,0
0.00091540866,-0.0013978380000000002,0.006432622000000001,0.00014356160000000005,-0.00018285140000000002,5.09,0,0
-0.0001698713400000001,-0.003068476,0.0013674980000000004,5.422960000000003e-05,-0.0001719554,5.091,0,0
-0.0027681513400000003,-0.006145380000000001,-0.001876468,0.00012242560000000002,-2.996579999999999e-05,5.092,0,0
-0.003983499540000001,-0.007309306,-0.0024639114,0.00016901700000000004,0.0001783636,5.093,0,0
-0.0045765519400000005,-0.007714726,-0.0020895113999999998,0.0002734448,0.0007051468,5.094,0,0
-0.005667888,-0.008219532,-0.0017803708000000001,0.00028404100000000007,0.001356391,5.095,0,0
-0.004738623400000001,-0.006201878000000001,-0.0011443748000000001,0.000285981,0.0016560198,5.096,0,0
-0.0016784154000000003,-0.001976746,-0.00021549480000000005,-0.00010962799999999996,0.0014769860820000001,5.097,0,0
0.0006593646000000002,0.0026164740000000006,9.696259999999996e-05,-0.0005444110000000001,0.000996121082,5.098,0,0
0.0023518386000000004,0.007478984000000001,0.0005533646,-0.0007966790000000001,0.00021144108199999987,5.099,0,0
0.004863502600000001,0.011526078,0.0010664340000000002,-0.0012850960000000001,-0.0006864189180000001,5.1,0,0
0.005818854000000001,0.012481986,0.0011504220000000001,-0.0015731160000000003,-0.001150030318,5.101,0,0
0.0046151414,0.010934084,0.0011424580000000003,-0.0012660312,-0.0016484724,5.102,0,0
0.004127087400000001,0.008490984,0.00029794400000000013,-0.0010168022000000003,-0.0020952194,5.103,0,0
0.003922627400000001,0.005015264000000001,-0.000956548,-0.0010650602000000001,-0.0020160674,5.104,0,0
0.0020847754000000002,0.0013398039999999996,-0.0016934679999999998,-0.0008027978,-0.0018008794000000002,5.105,0,0
0.0004367374000000001,-0.0006153040000000001,-0.001756112,-0.000473573,-0.0014746016,5.106,0,0
7.131200000000019e-05,-0.0007876644000000001,-0.0013679101999999998,-0.0004982404000000001,-0.0010588026,5.107,0,0
-0.001741182,-0.0017273524000000003,-0.0007990969999999999,-0.00016000740000000002,-0.0005140506,5.108,0,0
-0.0042081,-0.0029862644000000003,-0.000717115,0.00038071860000000004,0.00022933140000000007,5.109,0,0
-0.004900346,-0.0028093364000000005,-0.001504871,0.0005184152,0.0005976144000000001,5.11,0,0
-0.005771148,-0.0030214224000000003,-0.0017950490000000002,0.0005012156200000001,0.0005503834000000001,5.111,0,0
-0.006913416,-0.004045180000000001,-0.0016819648000000003,0.00030561522000000006,0.0007665630000000002,5.112,0,0
-0.005418616,-0.003128674,-0.0010681780000000004,-2.836978e-05,0.0008350370000000001,5.113,0,0
-0.0024254019999999997,-0.0008456700000000002,6.403999999999991e-05,-0.00015710078,0.0004646278,5.114,0,0
-0.0004014000000000002,-0.0004150855999999998,0.0008785520000000001,0.00021771822000000003,0.0003542278,5.115,0,0
0.0023493340000000002,-0.00029312960000000003,0.0013552564,0.000514371,0.0001468984,5.116,0,0
0.0048796360000000006,-0.0005727456000000001,0.0009529936,0.0007363646000000001,-0.000172678,5.117,0,0
0.0052140960000000005,-0.0021915176000000002,-0.0004434084000000001,0.0009808538,-0.000496538,5.118,0,0
0.004920654000000001,-0.0026007356,-0.0014632244,0.0009274922000000001,-0.0012535128,5.119,0,0
0.005113934,-0.00133186,-0.0005595844,0.0008184442,-0.0021169378,5.12,0,0
0.004815224,-1.006399999999995e-05,0.0008413591999999999,0.0006995106,-0.0028697718000000004,5.121,0,0
0.00364418358,0.0012340328000000002,0.0023716099999999997,0.0005862492,-0.003316344,5.122,0,0
0.00259526158,0.0026706008000000002,0.004033494,0.00045393960000000003,-0.0030512180000000005,5.123,0,0
0.0008953795799999997,0.0021448948,0.0033666020000000002,0.000519129,-0.0022866532,5.124,0,0
-0.00214104042,-3.53071999999999e-05,0.000548682,0.000415506,-0.0013162054000000003,5.125,0,0
-0.00526603842,-0.0018200592000000002,-0.0020525079999999998,6.647119999999998e-05,0.00011106460000000001,5.126,0,0
-0.006203338,-0.002466302,-0.0037506780000000003,-0.000166746,0.0012500606,5.127,0,0
-0.006625473999999999,-0.0036045560000000005,-0.004381817999999999,-0.00035164479999999997,0.0018603186,5.128,0,0
-0.006707798,-0.00478488,-0.00256624,-0.0007637596,0.0024996698,5.129,0,0
-0.003897312,-0.003999182,0.00033804000000000006,-0.0012950666,0.0025315648000000003,5.13,0,0
-0.0008670139999999996,-0.0030650290000000004,0.002215746,-0.0012314490000000001,0.0020398734,5.131,0,0
0.00048810600000000025,-0.0022425830000000002,0.0026710704,-0.0010987586000000002,0.0018639274000000002,5.132,0,0
0.0028710000000000003,9.897000000000248e-06,0.0019071143999999998,-0.001112521,0.0015800814,5.133,0,0
0.005681660000000001,0.002635075,0.0007609184000000001,-0.0007352672,0.0008112364,5.134,0,0
0.005475972000000001,0.0033240450000000003,-8.435220000000009e-05,-0.0002903834,0.0004783552,5.135,0,0
0.004954638000000001,0.004542938000000001,-0.0008027664000000001,0.00011749539999999999,0.0005456494,5.136,0,0
0.005469378000000001,0.006396202,-0.0017578368,0.000708743,0.00010103599999999999,5.137,0,0
0.003650552,0.00543463,-0.0020522308,0.0010103854,-0.0005198640000000001,5.138,0,0
0.0005926600000000003,0.0037734244,-0.0019102106000000003,0.0008914216,-0.00046009,5.139,0,0
-0.0006221940000000001,0.0036661684000000006,-0.0017316438000000002,0.0007351956,-0.0005906536,5.14,0,0
-0.0020772539999999997,0.0020118584,-0.0011974876000000003,0.0003335002,-0.0012834563999999998,5.141,0,0
-0.004894114,-0.0014859856000000002,-0.0002177542,-0.0003534038,-0.001227538,5.142,0,0
-0.005958018000000001,-0.0025811636000000002,0.00016263980000000007,-0.0010707836,-0.0008123023999999998,5.143,0,0
-0.0057596539999999995,-0.00296554,-9.445239999999994e-05,-0.0013009096,-0.0004535473999999999,5.144,0,0
-0.006439712,-0.004346872000000001,-0.00024264859999999997,-0.0013141522,0.0005465026000000001,5.145,0,0
-0.005979756,-0.0038979680000000004,-0.0010479326,-0.0015669328,0.0015824466,5.146,0,0
-0.0032817740000000003,-0.001491956,-0.00167676,-0.0014241800000000002,0.0020426776,5.147,0,0
-0.0010926499999999997,-9.203599999999988e-05,-0.001705838,-0.0009614744000000001,0.002310164,5.148,0,0
0.00061099,0.0005924468000000001,-0.00173572,-0.0008803304,0.0020333172000000003,5.149,0,0
0.003610868,0.0021180868,-0.0019322480000000001,-0.0010574036,0.0011532162,5.15,0,0
0.005699802,0.0023086766,-0.0016088488,-0.0009005288,0.0003786682,5.151,0,0
0.00533608,0.0008645205999999999,-0.0009440452,-0.0008163276,-0.0003894578,5.152,0,0
0.005488686000000001,-0.0003421474000000001,0.00026068680000000005,-0.0009665692000000001,-0.0013053758,5.153,0,0
0.00593717,-0.0009326222,0.0031802367999999998,-0.0008262724,-0.002092653,5.154,0,0
0.004394454,-0.0018206242000000001,0.0061873048,-0.00023538840000000003,-0.0023840500000000004,5.155,0,0
0.0029024400000000005,-0.002212738,0.0074288656,0.00020096479999999993,-0.002446294,5.156,0,0
0.0025183804000000003,-0.001978328,0.007415122600000001,0.00023964988,-0.002792532,5.157,0,0
0.00017291040000000043,-0.0024170119999999996,0.0066155678,0.00084464788,-0.002646288,5.158,0,0
-0.0035438296,-0.00290704,0.003879742,0.00155347908,-0.0018197928000000003,5.159,0,0
-0.0051776176,-0.0030377520000000003,0.0003558499999999998,0.0017356410800000001,-0.0010645728000000002,5.16,0,0
-0.0065525036000000005,-0.003631386,-0.0017797380000000003,0.00215020508,-0.00010214279999999989,5.161,0,0
-0.008253594000000001,-0.0037836460000000003,-0.0023487866,0.0028257020000000002,0.0013901172,5.162,0,0
-0.006789671400000001,-0.0016064360000000001,-0.0023862270000000003,0.002849186,0.0024052872,5.163,0,0
-0.0034692914000000004,0.000730966,-0.0024254192000000003,0.0025223000000000003,0.0025584579999999996,5.164,0,0
-0.0018854814,0.0025273400000000003,-0.0019169912000000001,0.0026922560000000005,0.0024985819999999996,5.165,0,0
7.50306e-05,0.005172342,-0.0006169072,0.002495034,0.0020926298,5.166,0,0
0.0035474446,0.006769872,0.0009577467999999999,0.0019465443999999998,0.0008829458000000003,5.167,0,0
0.005312974,0.006307010000000001,0.001349476,0.0017514396,-0.00041508820000000005,5.168,0,0
0.00550673,0.005323468,0.0009598419999999998,0.0012270340000000001,-0.0011387542000000001,5.169,0,0
0.006565696,0.0043421020000000005,0.0006129819999999997,0.0005469308000000001,-0.0021349682,5.17,0,0
0.006608360000000001,0.0023514702,0.0005612639999999998,0.00037230680000000004,-0.0029195320000000003,5.171,0,0
0.004139538,0.0009334282000000002,0.000835178,7.786860000000002e-05,-0.0028693720000000002,5.172,0,0
0.002117392,0.0015485282,0.0012420620000000002,-0.0004813746,-0.002449474,5.173,0,0
0.000744824,0.0020730282000000003,0.0019188808,-0.000716823,-0.001729632,5.174,0,0
-0.001823746,0.0007827262000000001,0.0023241488,-0.0009455618,-0.000415504,5.175,0,0
-0.003866102,-0.0010383940000000002,0.0014122668000000004,-0.0015212838,0.001066506,5.176,0,0
-0.0038985340000000004,-0.002450632,-0.0013651352,-0.001982756,0.002164062,5.177,0,0
-0.004419702,-0.004869212,-0.0026424432,-0.002171256,0.003084318,5.178,0,0
-0.004934982,-0.006656134,-0.0017449719999999996,-0.002333936,0.0034598100000000002,5.179,0,0
-0.0028367500000000003,-0.0051016460000000005,-0.001285926,-0.0024627340000000003,0.0031500340000000003,5.18,0,0
-0.00019891599999999994,-0.0025996559999999997,-0.000374042,-0.0021593998000000005,0.0023955836000000004,5.181,0,0
0.0010072500000000001,-0.0010523088,0.00033404400000000003,-0.0013438477999999998,0.0016658556000000001,5.182,0,0
0.00282094,0.0014010732000000001,-0.0011877140000000003,-0.0006531706000000001,0.0007803776000000001,5.183,0,0
0.004902728,0.0034678332,-0.0033763560000000005,-0.00012152199999999999,-0.00022395639999999996,5.184,0,0
0.004438698,0.0025687432000000006,-0.004292964,0.0004179896,-0.0009828684000000002,5.185,0,0
0.0036917160000000003,0.0019424618000000002,-0.0050617859999999995,0.000529963,-0.0017033080000000002,5.186,0,0
0.004217525999999999,0.0024394746000000007,-0.00493563,4.4273e-05,-0.002337782,5.187,0,0
0.0030118744,0.0005543185999999999,-0.0030810396,-2.1559400000000016e-05,-0.0024952520000000008,5.188,0,0
0.0007433564000000001,-0.0008898094000000001,-0.0018037396000000002,0.00026134,-0.0020665996000000003,5.189,0,0
-0.0002186696000000002,-0.00013347940000000001,-0.0013657296,-0.00022017760000000002,-0.0017134432000000001,5.19,0,0
-0.0019578016,-0.001003044,-0.0011406176,-0.0005759872000000001,-0.0010712348000000002,5.191,0,0
-0.0048521876,-0.002909296,-0.0005720640000000001,-0.0003224662,9.88120000000001e-06,5.192,0,0
-0.005996606,-0.003713592,0.0008021376000000001,-0.00044188820000000005,0.0007808512,5.193,0,0
-0.005813740000000001,-0.005069412000000001,0.0019628596,-0.00046056420000000007,0.0012478188,5.194,0,0
-0.006304322000000001,-0.007085846,0.0029511536,0.00042931579999999994,0.0015047356,5.195,0,0
-0.005541578,-0.007055646,0.0035614716000000003,0.0010862818,0.0014137198,5.196,0,0
-0.002778992,-0.005011216,0.0034426572000000005,0.0011996228,0.0011155278000000001,5.197,0,0
-0.0007793799999999999,-0.0026773620000000004,0.0027673012000000003,0.0013228932,0.000594673,5.198,0,0
0.001160146,0.0002210319999999999,0.0022505992,0.0013213832000000003,-7.409880000000001e-05,5.199,0,0
0.004502348,0.00404532,0.0018471712000000002,0.0011583692,-0.000610052,5.2,0,0
0.006658926,0.007057324,0.0012382412,0.0010279652000000001,-0.0011180766000000002,5.201,0,0
0.0057933558,0.008543994000000001,0.0012277328000000003,0.0011764352,-0.0013777218,5.202,0,0
0.004958463,0.010128924,0.0007553806000000001,0.0012218478000000001,-0.0012638790000000003,5.203,0,0
0.004386221,0.010489306,0.0007091406,0.0007787658,-0.0012192404,5.204,0,0
0.0017683870000000002,0.008034838,0.0011360766,8.703180000000006e-05,-0.0008962202000000002,5.205,0,0
-0.00033820099999999994,0.005421994,0.0013671205999999999,-0.00031234660000000006,-0.00042333020000000004,5.206,0,0
-0.00046239139999999996,0.0033995259999999995,0.0019381538,-0.0007805526,-0.00029362295999999996,5.207,0,0
-0.0017317646000000002,-0.00034935200000000015,0.0012998479999999997,-0.0011968004000000002,0.00012796704000000005,5.208,0,0
-0.0043672526000000005,-0.003722852,-0.0006438100000000002,-0.0011524702000000001,0.0005361882400000001,5.209,0,0
-0.005038182600000001,-0.0035886382000000004,-0.0021565640000000006,-0.0014726362000000001,0.00062858824,5.21,0,0
-0.005608006600000001,-0.0031327932000000005,-0.002561786,-0.0019064758000000002,0.0007706364400000001,5.211,0,0
-0.0069296800000000006,-0.0038237132000000004,-0.0029346132000000005,-0.0017823861999999998,0.0012548424,5.212,0,0
-0.005173472,-0.0016716712,-0.0023607082,-0.0017240302000000002,0.0015581624000000002,5.213,0,0
-0.0019026380000000003,0.0016369748,-0.0010154196000000002,-0.0019928904,0.0014796464000000002,5.214,0,0
-0.0001137200000000002,0.002201675,-0.0004154768000000001,-0.0016356724,0.0018298322,5.215,0,0
0.0021852779999999997,0.0031212460000000003,-0.00035042479999999995,-0.0011182884000000002,0.002010752,5.216,0,0
0.005179128,0.004715432,-0.0007485116,-0.0010439046,0.0014267754,5.217,0,0
0.005648202,0.0036264599999999998,-0.0005843625999999999,-0.0005813665999999999,0.0008362346000000001,5.218,0,0
0.004869102,0.0007670960000000001,-2.9203200000000066e-05,0.00026682940000000003,0.0009928326000000001,5.219,0,0
0.005485568,-0.00219937,0.00017073239999999996,0.0008936654000000001,0.0009587046000000001,5.22,0,0
0.005030022,-0.006632782,0.0002725184000000001,0.0012220774000000002,0.0005737128,5.221,0,0
0.0025325,-0.01157714,-0.00019257759999999997,0.00177048,0.0003185214,5.222,0,0
0.0009312760000000003,-0.014102392,-0.0012345956,0.0022699800000000004,-0.00012894180000000004,5.223,0,0
-7.462599999999973e-05,-0.01506146,-0.0020440156000000004,0.0026114360000000004,-0.0006091134,5.224,0,0
-0.003143326,-0.015904500000000002,-0.0025984680000000005,0.003081314,-0.0008174190000000001,5.225,0,0
-0.006605362,-0.01667286,-0.0033138360000000006,0.003223752,-0.0002570752,5.226,0,0
-0.007464988,-0.0158047,-0.003182718,0.0029522599999999995,0.00048033079999999995,5.227,0,0
-0.007753484,-0.012568788,-0.0015532360000000002,0.0025654600000000003,0.0012006448,5.228,0,0
-0.007881816,-0.0046055079999999995,0.00011015400000000011,0.0019216902,0.0018954784,5.229,0,0
-0.00494105,0.008701892000000001,0.002437656,0.0007441022,0.0017143048,5.23,0,0
-0.0005226299999999996,0.020496672,0.005896566000000001,-0.0003762758000000001,0.0011203042,5.231,0,0
0.0024366300000000004,0.026775972000000002,0.00804052,-0.0010948858000000001,0.0009369902000000001,5.232,0,0
0.00534544,0.028555580000000004,0.008009762,-0.0017870038000000002,0.0006013556000000001,5.233,0,0
0.00821188,0.023991896000000002,0.006888240000000001,-0.002510256,-0.0004157744,5.234,0,0
0.00768676,0.013476202,0.005201525000000001,-0.002919786,-0.0009420812000000001,5.235,0,0
0.006229510000000001,0.005767079999999999,0.002060211,-0.0026742,-0.0010993846000000001,5.236,0,0
0.006292792,0.0030138479999999995,-0.0014125310000000003,-0.0024435260000000006,-0.0018108426,5.237,0,0
0.0045896874,-0.000112516,-0.003641073,-0.00228543,-0.0024524580000000002,5.238,0,0
0.0018527634000000005,-0.0031436660000000003,-0.005072003,-0.0017588340000000001,-0.002369162,5.239,0,0
0.0011699173999999998,-0.004260356,-0.005473154,-0.00120266,-0.001877741,5.24,0,0
0.0001220653999999999,-0.005724514,-0.004565001999999999,-0.0006356988,-0.0016751734,5.241,0,0
-0.0028109846,-0.007881152,-0.0034368360000000004,-0.00020326919999999994,-0.0012315292,5.242,0,0
-0.004258568000000001,-0.008201422,-0.002662462,-0.00016660719999999997,-0.0005475046000000001,5.243,0,0
-0.004718202,-0.00614457,-0.001603295,3.0227200000000035e-05,-1.928939999999997e-05,5.244,0,0
-0.00637302,-0.002982144,-0.0009457330000000003,0.0003642984,0.00034635760000000003,5.245,0,0
-0.00669196,-0.00028604200000000024,-0.000609837,-2.008279999999999e-05,0.000739594,5.246,0,0
-0.004419702,0.0018751679999999998,0.000696455,-0.00018694104,0.0010229418000000001,5.247,0,0
-0.00241637,0.0029914286,0.0017862070000000002,0.00024241096,0.0005675652000000001,5.248,0,0
-0.0008365479999999998,0.0023427586,0.001223914,0.00043715456,-2.1524000000000033e-05,5.249,0,0
0.0024561080000000002,0.0010201234,0.0004750479999999997,0.0006226713600000001,-0.000605152,5.25,0,0
0.0051978300000000005,-1.049599999999984e-06,4.617579999999992e-05,0.00114266536,-0.001284548,5.251,0,0
0.0052115500000000006,-0.0012582156,-0.0014610102,0.0014737880000000002,-0.00172129,5.252,0,0
0.005119392,-0.0016357382,-0.0029398942000000003,0.0010753546,-0.0017826600000000001,5.253,0,0
0.0050770780000000005,-0.0005114721999999999,-0.0029287182,0.00033586460000000016,-0.0017340380000000002,5.254,0,0
0.0028212120000000005,-0.0003008309999999999,-0.002505919,-0.00013683579999999992,-0.0015666368,5.255,0,0
0.0004497920000000001,-5.267999999999896e-06,-0.0015925148,-0.00043384780000000006,-0.0013020762000000002,5.256,0,0
-0.00018929404000000004,0.0009643390000000001,0.00025697920000000013,-0.0006206764,-0.0013239462000000002,5.257,0,0
-0.0015439520400000002,-7.259499999999973e-05,0.0017655372,-0.0002532070000000001,-0.0007852146,5.258,0,0
-0.00353809404,-0.0026293510000000003,0.0027656792,8.647780000000001e-05,9.546540000000001e-05,5.259,0,0
-0.00357077604,-0.004329893,0.0028718208000000005,8.907879999999998e-05,0.0004945742000000001,5.26,0,0
-0.00357341204,-0.006195979,0.0015649128,-9.21788e-05,0.0007245778,5.261,0,0
-0.004822140000000001,-0.00835076,0.0002563247999999999,-0.0006243282,0.0010385166,5.262,0,0
-0.003997685,-0.007470584000000001,-0.0003334972000000001,-0.0014011462000000003,0.0010022488000000001,5.263,0,0
-0.0012206290000000004,-0.00483373,-0.00028810120000000004,-0.001570327,0.0004588228,5.264,0,0
0.0005418549999999999,-0.003118592,0.00015263799999999992,-0.0011170736,0.00032300979999999997,5.265,0,0
0.002529421,-0.00013017999999999992,0.0006906379999999999,-0.000627008,0.00019402059999999998,5.266,0,0
0.005254943,0.0037938000000000004,0.00168316,0.00017054599999999988,-8.781219999999998e-05,5.267,0,0
0.005832368000000001,0.0047533340000000006,0.002193366,0.0011389160000000002,-0.00024643699999999996,5.268,0,0
0.004473004000000001,0.004267736,0.001738134,0.00176146,-0.00022671162,5.269,0,0
0.0037282300000000003,0.005067296000000001,0.0011075777999999998,0.0018347440000000003,0.0002878493800000001,5.27,0,0
0.0028774259999999998,0.00450268,0.0009941298000000001,0.0016236758000000003,0.0007633103800000001,5.271,0,0
0.000838078,0.0026351480000000004,0.0007317998,0.0007820198000000003,0.0011753023800000002,5.272,0,0
-0.00040749800000000006,0.0020365060000000004,5.459379999999997e-05,-0.0003215881999999998,0.0016345853800000002,5.273,0,0
-0.000907886,0.0011731320000000003,-2.234820000000001e-05,-0.0011409381999999998,0.001905418,5.274,0,0
-0.002858914,-0.001356318,-4.897140000000002e-05,-0.0015675116000000002,0.0014385614000000002,5.275,0,0
-0.004983618,-0.0029058400000000002,-0.0003224858,-0.0014553513999999998,0.0009840834,5.276,0,0
-0.005165182000000001,-0.002379948,-0.000546039,-0.0008591421999999999,0.0009526722000000001,5.277,0,0
-0.005592784000000001,-0.0019984081999999998,-0.0002786512,8.880400000000065e-06,0.0006484417999999999,5.278,0,0
-0.006622582,-0.0019978042000000002,-9.785240000000004e-05,0.00035710560000000007,0.0007378878000000001,5.279,0,0
-0.005585534,-0.0016279862000000002,-0.000298011,0.00017605300000000007,0.0010764604000000001,5.28,0,0
-0.0031923000000000003,-0.0007503386000000001,-0.000350231,9.902680000000005e-05,0.0009980170000000001,5.281,0,0
-0.0014897160000000003,0.0004485734,-0.0006901898,7.761600000000002e-05,0.0006044782000000002,5.282,0,0
0.0011438420000000004,0.0022588876000000004,-0.0012517615999999999,-0.0002206794,-1.649339999999994e-05,5.283,0,0
0.004779628000000001,0.0039999136,-0.0017004484,9.741540000000003e-05,-0.0010798074,5.284,0,0
0.006228746,0.004270459600000001,-0.0015540628,0.0009449654000000001,-0.0021389354,5.285,0,0
0.006280508000000001,0.003847180000000001,-0.0010018864000000001,0.0012495156,-0.0025747800000000005,5.286,0,0
0.006516606,0.003106382,-0.00023157440000000015,0.0013520852,-0.0027652,5.287,0,0
0.005257246,0.0010785856000000002,0.0005706921999999999,0.001710604,-0.0026769680000000005,5.288,0,0
0.002929974,-0.0007394164,0.0013644882000000001,0.002056542,-0.0019626710200000004,5.289,0,0
0.0022930940000000003,5.1442200000000014e-05,0.0038951226,0.002094342,-0.00110037702,5.29,0,0
0.0011747700000000001,0.0001526422,0.0071510106,0.0020275360000000004,-0.00042230342,5.291,0,0
-0.0018331880000000001,-0.0014493298,0.008378966600000001,0.0018897614,0.00038945857999999993,5.292,0,0
-0.0038333860000000003,-0.001341504,0.007298875999999999,0.0017428259999999998,0.0013323985800000001,5.293,0,0
-0.004698768000000001,-0.0012162140000000002,0.0038032299999999995,0.0014778179999999999,0.0016751376,5.294,0,0
-0.006339336000000001,-0.0025924026,-0.0011778900000000013,0.001080246,0.0013767176,5.295,0,0
-0.006734004,-0.0026778126,-0.0051653540000000005,0.001011882,0.0013958216,5.296,0,0
-0.003950112,-0.0013257086,-0.007136498,0.0008159324,0.0013019096,5.297,0,0
-0.001224576,-0.001016938,-0.00696153,0.0002390558,0.0006926354,5.298,0,0
0.0008585539999999999,-0.0003864398,-0.004798854,-0.0006413282,0.0006591814000000001,5.299,0,0
0.004060578,0.0017311122,-0.00381541,-0.0016710561999999998,0.0008546634000000001,5.3,0,0
0.0063368899999999995,0.0028089962000000003,-0.005280964,-0.0021867882,0.0001931818,5.301,0,0
0.005736298,0.0022777182000000003,-0.006000256000000001,-0.0019294014,-0.0005528222,5.302,0,0
0.005449834,0.0027746122,-0.005395862600000001,-0.0012676792,-0.000776654,5.303,0,0
0.00581858,0.003718898,-0.0035458186000000007,-0.00039485919999999975,-0.001389464,5.304,0,0
0.0036360480000000002,0.002512098,-0.00017506260000000034,0.0006200788000000001,-0.00155410664,5.305,0,0
0.0012780879999999997,0.0014164520000000001,0.0024143714,0.0005571867999999999,-0.0007225866399999999,5.306,0,0
0.0005231780000000001,0.001514194,0.0034017966,-0.0004235318000000001,-5.376463999999992e-05,5.307,0,0
-0.0018119400000000002,1.1059999999999586e-06,0.00371372,-0.00113088,0.0006688213600000001,5.308,0,0
-0.005262982000000001,-0.002197318,0.0030561900000000003,-0.001628504,0.0011737093599999999,5.309,0,0
-0.006353984,-0.00240833,0.0017301120000000002,-0.0019616062,0.0010877918000000001,5.31,0,0
-0.0066540340000000005,-0.0028115580000000005,0.0017903800000000003,-0.0014824954,0.0008033766000000001,5.311,0,0
-0.007484816,-0.004689048,0.0028668328,-0.00019664740000000002,0.0005048258,5.312,0,0
-0.0060099356,-0.004684266,0.003373412,0.0006994026,0.00012743697999999996,5.313,0,0
-0.0027836156,-0.003317832,0.0033993000000000005,0.0008849182,-0.00022898342000000002,5.314,0,0
-0.0007122016000000001,-0.002989336,0.0026068840000000007,0.0009753164000000001,-0.00041841522,5.315,0,0
0.0013462043999999999,-0.0017977879999999998,0.001167532,0.0008737978000000001,-0.00066743502,5.316,0,0
0.0041653124,0.000787942,-6.371200000000147e-06,0.00013628980000000008,-0.00107206222,5.317,0,0
0.005089664000000001,0.001884658,-0.0008313220000000002,-0.0004481362,-0.0015640253999999998,5.318,0,0
0.00428432,0.001877886,-0.00126295,-0.0005423938,-0.001650979,5.319,0,0
0.0045179140000000005,0.0031277060000000005,-0.0009404160000000001,-0.0009976558,-0.0016536869999999998,5.32,0,0
0.00427982,0.0036740540000000004,-0.0003644984,-0.001802208,-0.00175044,5.321,0,0
0.0022988020000000004,0.0025293458000000004,-0.000349512,-0.002130378,-0.0011486564000000002,5.322,0,0
0.0015452416,0.0019006086000000002,-0.0008586472000000001,-0.002190882,-0.00019567440000000004,5.323,0,0
0.0012324692000000002,0.0011767426,-0.0014577192000000002,-0.0022026216,0.0004084076,5.324,0,0
-0.0013531088,-0.0016259334000000001,-0.0021066752,-0.001710373,0.0012515375999999998,5.325,0,0
-0.0039949448000000005,-0.0049035374,-0.0025488348000000005,-0.0008198923999999998,0.0020650416,5.326,0,0
-0.0045472428,-0.0058157972,-0.0026433624000000004,0.00014052960000000006,0.0021112934,5.327,0,0
-0.005327792400000001,-0.0055872094,-0.0024235424,0.0006493796,0.0020361894,5.328,0,0
-0.006020590000000001,-0.0055943634,-0.0020790824,0.000648932,0.0018575208,5.329,0,0
-0.003527904,-0.0033254794,-0.0017035904000000002,0.00026513939999999993,0.0011128692,5.33,0,0
-0.0005186140000000001,0.0010780406000000001,-0.0007455724000000001,-0.00030276120000000004,0.00043652300000000013,5.331,0,0
0.0005150610000000001,0.0040808905999999995,0.0005216999999999998,-0.0006336826000000001,0.0002431856000000001,5.332,0,0
0.0024421850000000004,0.005718872,0.0019053479999999999,-0.0009149710000000002,-7.419379999999999e-05,5.333,0,0
0.005135339000000001,0.007323298000000001,0.0030931820000000003,-0.0009757998000000001,-0.00034442660000000004,5.334,0,0
0.005296411000000001,0.006854063299999999,0.003768174,-0.0002742278,-0.000549515,5.335,0,0
0.004601991,0.0047555577,0.003805322,0.0005704842,-0.0005017238000000001,5.336,0,0
0.0051624520000000005,0.0036081297,0.002831879,0.0009273916,-0.00021577979999999998,5.337,0,0
0.003872686,0.0020335211,0.001243191,0.0015142480000000002,-0.00013451279999999996,5.338,0,0
0.0007831360000000002,0.00039248509999999996,-0.00042054700000000006,0.002355078,0.0001976726,5.339,0,0
-0.001284236,0.0002023854,-0.0016893910000000002,0.002428194,0.0003885402000000001,5.34,0,0
-0.0031377920000000004,-0.0004926730000000001,-0.002612911,0.00232531,0.0001896652,5.341,0,0
-0.0064769960000000005,-0.002335659,-0.002530854,0.002284678,-4.4902399999999965e-05,5.342,0,0
-0.008990136000000001,-0.0032524524000000004,-0.0014327999999999997,0.0016732974000000002,-0.00020059096000000002,5.343,0,0
-0.008625306000000001,-0.0030388644,-0.0007329201999999998,0.0009841016,-5.6406959999999906e-05,5.344,0,0
-0.007825914000000002,-0.0032659119999999997,-0.00015503420000000003,0.0004582906000000001,0.0007909734400000001,5.345,0,0
-0.0061815748,-0.0031447720000000005,0.0005853518,-0.00023409140000000005,0.00150127744,5.346,0,0
-0.0021556188,-0.0015615240000000001,0.0011960338,-0.0011282134,0.00153392104,5.347,0,0
0.0018592692,-9.555400000000008e-05,0.0019742658,-0.0015335328000000003,0.0015545672000000003,5.348,0,0
0.004098859200000001,0.00128216,0.0024299260000000002,-0.0017347910000000003,0.0012347400000000002,5.349,0,0
0.0070661912,0.0036886700000000002,0.0013004800000000001,-0.0021661660000000006,0.00058566032,5.35,0,0
0.009056734,0.005905222,-0.0006485740000000001,-0.002230674,-5.000767999999999e-05,5.351,0,0
0.008037694000000001,0.005660210000000001,-0.002253804,-0.0017107222000000003,-0.00055753768,5.352,0,0
0.007157632000000001,0.005433562000000001,-0.0027984160000000006,-0.0013654808,-0.0008640048800000001,5.353,0,0
0.006666202000000001,0.00535476,-0.0014553320000000006,-0.0012917748000000001,-0.00123825368,5.354,0,0
0.0040535077,0.002118028,0.0009016360000000001,-0.0005064728000000001,-0.0015673400000000002,5.355,0,0
0.0009830157,-0.0011508620000000001,0.00312385,0.0003394312,-0.0014828626000000001,5.356,0,0
0.0007966601000000001,-0.0039974960000000006,0.002795458,0.0008380694000000001,-0.0013489766000000002,5.357,0,0
-0.0012161119,-0.00637922,0.0006598800000000003,0.001290228,-0.0016237226,5.358,0,0
-0.0029018959,-0.009611070000000001,-0.0005627,0.0016185334,-0.0023348126,5.359,0,0
-0.0039033436000000003,-0.008708974000000001,-0.0020493580000000003,0.0019342174000000004,-0.0039513506,5.36,0,0
-0.0024277756000000003,-0.0005055120000000014,-0.003185662,0.0022777074000000005,-0.005845978,5.361,0,0
0.006719424000000002,0.0060931480000000005,-0.0018229540000000001,0.0025996074,-0.00685844,5.362,0,0
0.01332695,0.008726850000000001,-0.00037504680000000003,0.0029951694,-0.007225906000000001,5.363,0,0
0.011983014000000004,0.00872335,-0.0006603350000000002,0.003849666,-0.00617575,5.364,0,0
0.007228616000000003,0.002855766,0.000292187,0.004176838,-0.0031062819999999993,5.365,0,0
-0.0031235199999999986,-0.010568993999999998,0.0018752110000000001,0.003385518,0.0004431820000000003,5.366,0,0
-0.02363134,-0.022734654,0.0025952270000000003,0.002102326,0.0039463480000000006,5.367,0,0
-0.04078102,-0.03116188,0.0030935538,0.000551288,0.007747256000000001,5.368,0,0
-0.046866500000000005,-0.03324568,0.0030880528000000003,-0.0015331540000000001,0.0107679,5.369,0,0
-0.04473158,-0.027212906800000002,0.0027839018000000004,-0.0037326540000000006,0.012272744,5.37,0,0
-0.034213891999999996,-0.017895686799999998,0.0014648257999999997,-0.005018062,0.012488612000000001,5.371,0,0
-0.017346732000000004,-0.0034757668,4.331799999999944e-06,-0.005845758,0.011291934,5.372,0,0
0.004210388,0.0133569932,-0.0005535578000000002,-0.00643933,0.008603017400000001,5.373,0,0
0.023995508,0.027508313200000002,-0.0011919366,-0.006283434000000001,0.004741375399999999,5.374,0,0
0.040438128000000004,0.03768448,-0.0022823356,-0.005435986,0.0004203233999999999,5.375,0,0
0.05333116,0.04438802,-0.0031431916000000002,-0.0042337526000000006,-0.0034601686000000006,5.376,0,0
0.058760820000000005,0.04438032,-0.0035505356,-0.0025813386,-0.0067982106,5.377,0,0
0.05620084,0.037047882000000004,-0.003988464,-0.00046742059999999963,-0.009423294,5.378,0,0
0.04777468000000001,0.026364716,-0.0039029520000000003,0.0012268634,-0.010659252000000001,5.379,0,0
0.033531766000000005,0.012683336,-0.0032438379999999998,0.0022958494,-0.010677616000000001,5.38,0,0
0.013518866000000003,-0.003791604000000002,-0.0021811982,0.0030333240000000004,-0.009391776000000003,5.381,0,0
-0.007080913999999999,-0.019160704,-0.0003512961999999999,0.003092066,-0.0068536736000000004,5.382,0,0
-0.025385774,-0.030440166,0.0021676278,0.002894526,-0.0034379555999999997,5.383,0,0
-0.041638374000000006,-0.03833718,0.0042450458,0.0030216220000000003,0.00048016240000000004,5.384,0,0
-0.05209296000000001,-0.04083906,0.005054805799999999,0.0025871294,0.004256798399999999,5.385,0,0
-0.05340778,-0.0363082,0.00478933,0.0013439954000000003,0.0072050584,5.386,0,0
-0.047791020000000003,-0.027504898,0.0039441376,0.0003079714000000001,0.008893514,5.387,0,0
-0.036649476199999996,-0.015754518000000002,0.0030318756,-0.00046979860000000005,0.009228144,5.388,0,0
-0.0194067562,-0.0010277580000000001,0.0015886156000000002,-0.0013790378,0.007968492,5.389,0,0
-0.00023633620000000025,0.013429482000000001,0.0007226556000000002,-0.0015023264,0.0057849262,5.39,0,0
0.0165060838,0.024914182000000003,0.0003825136000000002,-0.0006690644,0.0028891262,5.391,0,0
0.0306202638,0.0338694,-0.0008267579999999998,0.00010802460000000004,-0.0005421058,5.392,0,0
0.040494379999999996,0.03889522000000001,-0.0019502245999999997,0.0008529126,-0.0038586338,5.393,0,0
0.04325705999999999,0.03693660000000001,-0.0024647326,0.0016355858,-0.0068814198,5.394,0,0
0.03972742,0.029584018,-0.0024959226,0.002170635,-0.009085494,5.395,0,0
0.031883022000000004,0.01986284,-0.0012257865999999997,0.002363565,-0.009910156000000002,5.396,0,0
0.019427522000000003,0.00739156,0.00016520940000000023,0.0027268520000000005,-0.00938756,5.397,0,0
0.0037701819999999995,-0.005999280000000001,-0.00024178799999999983,0.0028857040000000002,-0.007778106000000002,5.398,0,0
-0.011273978,-0.01666358,-0.0004735679999999999,0.0018789780000000003,-0.004691484000000001,5.399,0,0
-0.024482098,-0.024766838000000003,-0.0007589579999999999,0.000856238,-0.0009806119999999998,5.4,0,0
-0.03610104,-0.03126372,-0.002101986,0.00011073000000000002,0.002387124,5.401,0,0
-0.04212562,-0.03256442,-0.0024336686,-0.0010595399999999999,0.006009762,5.402,0,0
-0.040485400000000005,-0.028390856,-0.0018036025999999998,-0.002474918,0.008942628000000001,5.403,0,0
-0.03419879800000001,-0.02288407,-0.0007995285999999999,-0.003072982,0.010002294,5.404,0,0
-0.023410602000000006,-0.014673617999999998,0.00033524739999999997,-0.002910276,0.00983287,5.405,0,0
-0.008009202000000003,-0.0027009179999999983,0.0005173954,-0.0029470119999999997,0.00839492,5.406,0,0
0.006950458000000001,0.008619342,-0.000342106,-0.002038558,0.005517556,5.407,0,0
0.019088057999999998,0.017713458,-0.0011454540000000002,-0.00039402199999999995,0.0023757039999999993,5.408,0,0
0.029899336,0.025973932,-0.002079982,0.000833346,-0.0005333500000000001,5.409,0,0
0.03677514,0.02983986,-0.002073918,0.001487978,-0.0031907280000000003,5.41,0,0
0.037038560000000005,0.026913529999999998,0.00021710999999999996,0.0017020968,-0.004947894,5.411,0,0
0.03275492,0.019725234,0.0022275280000000003,0.0012414808,-0.005762260000000001,5.412,0,0
0.025207258,0.008925654000000002,0.0028208253,0.0005902942000000001,-0.005943456,5.413,0,0
0.013247357999999999,-0.004276546,0.0027420173000000003,0.0007298322000000001,-0.005589276000000001,5.414,0,0
-0.00021202200000000008,-0.015118165999999999,0.0015888733000000003,0.0010064282000000003,-0.004502648000000001,5.415,0,0
-0.011673962000000001,-0.022299015999999998,-0.00032228369999999984,0.0017014854000000001,-0.0028355034,5.416,0,0
-0.022044822000000002,-0.027519000000000002,-0.0010627657,0.0023998474000000002,-0.0012008694,5.417,0,0
-0.030742280000000004,-0.02818934,-0.0006038629999999998,0.0022519806000000004,0.0005910946000000001,5.418,0,0
-0.03416078,-0.022817196000000005,0.00010058720000000006,0.0015793884000000003,0.0025098346,5.419,0,0
-0.03241298,-0.015111712000000001,0.000957552,0.00046253640000000024,0.0038151806000000003,5.42,0,0
-0.027474210000000002,-0.007436611999999999,0.0009966732,-0.0005562776000000001,0.004287638,5.421,0,0
-0.017649006000000002,0.0018745079999999996,0.0004884707999999999,-0.0012408938000000001,0.004235298,5.422,0,0
-0.004135446000000001,0.011405528000000002,5.14232e-05,-0.0019127404000000001,0.0032266620000000004,5.423,0,0
0.008230214,0.016899944,-0.00044394300000000003,-0.0023636382,0.0014123280000000005,5.424,0,0
0.018212574,0.01931,-0.0010463798000000001,-0.0021182882,-0.0002619820000000001,5.425,0,0
0.026790203999999998,0.021421700000000002,-0.0009785316000000001,-0.0016286874000000001,-0.0018642180000000002,5.426,0,0
0.030685499999999998,0.020094406000000002,-0.0005095712,-0.0010759492,-0.0036135380000000003,5.427,0,0
0.028289839999999997,0.013776606000000002,-0.0005187073999999999,-0.00012029519999999993,-0.00452865,5.428,0,0
0.024,0.008582656000000001,3.630260000000006e-05,0.0006283914000000001,-0.004674946000000001,5.429,0,0
0.017840988000000002,0.0044890646,0.0012664806000000002,0.0010998934000000001,-0.004910434000000001,5.43,0,0
0.007442708000000001,-0.0020718754,0.0022343382000000003,0.0014656906000000002,-0.0039328824000000005,5.431,0,0
-0.003118132,-0.0072668813999999995,0.0028420582000000002,0.001224061,-0.0019892904,5.432,0,0
-0.011212192000000001,-0.010071601400000001,0.0034779000000000003,0.0009492382000000001,-0.0002108924000000002,5.433,0,0
-0.019734552,-0.014432991400000001,0.0035770040000000004,0.0007448202000000002,0.0019372316,5.434,0,0
-0.026429559999999998,-0.018201500000000002,0.0026230746,0.00016768020000000003,0.0043004496,5.435,0,0
-0.027076979999999997,-0.016982990000000003,0.0012676766000000001,-0.0003898416,0.00556015,5.436,0,0
-0.024282360000000003,-0.013653840000000002,-0.00048005939999999994,-0.0008139520000000001,0.005773774000000001,5.437,0,0
-0.019346904,-0.009120726000000001,-0.0022339594,-0.0010585152,0.005562344,5.438,0,0
-0.009948104000000003,-0.0011747860000000006,-0.0029397114,-0.0011461814000000002,0.0042316528,5.439,0,0
0.0011525559999999995,0.0063728940000000005,-0.0026070814000000004,-0.0012102354,0.0023245768000000003,5.44,0,0
0.009855056000000001,0.010756704,-0.002289625,-0.001187674,0.0006006128,5.441,0,0
0.017309816000000002,0.014575614,-0.0027522670000000005,-0.0007268649999999999,-0.0010082772000000002,5.442,0,0
0.0234986,0.01774024,-0.003521909,1.9219000000000007e-05,-0.0026750692,5.443,0,0
0.0249094,0.01722852,-0.004337153,0.0006874226000000001,-0.003935214,5.444,0,0
0.0224184,0.014374374,-0.0046938096,0.0014937586000000002,-0.004450802,5.445,0,0
0.018746006,0.01092244,-0.0031945919999999996,0.0022002110000000005,-0.004405724,5.446,0,0
0.012148334,0.005640860000000001,0.00026356800000000005,0.0022657400000000005,-0.0037907124,5.447,0,0
0.002533153999999999,-0.0012600600000000003,0.0038015320000000003,0.0016495974000000002,-0.0027814964,5.448,0,0
-0.006012006,-0.0076369800000000015,0.005982166000000001,0.0007340834000000001,-0.0012456643999999998,5.449,0,0
-0.013425406,-0.013044194000000002,0.006713738000000001,-0.0001627885999999999,0.0006345636000000001,5.45,0,0
-0.020866072,-0.0181205,0.0054095694000000005,-0.0010124346,0.0023579956,5.451,0,0
-0.02430644,-0.020511540000000005,0.0027691574,-0.0018147846,0.0036231200000000005,5.452,0,0
-0.022707279999999996,-0.018775394000000004,0.0006208514000000003,-0.00233227,0.0045192900000000005,5.453,0,0
-0.019482812,-0.015898172000000002,-0.0009891246,-0.002316496,0.005041896000000001,5.454,0,0
-0.014215907400000002,-0.011767106000000001,-0.0022907306,-0.002271742,0.004609998000000001,5.455,0,0
-0.005319047400000001,-0.002866806,-0.0027363780000000002,-0.002323514,0.0031123584,5.456,0,0
0.0031579126000000003,0.0069210140000000005,-0.0021824202,-0.0017940478000000003,0.0015646463999999998,5.457,0,0
0.009463592600000001,0.013065548000000001,-0.0017903356,-0.0012767354000000003,-5.395600000000149e-06,5.458,0,0
0.015332884600000003,0.016631066,-0.0019920576000000004,-0.0010930634000000002,-0.0018446476,5.459,0,0
0.0190372,0.017990424,-0.0018349116000000003,-0.0005408558,-0.0030996196000000003,5.46,0,0
0.019425440000000002,0.017029484,-0.0017708296000000002,0.0002483882,-0.0036348280000000005,5.461,0,0
0.018082600000000004,0.014121464,-0.0022116514000000004,0.00060319,-0.003745796,5.462,0,0
0.015366506000000002,0.010046048,-0.0018823160000000004,0.0008458348,-0.0036801279999999995,5.463,0,0
0.009778424,0.005949328,-0.0011330446000000001,0.0014327948,-0.0032665619999999998,5.464,0,0
0.0029014640000000003,0.002140904,-0.0008043766000000001,0.0015683972,-0.0024129612,5.465,0,0
-0.003676976,-0.0033951159999999997,0.0007070974000000002,0.0012659246,-0.0016963404,5.466,0,0
-0.010732835999999999,-0.010103276000000001,0.0029644774000000007,0.0013459986000000001,-0.0011586134,5.467,0,0
-0.017225602,-0.01475208,0.0039124854,0.0015696114000000002,-8.473340000000006e-05,5.468,0,0
-0.01966648,-0.015221660000000001,0.0044838840000000005,0.0011510618,0.0011200626,5.469,0,0
-0.01824294,-0.012069282000000002,0.00518329,0.0005491918000000001,0.0018685498,5.47,0,0
-0.015818844,-0.008895070000000001,0.004264142000000001,0.0005010442,0.0026879350000000002,5.471,0,0
-0.01031225,-0.005202345000000001,0.00192814,0.0006739442,0.0034207940000000004,5.472,0,0
-0.00209109,-0.00026539100000000013,-0.0001853559999999999,0.0008614862,0.0036546960000000002,5.473,0,0
0.004380210000000001,0.0019303749999999998,-0.001590422,0.0016094438,0.0033269880000000003,5.474,0,0
0.00941819,0.001219673,-0.002695406,0.0021341842,0.002092418,5.475,0,0
0.014774493999999999,0.0009918597999999997,-0.003283722,0.0018017404000000002,0.0004082459999999999,5.476,0,0
0.01710474,-0.0002692472000000003,-0.0026244320000000003,0.0013511692,-0.0011283640000000002,5.477,0,0
0.015358403999999999,-0.0037201612,-0.0013695680000000003,0.0006914,-0.0025873240000000002,5.478,0,0
0.013125016000000002,-0.0057457592,-0.0005373948,-0.00015421899999999998,-0.003648464,5.479,0,0
0.010084278,-0.0061268432,-7.939600000000035e-06,-0.0005408514000000001,-0.004089134,5.48,0,0
0.004411062000000001,-0.004438804,-4.702960000000007e-05,-0.0005514754,-0.003797502,5.481,0,0
-0.0015898780000000003,0.0027397180000000004,-0.0004586672,-0.0012056142,-0.0031700594,5.482,0,0
-0.006020402000000001,0.010685078,0.00014505879999999994,-0.0018910810000000002,-0.0020841673999999998,5.483,0,0
-0.010812194,0.012924764,0.0011994236,-0.0023963380000000005,-0.0004522594,5.484,0,0
-0.015255516,0.011940122000000001,0.0015781124000000001,-0.00314668,0.0012000626,5.485,0,0
-0.016293639999999998,0.008934134000000002,0.0016382204000000003,-0.003750416,0.0024582466,5.486,0,0
-0.014687326000000002,0.001767328,0.00149754,-0.003812504,0.003179136,5.487,0,0
-0.011790632600000002,-0.00449226,0.0005614585600000003,-0.0033435920000000003,0.003587022,5.488,0,0
-0.0062780266,-0.0034330619999999997,0.00029289456,-0.0030648000000000003,0.00321468,5.489,0,0
0.0005754934000000004,0.001253148,0.0017243885600000002,-0.00236423,0.0024802194000000002,5.49,0,0
0.005544813400000001,0.004955698,0.00301320456,-0.0013629170000000002,0.0017129228,5.491,0,0
0.0095170794,0.008917304000000001,0.0035654745600000003,-0.0007177990000000001,0.0006417748000000002,5.492,0,0
0.013323706000000001,0.012481872000000001,0.003830436,-0.00041054550000000007,-0.0007366091999999999,5.493,0,0
0.014443220000000003,0.012208626000000002,0.002267444,-0.0002554715,-0.0019442632,5.494,0,0
0.012854346000000001,0.0092356802,-0.0016836020000000002,-0.0002130675,-0.0027960666,5.495,0,0
0.01113976,0.006585450200000001,-0.005981094000000001,-0.00023958610000000003,-0.003412244,5.496,0,0
0.0077318080000000015,0.0019060102000000002,-0.010762358000000001,8.136990000000006e-05,-0.003246472,5.497,0,0
0.0018295480000000007,-0.004548829800000001,-0.013802826,0.0007003323999999999,-0.0026365604,5.498,0,0
-0.002982312,-0.008688715800000002,-0.011166258,0.0016990204,-0.0014713464000000002,5.499,0,0
-0.0068450180000000005,-0.010988150000000002,-0.005561618,0.0025365924,0.00023056759999999987,5.5,0,0
-0.011443672,-0.013283540000000002,-0.0004561119999999992,0.002777696,0.0017255976000000001,5.501,0,0
-0.01360506,-0.012661320000000002,0.004636578000000001,0.0025160676,0.0028037636,5.502,0,0
-0.011999326,-0.008453622000000001,0.007242239600000001,0.0016125856000000001,0.003386356,5.503,0,0
-0.010479978000000001,-0.004963494000000001,0.004766459600000001,0.0007744464000000002,0.0034199900000000004,5.504,0,0
-0.008098106,-0.001568188,0.0015829078000000002,0.0005341764,0.0026961378,5.505,0,0
-0.00277695,0.003460812,0.0006620318,0.0003964264,0.0018146583999999997,5.506,0,0
0.001236736,0.006298168000000001,0.0004373878,0.0007134988,0.0010675567,5.507,0,0
0.0028219200000000003,0.00523863,0.0006703046,0.0015320248,0.00020309869999999994,5.508,0,0
0.005114966,0.004186298000000001,0.0015044622,0.0017224048,-0.0005098713,5.509,0,0
0.007191876000000001,0.0030812000000000005,0.001693632,0.0014989498,-0.0012170871,5.51,0,0
0.006693384,-0.00044418799999999977,0.0007826608,0.0015324718,-0.0016828937,5.511,0,0
0.006040684000000001,-0.0030288240000000003,0.0009934708,0.0011778552,-0.0017906998,5.512,0,0
0.006519388000000001,-0.003219352,0.0030113324,0.0005935936,-0.0016738918,5.513,0,0
0.005530454,-0.004098212,0.0043948168,0.0003279138,-0.001222626,5.514,0,0
0.003388354,-0.005838686,0.0043955048,-0.0002852492000000001,-0.0005685204000000001,5.515,0,0
0.002068992,-0.0067026180000000005,0.003781826,-0.0009780092,-0.00019841580000000005,5.516,0,0
-0.0002586120000000001,-0.007195264,0.0020720040000000006,-0.0011749472,-1.9955400000000022e-05,5.517,0,0
-0.004606074,-0.007283778000000001,-0.0008169120000000002,-0.0013251386,0.00047794259999999996,5.518,0,0
-0.006983652000000001,-0.0058842214,-0.0029176560000000002,-0.0017027696,0.0005892648,5.519,0,0
-0.006804837600000001,-0.0030290313999999994,-0.003499236,-0.0017407816,0.0006582308,5.52,0,0
-0.006696477400000001,5.167060000000039e-05,-0.00318214,-0.001363522,0.0010399142000000001,5.521,0,0
-0.005309047400000001,0.0023113446000000005,-0.002629722,-0.001399519,0.0010410156000000002,5.522,0,0
-0.0012894594,0.004956520600000001,-0.00209427,-0.001548898,0.0005402816,5.523,0,0
0.0021824606000000004,0.007352768000000001,-0.001258216,-0.0010051914000000003,0.00013961780000000006,5.524,0,0
0.0036565322000000006,0.008015872000000002,-0.0002572140000000002,-0.000435686,0.0002522622,5.525,0,0
0.005615598000000001,0.008544246,0.00091322,-0.0003439424,7.142119999999999e-05,5.526,0,0
0.0071768360000000015,0.00887076,0.001739714,0.00017588919999999997,-0.00021089480000000002,5.527,0,0
0.006458868000000001,0.007396538,0.0019363046,0.0008666252000000001,-7.302840000000001e-05,5.528,0,0
0.005652202000000001,0.005386506,0.0015874004000000002,0.0012121406000000002,-0.00018702059999999997,5.529,0,0
0.004772420000000001,0.0034032696,0.0008275372000000001,0.0018063692000000002,-0.0008299306,5.53,0,0
0.0017755140000000002,0.00016975760000000019,0.00041210120000000007,0.00281143,-0.0009215488000000002,5.531,0,0
-0.00098445,-0.0023262184,0.0010073492000000001,0.003757918,-0.0005556836000000001,5.532,0,0
-0.0026307760000000005,-0.0034362464,0.0018082266000000002,0.0045292100000000005,-0.00048600600000000004,5.533,0,0
-0.005629812,-0.0053472544,0.0021191368000000005,0.005055868,5.360399999999993e-05,5.534,0,0
-0.008296198000000001,-0.006962066000000001,0.0020134898000000005,0.0044708184,0.000888854,5.535,0,0
-0.007689394000000001,-0.0063120200000000015,0.0013822498,0.0028795743999999995,0.0012270572,5.536,0,0
-0.0061442188,-0.005488558000000001,0.0007105338000000001,0.0011580984,0.0012288470000000001,5.537,0,0
-0.0048819646,-0.0057253420000000005,-0.0006830022,-0.0007114316,0.0013827698000000001,5.538,0,0
-0.0013390886000000002,-0.003877250000000001,-0.0029479422000000003,-0.0027378336,0.0011961056,5.539,0,0
0.0030422114,-0.0007249260000000003,-0.004397120000000001,-0.003979654000000001,0.00026528960000000014,5.54,0,0
0.004956731400000001,0.000980674,-0.005261348000000001,-0.004529524,-0.0005719104,5.541,0,0
0.006140064200000001,0.003204184,-0.006597260000000001,-0.004867536,-0.0011454854,5.542,0,0
0.008054214,0.006345304,-0.006357816000000001,-0.0043329300000000005,-0.0017898062000000002,5.543,0,0
0.007815972000000001,0.006956934,-0.0036311060000000003,-0.0029953920000000004,-0.002240606,5.544,0,0
0.006152028,0.005858374,-0.001257734,-0.0014521100000000002,-0.002190534,5.545,0,0
0.005584954000000001,0.005594696,0.00029674599999999975,-0.0001841746000000001,-0.002050444,5.546,0,0
0.004429200800000001,0.0037162659999999998,0.0016333176,0.0006938160000000001,-0.002047924,5.547,0,0
0.0013942368,0.00013722400000000024,0.0018891816,0.0010978944,-0.001944476,5.548,0,0
-0.0008604772000000002,-0.0022065080000000003,0.0014508095999999997,0.0009749180000000001,-0.0015590096,5.549,0,0
-0.0023902972,-0.004121736,0.0009702476,0.0007549044,-0.0009879544000000002,5.55,0,0
-0.0056716292,-0.00664204,0.0006402292,0.000952519,-0.0007045902,5.551,0,0
-0.007784540000000001,-0.00710824,0.0011146016,0.0011886584,-0.00044950999999999997,5.552,0,0
-0.006914258000000001,-0.0054698654,0.0020988316,0.0010063526,-0.00018812800000000003,5.553,0,0
-0.0060469914,-0.0043567066,0.0020382535999999996,0.0009917060000000002,-0.00029333220000000006,5.554,0,0
-0.0054249014,-0.0022576125999999998,0.0015040096000000001,0.0008596742,-0.0002948188,5.555,0,0
-0.0025453414,0.0012553893999999997,0.0016470200000000001,0.0002122742,4.5585000000000005e-05,5.556,0,0
-0.00014507340000000004,0.0020669111999999995,0.0019216920000000002,-0.000172034,0.00028501700000000004,5.557,0,0
-0.0002862434000000001,0.0009190246,0.00214941,5.316540000000001e-05,0.00042675824,5.558,0,0
0.0007883839999999998,0.0029118238,0.0029845060000000005,2.1638000000000283e-06,0.00042588324,5.559,0,0
0.0026712819999999996,0.0054076338000000005,0.0038202720000000004,-0.00013113899999999998,0.00014706143999999998,5.56,0,0
0.0024775782000000003,0.0051394678,0.0034741192,0.00018291319999999998,0.00025351744000000006,5.561,0,0
0.0023791782,0.006169636000000001,0.0023275252,-4.3312600000000064e-05,0.00071871124,5.562,0,0
0.0035537082,0.00797875,0.0006524092000000001,-0.0006689846000000001,0.001071,5.563,0,0
0.0023341502,0.0059743090000000006,-0.0008657188000000002,-0.0008467564000000001,0.0016652448,5.564,0,0
-7.657980000000018e-05,0.0021731050000000003,-0.0007821528,-0.0008768214000000001,0.0023128000000000003,5.565,0,0
-0.000455922,1.0010000000001485e-06,0.0004774059999999999,-0.0012316196,0.002318166,5.566,0,0
-0.001129364,-0.002207445,0.001119084,-0.0011253908000000003,0.00224729,5.567,0,0
-0.003189438,-0.004936853000000001,0.0012321020000000001,-0.0007277234200000001,0.002504544,5.568,0,0
-0.0036189900000000003,-0.005584150000000001,0.000728994,-0.0007160812200000001,0.002288932,5.569,0,0
-0.0025219360000000002,-0.0045729304,-0.0012507980000000002,-0.0007546496200000002,0.001926423,5.57,0,0
-0.0027707500000000006,-0.0043143004,-0.00335883,-0.0010664036200000002,0.0017434844,5.571,0,0
-0.0024674608000000006,-0.0031866820000000006,-0.005048726,-0.00153255642,0.0012094598000000002,5.572,0,0
-0.0004173228,7.745199999999977e-05,-0.006627232,-0.0018445398000000003,0.00039988479999999993,5.573,0,0
0.00039560580000000005,0.001504838,-0.007446794000000001,-0.0016283104000000001,-0.00022075520000000004,5.574,0,0
0.00025199940000000007,0.0010361624,-0.007372152000000001,-0.0010655548000000005,-0.0005199378000000001,5.575,0,0
0.0014368614000000001,0.0021072824,-0.007099126000000001,-0.00032279100000000006,-0.0008045316000000001,5.576,0,0
0.0018486642000000001,0.0022529638,-0.006409870000000001,0.000606185,-0.0009968950000000002,5.577,0,0
0.0005160502000000001,0.0002318537999999999,-0.0037563920000000003,0.0011649409999999998,-0.001092974,5.578,0,0
0.0007555576,-9.823020000000005e-05,0.0008099700000000001,0.0010911161599999998,-0.0012090260000000002,5.579,0,0
0.001765758,0.0001957866599999999,0.0048662819999999996,0.0008192901600000001,-0.0013484364,5.58,0,0
0.000805942,-0.00194967734,0.00680737,0.0009694803600000001,-0.0010775288000000002,5.581,0,0
-0.00014164400000000001,-0.0034095751400000005,0.007655764,0.00063378576,-0.0005121408,5.582,0,0
0.0003954788000000001,-0.0033613451400000003,0.0069758452000000006,-0.00030629224,-0.00016753480000000008,5.583,0,0
-0.0006621751999999999,-0.004879681140000001,0.0042074052,-0.0008543546000000001,0.00034512599999999996,5.584,0,0
-0.0028318912,-0.005962124000000001,0.0014239254,-0.0013666686,0.0007554764000000001,5.585,0,0
-0.0026546548,-0.0044453798000000004,-3.278419999999996e-05,-0.0022851126,0.0003910392000000001,5.586,0,0
-0.0020674838,-0.002736201800000001,-0.00013840880000000002,-0.0028791460000000004,-0.0002680588,5.587,0,0
-0.0023164426000000004,-0.0007637578,-6.58566e-05,-0.0024195560000000002,-0.0005778968,5.588,0,0
-0.0009081146,0.0029051662,0.00018344540000000002,-0.001563556,-0.0011118336,5.589,0,0
0.0017021234000000002,0.0058058462,0.0015865112,-0.0007380500000000003,-0.001794762,5.59,0,0
0.002178085,0.006956260000000001,0.0035944788,0.0004917760000000001,-0.0018468200000000003,5.591,0,0
0.0018241660000000001,0.00806393,0.0048186894,0.0020682319999999997,-0.0014952859600000003,5.592,0,0
0.002938782,0.008361572,0.00511446,0.003419174,-0.0013051357600000002,5.593,0,0
0.0024609264,0.006861904,0.003861764,0.0037468500000000004,-0.0009491005600000002,5.594,0,0
0.0005221784000000002,0.00571755,-0.00022640200000000011,0.003069278,-0.0003984619400000001,5.595,0,0
0.0006110444000000002,0.0057095240000000005,-0.005931286000000001,0.0020121440000000004,-0.00040264993999999997,5.596,0,0
0.0013842264000000003,0.00471042,-0.011947052000000001,0.00065167,-0.0009556479800000001,5.597,0,0
0.0006202282,0.0025721500000000005,-0.014917114,-0.0011540920000000002,-0.0015083101800000003,5.598,0,0
0.0012126418000000003,0.0005265080000000004,-0.01142712,-0.00240038,-0.0019173873800000002,5.599,0,0
0.0028296658000000006,-0.0018633419999999998,-0.00455132,-0.0018762720000000002,-0.002140052,5.6,0,0
0.0019968798000000003,-0.005761200000000001,0.001945979999999999,0.00013521999999999991,-0.001234624,5.601,0,0
0.0012125838000000002,-0.009641398,0.008353332,0.003743878,0.001043716,5.602,0,0
0.001732004,-0.01244154,0.012528309999999999,0.00854685,0.003983004,5.603,0,0
0.0006623120000000002,-0.01639771,0.011258272,0.013465162,0.006798054000000001,5.604,0,0
-0.00126177,-0.01983984,0.007177861,0.018252614,0.009287936,5.605,0,0
-0.001606994,-0.01895148,0.003619795,0.02195918,0.010746470000000001,5.606,0,0
-0.002502648,-0.014075758,0.0013422109999999996,0.02329564,0.010526654,5.607,0,0
-0.004809074,-0.007755898000000001,-0.00015345100000000011,0.02263374,0.009700816000000001,5.608,0,0
-0.005565726,-0.0006346379999999999,-0.002003657,0.02110608,0.008916636,5.609,0,0
-0.005413696,0.006059252,-0.003190244000000001,0.018571459999999998,0.008121286,5.61,0,0
-0.006109816,0.008695606000000002,-0.0032200820000000004,0.014783244000000001,0.007226322,5.611,0,0
-0.005598606,0.0070687400000000004,-0.0033809820000000003,0.010114869600000001,0.006436524000000001,5.612,0,0
-0.0026206800000000002,0.0067059400000000005,-0.0034977040000000004,0.0050198996,0.0051708660000000005,5.613,0,0
-0.00011413200000000008,0.01014366,-0.0029273404,-0.0009897204,0.002791122,5.614,0,0
0.0014115700000000002,0.012946850000000003,-0.0023571704,-0.008734520400000001,-0.0007677480000000004,5.615,0,0
0.0045367,0.015558636000000002,-0.0024130224,-0.0186726444,-0.005719984000000001,5.616,0,0
0.006962216,0.019047700000000004,-0.0022802744,-0.030868190000000004,-0.011863140000000001,5.617,0,0
0.006665538,0.01815862,-0.0012889024,-0.04304442000000001,-0.017640344000000002,5.618,0,0
0.007207364,0.013816370000000001,-7.773599999999991e-05,-0.05191292000000001,-0.021342140000000002,5.619,0,0
0.008130204,0.010338096000000001,0.000639548,-0.05537104,-0.02271404,5.62,0,0
0.0062204352,0.00609086,0.001373454,-0.05187304000000001,-0.021164880000000004,5.621,0,0
0.0040584452,0.0011087319999999996,0.0013794859999999999,-0.04176478,-0.016937102,5.622,0,0
0.0030959448,-0.002906608,-4.5510000000000233e-05,-0.028753268000000002,-0.012130071999999999,5.623,0,0
0.0005816607999999999,-0.007545258000000001,-0.0012430248000000002,-0.0165852648,-0.008173132000000001,5.624,0,0
-0.0020470432,-0.010949364000000001,-0.0025709748000000004,-0.007261722799999999,-0.004929048000000001,5.625,0,0
-0.0020301526,-0.010536938000000001,-0.0026798868,-0.0012457568000000003,-0.002427816,5.626,0,0
-0.0019947346,-0.009294650000000002,0.0007926851999999996,0.0028690852,-0.0008136260000000002,5.627,0,0
-0.0026930742000000002,-0.007259487400000002,0.0040488752,0.0062540732,0.000574632,5.628,0,0
-0.0017686402000000002,-0.0028480414,0.0043214559999999996,0.00899017,0.0023256680000000004,5.629,0,0
-0.0004171342000000003,-0.0003811464,0.004025022,0.011707828,0.0038955680000000003,5.63,0,0
-0.0005373200000000001,-0.0010193184,0.0033175659999999992,0.014629962,0.005123132,5.631,0,0
-0.0005644760000000001,-0.0013971304,0.0008590040000000002,0.016580760000000003,0.006510274000000001,5.632,0,0
0.00042161000000000005,-0.0017235470000000002,-0.0013273280000000002,0.017620840000000002,0.007504166000000001,5.633,0,0
-0.00019869399999999996,-0.003525251,-0.0016726203999999998,0.0187732,0.007933616000000001,5.634,0,0
-0.001784318,-0.004582448,-0.0004991338,0.01924624,0.008268500000000002,5.635,0,0
-0.0016561015999999999,-0.0032608940000000003,0.00043127059999999997,0.01844974,0.00807786,5.636,0,0
-0.0011518011999999999,-0.0020691980000000004,0.0004220945999999999,0.017265620000000002,0.007111452000000002,5.637,0,0
-0.0018848991999999998,-0.0019025560000000003,0.0010796846,0.015627688,0.006163040000000001,5.638,0,0
-0.0015762195999999998,-0.000755288,0.0021320189999999998,0.012970420000000002,0.005001742,5.639,0,0
-7.282759999999996e-05,0.000374752,0.0027916884000000006,0.010089596000000001,0.00354442,5.64,0,0
-0.0014687180000000002,-0.0027110400000000005,0.0028119068,0.007387664000000002,0.0024752759999999998,5.641,0,0
-0.0031851064,-0.006772544,0.0030189628,0.0046613452,0.0018319039999999999,5.642,0,0
-0.0020219024,-0.006643898,0.0033721308000000004,0.0024393832000000003,0.0012617014,5.643,0,0
-0.0018827240000000005,-0.006923637600000001,0.0031459968,0.0009766244,0.0005585933999999999,5.644,0,0
-0.0026904120000000005,-0.0085258156,0.0025838414000000005,0.0003697724,0.00022151900000000005,5.645,0,0
-0.00033517600000000007,-0.005330311000000001,0.0014546066000000002,0.00021130240000000005,-1.3695459999999951e-05,5.646,0,0
0.002575198,-0.0008962670000000002,-0.0003312813999999998,0.00040594420000000006,-0.00049212746,5.647,0,0
0.002348394,-0.00043158699999999993,-0.0025677934,0.0010731082000000002,-0.00061037998,5.648,0,0
0.0024231300000000003,0.0022981826,-0.0038851254,0.0013661462000000002,-0.00024409338,5.649,0,0
0.0029834500000000003,0.007952562600000001,-0.004109096,0.0011250754,-1.9829980000000004e-05,5.65,0,0
0.0007687220000000003,0.010276518,-0.004185014000000001,0.0011661134,-6.828252e-05,5.651,0,0
-0.001800762,0.011192404000000001,-0.004287822,0.0012578484000000001,1.4999279999999989e-05,5.652,0,0
-0.0021658948,0.012271740000000001,-0.004088978,0.0008440781800000001,-0.00020351560000000002,5.653,0,0
-0.0025758556000000004,0.0094173316,-0.003974486,0.00017357898000000007,-0.0007668622000000001,5.654,0,0
-0.0028569940000000003,0.0048168216,-0.0037060754000000002,-0.0011414842199999999,-0.0009531448,5.655,0,0
-0.00047274199999999974,0.0031980956,-0.0016870274,-0.0031880662200000002,-0.0009541178,5.656,0,0
0.0013775620000000001,0.0018865316,0.0009930166000000002,-0.00519374422,-0.0012751516000000002,5.657,0,0
0.0006520268,-9.527639999999996e-05,0.0029546766000000005,-0.007276824,-0.0017280116,5.658,0,0
0.0004945156,0.00022857640000000003,0.004321856600000001,-0.009320236,-0.0021578836000000004,5.659,0,0
0.000922532,0.0010358724,0.004465706800000001,-0.010532026,-0.00341327,5.66,0,0
-5.0118600000000025e-05,-0.00011895159999999997,0.0024047788,-0.011166780000000001,-0.00503496,5.661,0,0
-0.00043489799999999997,-0.0006039390000000001,-0.0014957072,-0.011256232000000001,-0.005592730000000001,5.662,0,0
0.0015327119999999999,0.00018438519999999998,-0.005982665200000001,-0.010577988,-0.006209986000000001,5.663,0,0
0.002829886,-0.0006872232,-0.0087079792,-0.009065078,-0.006556392,5.664,0,0
0.0025586332000000003,-0.0020584052,-0.006847102000000001,-0.005735664,-0.004419498000000001,5.665,0,0
0.0032735838000000003,-0.0021526612000000002,-0.0023962540000000004,0.0001333360000000004,-0.0003533600000000005,5.666,0,0
0.0036137212,-0.0028824578,0.0011925599999999992,0.007477828000000001,0.003958444,5.667,0,0
0.0011917711999999997,-0.00481666,0.0044091734,0.015798424000000002,0.008692522000000001,5.668,0,0
-0.0008554768,-0.0050441159999999995,0.0060540114,0.024283834,0.01302126,5.669,0,0
-0.0016450179999999998,-0.0039681688,0.0032755014000000002,0.030507380000000004,0.01476846,5.67,0,0
-0.004152518,-0.004849090800000001,-0.0013704806,0.0338176,0.014920919999999999,5.671,0,0
-0.006314841999999999,-0.0050880848,-0.0036078845999999998,0.03396542,0.01434116,5.672,0,0
-0.006050556,-0.0031797238,-0.0038332688,0.03128984,0.01295622,5.673,0,0
-0.00648657,-0.0026795538,-0.0025637888000000003,0.027437180000000005,0.01177968,5.674,0,0
-0.007962306,-0.0027245408,0.0002635211999999999,0.022183682000000003,0.0112082,5.675,0,0
-0.006720863999999999,0.0004268652000000001,0.0025788972,0.015196088200000001,0.01015165,5.676,0,0
-0.0045702239999999995,0.0034915852000000002,0.00371472558,0.0073577082,0.0076522762,5.677,0,0
-0.0036429746,0.0042681322,0.00434577038,-0.0017160718000000003,0.0035055762,5.678,0,0
-0.00022709260000000012,0.0065846462,0.0038474183800000002,-0.0125625718,-0.0026479237999999998,5.679,0,0
0.0051700074,0.008882742,0.00256310638,-0.0239550138,-0.0099715238,5.68,0,0
0.0080081734,0.007771644000000001,0.0020708003800000005,-0.03525848000000001,-0.017370153800000003,5.681,0,0
0.009561907400000002,0.005281738000000001,0.0012895980000000003,-0.04608088,-0.023420640000000003,5.682,0,0
0.011096552,0.0028453980000000007,-0.0005908399999999999,-0.053052180000000004,-0.025840920000000003,5.683,0,0
0.009702364000000002,-0.002485386,-0.002311438,-0.05357098,-0.024337040000000004,5.684,0,0
0.006394719200000001,-0.008451026,-0.002879927,-0.047785140000000004,-0.020490574,5.685,0,0
0.004084253600000001,-0.010851256,-0.0024237449999999997,-0.035819812000000006,-0.0145411724,5.686,0,0
0.0021553212,-0.010363806400000002,-0.0013678769999999995,-0.018802412,-0.007424180400000003,5.687,0,0
-0.00017690679999999995,-0.007790898400000001,-0.0002611849999999998,-0.001176532000000001,-0.0010287864000000002,5.688,0,0
-0.0013086788,-0.0017378983999999991,0.0001161990000000001,0.013634928,0.0044376336,5.689,0,0
-0.0017701180000000002,0.006413461600000001,0.0002667260000000002,0.025241308,0.0085601076,5.69,0,0
-0.0036286024,0.011467971600000001,0.0007098580000000001,0.03226364,0.010878005999999999,5.691,0,0
-0.005412734000000001,0.013842740000000001,0.0015126,0.03444094,0.012132234000000002,5.692,0,0
-0.004681287200000001,0.015247080000000001,0.002843308,0.03406526,0.0123518,5.693,0,0
-0.004158521800000001,0.0128086408,0.004701348000000001,0.03227442,0.011251166,5.694,0,0
-0.004443935800000001,0.0015248408000000007,0.005402504,0.028491540000000003,0.009955052,5.695,0,0
-0.0022710738000000005,-0.0089099392,0.004629970000000001,0.023761940000000002,0.009119944,5.696,0,0
-0.00030901579999999994,-0.008236319199999998,0.003291354,0.018581571999999998,0.00768832,5.697,0,0
-0.0007895086,-0.010035221200000001,0.0006255880000000003,0.011410566,0.005018794000000001,5.698,0,0
-0.000437478,-0.015984162000000003,-0.00308233,0.0018364460000000003,0.0014718860000000004,5.699,0,0
0.0010329560000000002,-0.010664802000000001,-0.0062635320000000005,-0.008678154,-0.0031977999999999998,5.7,0,0
0.0004674960000000001,-0.0007959020000000002,-0.007784598,-0.019612934000000002,-0.008584452,5.701,0,0
4.416000000000061e-06,0.0007534179999999996,-0.008378962,-0.030406306,-0.013132088,5.702,0,0
0.0010829440000000002,0.00461578,-0.007822164000000001,-0.03802168,-0.015672842,5.703,0,0
0.001118206,0.013374180000000001,-0.006098321999999999,-0.0407911,-0.015948900000000002,5.704,0,0
0.0015630280000000002,0.015781604,-0.005414492,-0.040194200000000006,-0.014197592,5.705,0,0
0.0036583040000000002,0.010082404,-0.005637124,-0.0372715,-0.011671176,5.706,0,0
0.005158948000000001,-0.0011332760000000008,-0.003874192,-0.0311584,-0.009300206000000002,5.707,0,0
0.005845652000000001,-0.013774156000000001,0.0002717799999999997,-0.02354837,-0.006531358,5.708,0,0
0.006772118000000001,-0.024219916,0.004306638,-0.01643905,-0.004064236000000001,5.709,0,0
0.006801174,-0.03196422,0.007643204000000001,-0.009237879999999999,-0.0024638,5.71,0,0
0.005638687999999999,-0.0372144,0.010533594000000002,-0.0021380279999999993,-0.0009129000000000001,5.711,0,0
0.00488768,-0.0340502,0.011809656000000002,0.003136662,0.000579724,5.712,0,0
0.004693678000000001,-0.02069204,0.010147604000000001,0.0062427360000000005,0.00114972,5.713,0,0
0.00370097,-0.005667780000000002,0.005403702,0.008422616,0.001387652,5.714,0,0
0.0025689972000000004,0.010883060000000002,-0.001895234,0.009743646000000002,0.002149602,5.715,0,0
0.0037773052,0.0342811,-0.007645154,0.009646740000000001,0.002392352,5.716,0,0
0.0057994572,0.05533608,-0.008786278,0.00904958,0.002265674,5.717,0,0
0.0058188652,0.06378816000000001,-0.008518622,0.009248684,0.002376912,5.718,0,0
0.0060175232,0.06400392,-0.004880400000000001,0.008797252000000002,0.00266874,5.719,0,0
0.006323949999999999,0.057823620000000006,0.004913980000000001,0.007470326,0.0033188720000000005,5.72,0,0
0.0038568720000000003,0.04447950000000001,0.011465220000000002,0.00783734,0.004834070000000001,5.721,0,0
-0.00029842599999999964,0.026013829999999998,0.009558132,0.01018539,0.007598754000000001,5.722,0,0
-0.00530836,0.0016204900000000005,0.0063708520000000015,0.013126142,0.010753952,5.723,0,0
-0.012646258,-0.02396799,0.0027731920000000003,0.017594994000000003,0.013741670000000001,5.724,0,0
-0.020933826000000003,-0.04261965,-0.0026266400000000004,0.02353024,0.016204204,5.725,0,0
-0.027733878000000003,-0.05461361,-0.00528596,0.028691280000000003,0.018006380000000002,5.726,0,0
-0.0329624,-0.060492620000000004,-0.004094628,0.032924480000000006,0.01901566,5.727,0,0
-0.03473078,-0.05484061999999999,-0.0015715679999999997,0.036044320000000005,0.019407340000000002,5.728,0,0
-0.02994972,-0.03996542,0.001012452,0.03652018,0.01890388,5.729,0,0
-0.02058894,-0.028885060000000004,0.003405796,0.0344041,0.01718562,5.73,0,0
-0.01110602,-0.027261940000000002,0.004682426,0.0307243,0.014858028,5.731,0,0
-0.0021344199999999993,-0.02980868,0.004831262000000001,0.024823264,0.011322126,5.732,0,0
0.005272096,-0.031830000000000004,0.003947511999999999,0.01662612,0.0060373399999999995,5.733,0,0
0.0074527108000000016,-0.030762860000000003,0.0018736339999999999,0.00637082,-0.0011878400000000008,5.734,0,0
0.005733346800000001,-0.021633060000000003,-0.0006222740000000001,-0.00641592,-0.009362200000000001,5.735,0,0
0.005595662800000001,-0.0033113000000000014,-0.003060916,-0.020494120000000005,-0.017236188,5.736,0,0
0.006922202800000001,0.019242500000000003,-0.0061056520000000005,-0.035404064,-0.024689586000000003,5.737,0,0
0.008328626799999999,0.04348714,-0.010178906000000001,-0.0506293,-0.030754200000000002,5.738,0,0
0.012083972000000002,0.06838076,-0.011749968000000001,-0.06302286,-0.033987800000000006,5.739,0,0
0.016887196,0.09176284000000001,-0.007809912,-0.07080524,-0.03465376,5.74,0,0
0.019031279999999998,0.11182722,-0.00015449999999999926,-0.07320876000000001,-0.03371094,5.741,0,0
0.01959018,0.13013202000000001,0.00712692,-0.0681209,-0.03037564,5.742,0,0
0.02058148,0.1206615,0.011198988000000002,-0.05608548000000001,-0.024719464000000003,5.743,0,0
0.019485020000000002,0.06454390000000002,0.010514148000000003,-0.039073024000000005,-0.017152144,5.744,0,0
0.015891974,0.0012952999999999923,0.0024624679999999998,-0.017350244,-0.0077398640000000025,5.745,0,0
0.013013206000000001,-0.048565540000000004,-0.008017512000000001,0.0075155560000000005,0.0018877560000000004,5.746,0,0
0.010863172,-0.10034674000000002,-0.013629646000000002,0.033001816,0.010682536,5.747,0,0
0.0065693950000000004,-0.13629404000000003,-0.01309266,0.05654967600000001,0.01856796,5.748,0,0
0.0024628490000000005,-0.13164304,-0.00759778,0.07638974,0.0255557,5.749,0,0
0.00028313100000000005,-0.11138044,-0.0003162400000000006,0.09040728,0.03108246,5.75,0,0
-0.004264301000000001,-0.09366172,0.005260218,0.09589990000000001,0.0350009,5.751,0,0
-0.009938407,-0.06361232,0.006982047999999999,0.09366585999999999,0.03775566,5.752,0,0
-0.012755810000000001,-0.016753339999999995,0.006190055599999999,0.08501342,0.03851142,5.753,0,0
-0.015418664000000002,0.03129798,0.003980005799999999,0.07091934000000001,0.036292000000000005,5.754,0,0
-0.01853528,0.06478106,0.0013445398,0.05300150000000001,0.03119538,5.755,0,0
-0.016838994,0.08140736,-0.0007274002,0.03130582,0.023590218000000003,5.756,0,0
-0.012030752,0.07389248,-0.0007495102000000002,0.005733180000000001,0.013084517999999998,5.757,0,0
-0.007628258000000002,0.049623160000000006,0.0012511642,-0.021328800000000002,0.0014317779999999999,5.758,0,0
-0.001185958,0.02585654,0.002170504,-0.047659980000000005,-0.009881602,5.759,0,0
0.006005042,0.005800455999999999,0.0026994408000000003,-0.07208074,-0.022236122000000004,5.76,0,0
0.009414014000000002,-0.006796336,0.003548897,-0.09074596000000001,-0.033646880000000004,5.761,0,0
0.010052874,-0.0091922292,0.0029301424,-0.10098806,-0.04165746,5.762,0,0
0.01079866,-0.006652089199999999,0.0006790344,-0.10186928,-0.046860200000000005,5.763,0,0
0.009637464,-0.0027156832,-0.0010207876,-0.09241758,-0.04776512,5.764,0,0
0.006042058,0.0012651408000000002,-0.0015836084,-0.0745104,-0.042129599999999996,5.765,0,0
0.0029104540000000003,0.0013846927999999997,-0.0024552026000000003,-0.051886936,-0.032181886,5.766,0,0
0.0008513239999999997,0.0013674213999999997,-0.003969632000000001,-0.027687836,-0.020217824,5.767,0,0
-0.002363636,-0.0009387586000000007,-0.005114352000000001,-0.005171535999999999,-0.007298024000000002,5.768,0,0
-0.005309974,-0.011527964600000001,-0.006127776000000001,0.011692104000000002,0.002950676000000001,5.769,0,0
-0.00581218,-0.025104064600000003,-0.0074365540000000015,0.022475544,0.008994076,5.77,0,0
-0.0069357740000000005,-0.038014244600000004,-0.008004914,0.02863466,0.012533882000000001,5.771,0,0
-0.008402468000000001,-0.04802938,-0.007939652,0.029747600000000003,0.01429486,5.772,0,0
-0.007501289000000001,-0.047536060000000005,-0.007111018,0.026338580000000004,0.0139203,5.773,0,0
-0.005965841800000001,-0.03433644,-0.004591092,0.020571622,0.01407368,5.774,0,0
-0.004590954800000001,-0.014480980000000004,0.000949316,0.017259442,0.016946580000000003,5.775,0,0
-0.0007280708000000002,0.009595219999999998,0.008659916,0.020415122,0.020557560000000002,5.776,0,0
0.0032537512,0.0327072,0.016040872,0.027593262,0.023210920000000003,5.777,0,0
0.0046095922,0.0478205,0.021669090000000002,0.035575662,0.024745740000000002,5.778,0,0
0.006661649,0.056031000000000004,0.022989632,0.0429289,0.02394724,5.779,0,0
0.009187754000000001,0.0571156,0.017835224,0.04469066000000001,0.019473780000000003,5.78,0,0
0.009428216,0.051896120000000004,0.007342044,0.03721910600000001,0.012843334000000001,5.781,0,0
0.008843038000000001,0.04914782,-0.0040264160000000005,0.025068084,0.006030700000000001,5.782,0,0
0.009209484,0.05445342,-0.011524636000000001,0.015482588000000002,0.0010492859999999995,5.783,0,0
0.0073729166,0.06015848,-0.012134206000000002,0.010513808000000001,-0.0012880985999999999,5.784,0,0
0.0022703166,0.048865373999999996,-0.007417238000000001,0.008580328,-0.0018039865999999998,5.785,0,0
-0.0024607094000000007,0.019209893999999998,-0.0012295740000000002,0.007284511999999999,-0.0022296886,5.786,0,0
-0.0067367114,-0.011903006,0.0037425820000000004,0.004363273999999999,-0.0037486546000000003,5.787,0,0
-0.0116138974,-0.040975686,0.003764662,-0.002927930000000001,-0.0067621406,5.788,0,0
-0.014563200000000002,-0.067933426,-0.0005673399999999999,-0.01664131,-0.012462256000000001,5.789,0,0
-0.013578496000000002,-0.07636071999999999,-0.005151864,-0.03211033,-0.018674248,5.79,0,0
-0.011656192000000001,-0.06364148,-0.007834678,-0.045480940000000004,-0.02299198,5.791,0,0
-0.009120866,-0.04747246000000001,-0.007809204,-0.05683338,-0.02554822,5.792,0,0
-0.003970308000000001,-0.03258554600000001,-0.006074394,-0.06269136,-0.02548064,5.793,0,0
0.0004456439999999996,-0.019458646,-0.004680854,-0.05921624,-0.021534076,5.794,0,0
0.0027449460000000003,-0.009874791199999998,-0.004771298,-0.048827470000000005,-0.0157767826,5.795,0,0
0.004715632,-0.0008668284000000001,-0.0046942500000000005,-0.033577710000000004,-0.0101928406,5.796,0,0
0.005599513999999999,0.0035951856,-0.00333893,-0.013639749999999999,-0.0044110306,5.797,0,0
0.004495782,0.0012028376000000004,-0.000989154,0.003911609999999999,1.4381400000000187e-05,5.798,0,0
0.004204014,-0.0011897636,0.002652846,0.01459933,0.0020681974,5.799,0,0
0.005441024,0.0009535616000000001,0.006203673999999999,0.020010200000000002,0.002848074,5.8,0,0
0.005549136,0.003919438799999999,0.00821558,0.022671820000000002,0.004056886,5.801,0,0
0.004998269600000001,0.0073751648,0.00885613,0.026047259999999996,0.007172716000000001,5.802,0,0
0.0044069128,0.012024998799999999,0.008430584,0.03289062,0.011912044,5.803,0,0
0.0019656848,0.013524710000000002,0.0065066264,0.041909720000000004,0.016759024,5.804,0,0
-0.0031841912000000003,0.009355714,0.0044107568,0.049406320000000004,0.020567334000000003,5.805,0,0
-0.0093658532,0.0013096539999999986,0.0028237642000000004,0.053343840000000003,0.02192922,5.806,0,0
-0.0164871148,-0.008895026000000002,-0.0007252597999999999,0.050077159999999996,0.019786406000000003,5.807,0,0
-0.024638664000000005,-0.019478386,-0.0041285398,0.038139256,0.015127254000000001,5.808,0,0
-0.03005218,-0.025064016,-0.0040501042,0.021426436,0.009122942,5.809,0,0
-0.030242620000000005,-0.024535364000000004,-0.0033597146,0.005393556000000001,0.003593848,5.81,0,0
-0.024799987199999998,-0.020297790000000003,-0.004105724000000001,-0.006692184,0.00032721000000000014,5.811,0,0
-0.014244207200000004,-0.011737372,-0.003980258,-0.013565406000000002,-0.0005543060000000002,5.812,0,0
-0.0011318272000000011,-0.0011954119999999999,-0.0032339960000000003,-0.015118896000000001,0.0008262459999999997,5.813,0,0
0.011817912800000002,0.006571808,-0.004268358,-0.013623636000000001,0.003446018,5.814,0,0
0.0229491328,0.011230672,-0.005056779,-0.011668896000000003,0.006097396000000001,5.815,0,0
0.03201922,0.015476798,-0.0033140070000000008,-0.012138216,0.007644932,5.816,0,0
0.0379989,0.02254242,-0.0002168929999999999,-0.015726334,0.0067072728000000005,5.817,0,0
0.03877920000000001,0.033114080000000004,0.003237111000000001,-0.02037452,0.0029707708000000013,5.818,0,0
0.03543848,0.04559142,0.006066415,-0.02434858,-0.0017168692,5.819,0,0
0.029759320000000002,0.058925500000000006,0.0074680960000000005,-0.026206660000000003,-0.005911893200000001,5.82,0,0
0.020166642000000002,0.0659482,0.00711128,-0.02595366,-0.0085526172,5.821,0,0
0.008702822,0.06231664,0.005015812,-0.022293112,-0.007718338,5.822,0,0
0.0010472900000000009,0.05072398,0.0011597680000000005,-0.014254466,-0.003977316000000002,5.823,0,0
-0.0034713060000000004,0.03061924,-0.0037978120000000002,-0.005601326000000001,0.00026822599999999945,5.824,0,0
-0.007121550000000001,-0.0006975999999999979,-0.006727798000000001,-2.3659999999999675e-05,0.0025978819999999997,5.825,0,0
-0.008133334,-0.04330702,-0.007079957600000001,0.0013291200000000005,0.0012149879999999997,5.826,0,0
-0.0067951980000000006,-0.07807098,-0.0040753656,-0.0018934080000000005,-0.004464322,5.827,0,0
-0.005275240000000001,-0.08461438,0.0019290723999999997,-0.008503374000000001,-0.012118922,5.828,0,0
-0.0028819740000000003,-0.06912622,0.0051959304,-0.015071794,-0.018945244,5.829,0,0
0.0009542299999999999,-0.041096780000000006,0.0034503163999999994,-0.0195583,-0.02436686,5.83,0,0
0.003079452,-0.0011869000000000055,-0.001308862,-0.02110594,-0.02743902,5.831,0,0
0.00325673,0.029092324,-0.009115462000000001,-0.020869860000000004,-0.027707280000000004,5.832,0,0
0.004226784,0.025601144,-0.016568102,-0.02111414,-0.026097420000000003,5.833,0,0
0.0039033939999999997,0.0002497039999999999,-0.014125059999999998,-0.019305540000000003,-0.022317514000000004,5.834,0,0
0.0011400820000000002,-0.024829496000000003,-0.0029666399999999996,-0.014084448000000001,-0.016241332000000004,5.835,0,0
0.001028812,-0.036804576000000006,0.00757186,-0.006571228000000001,-0.009602482,5.836,0,0
0.0026232580000000003,-0.034456879999999995,0.01519554,0.0049220719999999996,-0.002635666000000001,5.837,0,0
0.0008643340000000002,-0.01959174,0.019398096000000004,0.020737892,0.004865754,5.838,0,0
-0.003292546,0.00500626,0.016399712,0.036883992000000004,0.011811668,5.839,0,0
-0.010208974000000001,0.022131200000000004,0.006583412,0.051146880000000006,0.019259646,5.84,0,0
-0.022045564000000004,0.0218729,-0.0032582680000000004,0.06342030000000001,0.027853216000000004,5.841,0,0
-0.036384024,0.014589,-0.008752008,0.07084662000000001,0.03512124,5.842,0,0
-0.04823334,0.0052054,-0.012395424,0.07216786,0.039312440000000004,5.843,0,0
-0.05624683999999999,-0.0078677,-0.01481424,0.06749028,0.03955092,5.844,0,0
-0.05718698,-0.013839098000000001,-0.012509481,0.05579062,0.0350822,5.845,0,0
-0.047800292,-0.009579162,-0.008038247,0.03783888400000001,0.026143864,5.846,0,0
-0.033107802000000006,-0.005477336,-0.005332115,0.017638324000000004,0.015816906,5.847,0,0
-0.017703402,0.0007968039999999999,-0.0028850769999999998,-0.0034267959999999984,0.005865126,5.848,0,0
-0.0007880020000000012,0.013277284000000002,-0.000474983,-0.027133496,-0.004945934,5.849,0,0
0.015697218000000002,0.024388142,-0.0005519199999999999,-0.048704436000000004,-0.014737394000000001,5.85,0,0
0.02694999,0.034477326,-0.0011984436,-0.06385012000000001,-0.020961238,5.851,0,0
0.035061800000000004,0.04617802,-0.0008519896,-0.0745268,-0.02489492,5.852,0,0
0.042061,0.05785412,0.0009252384,-0.07857072000000001,-0.026768580000000004,5.853,0,0
0.04547580000000001,0.057597499999999996,0.005714724399999999,-0.07041680000000002,-0.02376656,5.854,0,0
0.04398188000000001,0.032484439999999996,0.013061502400000001,-0.052390566,-0.016975366000000002,5.855,0,0
0.03950652,-0.0012873799999999977,0.021429392,-0.031246646,-0.009417790000000002,5.856,0,0
0.03428308,-0.03342772,0.027582286,-0.009880545999999999,-0.002576363999999999,5.857,0,0
0.027163020000000003,-0.0662673,0.029114199999999996,0.009218854000000002,0.0031742560000000003,5.858,0,0
0.020139646,-0.075930736,0.025180446,0.024374574,0.008541196000000001,5.859,0,0
0.015720386000000003,-0.050176656,0.016212307999999998,0.03555026,0.013960782,5.86,0,0
0.010130606,-0.019026356,0.003085008000000002,0.04476982,0.019952146,5.861,0,0
0.0024339460000000006,0.006048964,-0.010439852,0.053580319999999994,0.026511559999999997,5.862,0,0
-0.002664314,0.028531844,-0.021233211999999998,0.05973928,0.03182178,5.863,0,0
-0.006761680000000001,0.029003928000000002,-0.026243898,0.06020002,0.03340682,5.864,0,0
-0.011941400000000001,0.012423668000000002,-0.023851118,0.05243672,0.029380314,5.865,0,0
-0.013241918,0.0015580280000000008,-0.018285676,0.03632572,0.018379914,5.866,0,0
-0.010817074000000003,-0.003898134,-0.011075298,0.013755559999999998,0.002410993999999998,5.867,0,0
-0.009745311999999999,-0.009863892,-0.0035121160000000005,-0.012996420000000002,-0.013979866000000002,5.868,0,0
-0.0085409,-0.01179595,0.00014246799999999987,-0.039870020000000006,-0.027201506,5.869,0,0
-0.005316596,-0.009485009999999999,-0.0015409140000000002,-0.060693580000000004,-0.035768640000000004,5.87,0,0
-0.004045638,-0.011259290000000002,-0.003233138,-0.07396692,-0.03913784000000001,5.871,0,0
-0.004223618,-0.016079868,-0.0034152940000000006,-0.08010536,-0.038244059999999996,5.872,0,0
-0.0028742880000000005,-0.016342624000000004,-0.002824886,-0.07615019999999999,-0.034933120000000005,5.873,0,0
-0.002729138,-0.012140334000000001,-0.000986806,-0.06273588000000001,-0.03131420000000001,5.874,0,0
-0.004388494,-0.0043803140000000015,0.0006212340000000001,-0.04208244,-0.028822940000000002,5.875,0,0
-0.004180958,0.009896346,0.004488136,-0.01508912,-0.025678740000000002,5.876,0,0
-0.004632898000000001,0.024844426000000003,0.009636794,0.01412308,-0.020519058000000003,5.877,0,0
-0.00828355,0.031235180000000005,0.011737924,0.03921308,-0.013622572000000001,5.878,0,0
-0.010744172,0.032888200000000006,0.0107265954,0.057096600000000004,-0.005509472,5.879,0,0
-0.011991000000000002,0.030963500000000005,0.0087906594,0.0656487,0.004112068000000001,5.88,0,0
-0.014555836,0.0197475,0.0034618594000000004,0.06355384,0.013998788000000002,5.881,0,0
-0.014593908000000001,0.006894960000000001,-0.0059470606,0.0536577,0.022294686,5.882,0,0
-0.009741376000000001,-0.00099628,-0.013463840600000002,0.040551118000000004,0.02862046,5.883,0,0
-0.004623218,-0.01082244,-0.014362386000000001,0.027026218,0.03207592,5.884,0,0
-0.0005187540000000002,-0.023747360000000002,-0.01008367,0.01277174,0.032420120000000004,5.885,0,0
0.0054780060000000005,-0.03077266,-0.005789116,-0.0006577400000000004,0.02954874,5.886,0,0
0.011524854000000001,-0.033209680000000005,-0.0009033560000000007,-0.01214044,0.023543024000000003,5.887,0,0
0.014905042,-0.03866416,0.005290618,-0.024621018,0.014790106,5.888,0,0
0.018238604000000002,-0.04181166,0.008625408,-0.038191098,0.004716886000000002,5.889,0,0
0.021947440000000002,-0.03654872000000001,0.009053248,-0.049175239999999995,-0.004592314,5.89,0,0
0.020887472,-0.024588320000000004,0.011320634,-0.056849580000000004,-0.011983914,5.891,0,0
0.015410872000000003,-0.007091359999999998,0.015073934,-0.061037140000000004,-0.016631118,5.892,0,0
0.009535474000000002,0.014564740000000001,0.016518440000000002,-0.058288480000000004,-0.01818998,5.893,0,0
0.0025692339999999997,0.03529164,0.015245622,-0.048244060000000005,-0.017048980000000002,5.894,0,0
-0.004761866000000001,0.05151738,0.010491224000000002,-0.034261482,-0.014469528,5.895,0,0
-0.007515310000000002,0.05838286000000001,0.0019963240000000007,-0.018095261999999997,-0.011379576,5.896,0,0
-0.005815342,0.05175116,-0.010327636,-0.0007680019999999994,-0.008095328,5.897,0,0
-0.003833756,0.03890139,-0.023692116,0.015393538000000002,-0.0046985144,5.898,0,0
-0.0013998960000000003,0.029095310000000003,-0.029618298,0.029462798000000002,-0.0010476424,5.899,0,0
0.00107459,0.02432167,-0.026271060000000002,0.0425905,0.0028249056000000006,5.9,0,0
0.001544584,0.022282589999999998,-0.01806538,0.054262000000000005,0.007520753600000001,5.901,0,0
0.0008258510000000001,0.02146481,-0.005703280000000001,0.06290082000000001,0.012455545600000001,5.902,0,0
-0.0007801669999999999,0.01511562,0.007719900000000001,0.06776348,0.016652412000000002,5.903,0,0
-0.0049222070000000005,-0.0030996600000000006,0.014025082000000001,0.06705568,0.01994782,5.904,0,0
-0.010039633000000001,-0.02525758,0.012709792000000001,0.059241100000000005,0.020997440000000003,5.905,0,0
-0.013757695,-0.040134060000000006,0.00855508,0.046299780000000006,0.019846580000000003,5.906,0,0
-0.017757670000000003,-0.04579386800000001,0.003275092000000001,0.030879388,0.017261225999999998,5.907,0,0
-0.02113436,-0.04191616000000001,-0.0011274540000000004,0.013892568000000001,0.012616654000000001,5.908,0,0
-0.02083704,-0.026901432,-0.004318446,-0.0035745119999999993,0.006032306,5.909,0,0
-0.01713324,-0.010324932000000002,-0.005356364000000001,-0.020854552000000002,-0.0015170939999999996,5.91,0,0
-0.012856944,-0.0027370702000000004,-0.003918034000000001,-0.036886632,-0.009532354,5.911,0,0
-0.008654092,-0.0044014222,-0.0014948760000000005,-0.049424960000000004,-0.016666120000000003,5.912,0,0
-0.00294381,-0.0118959302,0.000641958,-0.05660706000000001,-0.021055588000000004,5.913,0,0
0.002436662,-0.021351518200000003,0.0029461360000000002,-0.05644242000000001,-0.02214694,5.914,0,0
0.0052172600000000005,-0.0274567182,0.005832944,-0.047848680000000005,-0.019448674000000003,5.915,0,0
0.007324284,-0.02436058,0.0069399660000000005,-0.032055780000000006,-0.013650882000000001,5.916,0,0
0.009035552,-0.012025000000000003,0.006864914000000001,-0.012232920000000001,-0.006942238,5.917,0,0
0.007609342000000002,0.006320900000000001,0.006489692,0.008174440000000002,4.352199999999983e-05,5.918,0,0
0.006420280000000001,0.026017900000000004,0.005769938600000001,0.026136180000000002,0.006806441999999999,5.919,0,0
0.008218962000000002,0.039228400000000004,0.0022216866,0.03878746,0.011766856,5.92,0,0
0.009614982000000001,0.04295,-0.0030281934000000003,0.04470942000000001,0.015604364000000003,5.921,0,0
0.010830802,0.02994256,-0.0074009914,0.044030700000000006,0.01925438,5.922,0,0
0.013729210000000002,-0.0009926599999999994,-0.0109066974,0.038591980000000005,0.021083320000000003,5.923,0,0
0.014620068,-0.028282940000000003,-0.009620494,0.03010883,0.019808900000000004,5.924,0,0
0.012507602000000003,-0.03829738,-0.002984981999999999,0.018868471999999997,0.0159591642,5.925,0,0
0.010952162000000001,-0.03939724,0.005455378000000001,0.004599731999999999,0.0086968242,5.926,0,0
0.00928244,-0.033826732000000005,0.012612298000000001,-0.010950008,-0.0015349357999999997,5.927,0,0
0.007135958,-0.013679282000000001,0.016580008,-0.024960648000000002,-0.0107765358,5.928,0,0
0.0048211320000000005,0.010698458000000001,0.01192019,-0.036904518000000004,-0.0177928158,5.929,0,0
0.0004849779999999996,0.022854518000000004,8.045000000000014e-05,-0.04377834,-0.0214555,5.93,0,0
-0.006130202,0.025567898,-0.008827930000000001,-0.041381299999999996,-0.019215313999999997,5.931,0,0
-0.01233408,0.032219090000000006,-0.012162012,-0.031401748,-0.013505595199999998,5.932,0,0
-0.016253778,0.04454828,-0.01223074,-0.018770787999999997,-0.0088775992,5.933,0,0
-0.0180096,0.052906499999999995,-0.008190106,-0.005775768000000001,-0.0051162352,5.934,0,0
-0.01736096,0.042719995000000004,-1.7346000000000115e-05,0.004633292,-0.0025057972,5.935,0,0
-0.013324170000000001,0.011853614999999998,0.005684934,0.009701278,-0.0025797352,5.936,0,0
-0.007032798,-0.017737245000000002,0.0067635360000000005,0.010512658,-0.0028243618000000003,5.937,0,0
-0.001954714,-0.040627825000000006,0.006722532,0.0083988442,-0.0017858598000000002,5.938,0,0
0.0032929460000000006,-0.060786725,0.0062618,0.0042017462,-0.0005145757999999998,5.939,0,0
0.009544426000000002,-0.06062421500000001,0.004611514000000001,-0.0008744738000000002,-0.00032235580000000003,5.94,0,0
0.011343634000000002,-0.038012547,0.002107268,-0.0059176398,-0.0014989538000000002,5.941,0,0
0.008645918000000002,-0.015744015,0.0004947860000000001,-0.0111958918,-0.0031385220000000004,5.942,0,0
0.005670922000000001,0.0004075450000000005,-0.0007327600000000002,-0.015641498,-0.005114574,5.943,0,0
0.0009423420000000005,0.011829105,-0.0037087620000000004,-0.01850806,-0.007420366000000001,5.944,0,0
-0.0046070980000000004,0.016635860000000002,-0.007071876000000001,-0.01904562,-0.007873946,5.945,0,0
-0.005685214,0.019947752000000003,-0.008816210000000001,-0.015410209000000001,-0.005571202000000001,5.946,0,0
-0.0028279820000000006,0.020680216000000005,-0.009716106000000002,-0.008266969,-0.0020853020000000002,5.947,0,0
-8.571200000000016e-05,0.015386724000000001,-0.009350664000000003,0.0013178710000000004,0.0026453720000000004,5.948,0,0
0.0036467,0.009510568,-0.006804307200000001,0.012860131,0.008644315999999999,5.949,0,0
0.00850718,0.008238368,-0.003280687200000001,0.023932051,0.014148478000000003,5.95,0,0
0.011303898,0.007879928000000001,-0.00029324120000000003,0.03182456,0.018255324000000003,5.951,0,0
0.01280971,0.00816095,0.0018417568000000002,0.03622136,0.0205515,5.952,0,0
0.014832872,0.010344866,0.0035922847999999997,0.03670116,0.0203294,5.953,0,0
0.01564756,0.009764082,0.004687822,0.032715100000000004,0.017774232,5.954,0,0
0.013742282000000001,0.00442219,0.005501006000000001,0.023865962,0.012464454,5.955,0,0
0.010987936000000002,-0.0013663499999999997,0.006939600000000001,0.010367082,0.004988514000000001,5.956,0,0
0.006974446000000001,-0.006820648,0.008218560000000001,-0.005831798000000001,-0.003489546,5.957,0,0
0.0008639659999999999,-0.016148512,0.008852128,-0.023295358000000002,-0.012658486,5.958,0,0
-0.004002314,-0.022943212,0.00953333,-0.03992627800000001,-0.021595138,5.959,0,0
-0.007079148,-0.021321902200000003,0.009141946000000001,-0.05173396,-0.028125780000000003,5.96,0,0
-0.013132602,-0.017347642200000003,0.00502904,-0.05763,-0.03133926000000001,5.961,0,0
-0.019889612,-0.0074925222000000015,-0.0009144800000000005,-0.057727020000000004,-0.03115482,5.962,0,0
-0.022096032,0.0128171778,-0.005571670000000001,-0.049738340000000006,-0.02538412,5.963,0,0
-0.023614032,0.027475977800000002,-0.009937186,-0.0341897,-0.013981200000000003,5.964,0,0
-0.02604008,0.027320890000000004,-0.014119726,-0.013270920000000004,-0.0007745199999999999,5.965,0,0
-0.023161720000000004,0.02138355,-0.015512399999999999,0.011351700000000001,0.010628660000000002,5.966,0,0
-0.014939504,0.009296970000000002,-0.01410438,0.03609414,0.019761220000000003,5.967,0,0
-0.007934503999999998,-0.00805401,-0.012310020000000001,0.05608404,0.025197000000000004,5.968,0,0
-0.0018655840000000004,-0.01818371,-0.010662520000000002,0.06875822000000001,0.026159980000000003,5.969,0,0
0.005441356,-0.020047620000000002,-0.009056326,0.07413672,0.02516688,5.97,0,0
0.011188116000000001,-0.01981824,-0.004587432000000001,0.07283046,0.024523419999999997,5.971,0,0
0.014036280000000002,-0.01638572,0.0031720480000000002,0.06704992,0.02490554,5.972,0,0
0.0154479,-0.010116652000000002,0.010026688,0.05838805999999999,0.02444504,5.973,0,0
0.013556988,-0.004677071999999999,0.015131188,0.04657259999999999,0.021789379999999997,5.974,0,0
0.0076215680000000004,0.0026453680000000004,0.018411698,0.031163042,0.017670322000000002,5.975,0,0
0.0017124080000000012,0.014229408,0.017474358000000002,0.012289961999999998,0.011754134000000001,5.976,0,0
-0.003783388,0.025264128000000004,0.0118453742,-0.009975278,0.0017599540000000002,5.977,0,0
-0.00877139,0.030967100000000004,0.0058657038,-0.034319238,-0.010952466000000001,5.978,0,0
-0.008609092,0.03290262,0.0023806777999999997,-0.056638518,-0.022623706,5.979,0,0
-0.0032588120000000003,0.029715560000000002,0.0012636458000000001,-0.07407392000000002,-0.032374228000000005,5.98,0,0
0.002456408,0.023429580000000002,0.0019310778000000003,-0.08450424000000001,-0.039053580000000004,5.981,0,0
0.007893584,0.01950286,0.0026585196,-0.08583774,-0.039935120000000005,5.982,0,0
0.014307506000000001,0.007102219999999999,0.0013098280000000003,-0.07794464000000001,-0.03502387999999999,5.983,0,0
0.01953138,-0.012321180000000001,-0.002822206,-0.06346632,-0.02674275,5.984,0,0
0.021680840000000003,-0.022112200000000002,-0.008949338000000001,-0.043731884000000006,-0.016015042,5.985,0,0
0.022247040000000003,-0.024912432,-0.014519824,-0.016390524,-0.0036403819999999993,5.986,0,0
0.02038156,-0.030698094,-0.013841568,0.015525816000000003,0.008732658,5.987,0,0
0.013478114000000001,-0.030292314000000004,-0.007441126,0.044637276000000004,0.019453078000000002,5.988,0,0
0.004805153999999999,-0.024527094000000003,-6.774599999999917e-05,0.066840956,0.027403728000000002,5.989,0,0
-0.0016155680000000006,-0.032177154,0.008016474,0.07995564000000001,0.03179644,5.99,0,0
-0.0078016280000000006,-0.041567802,0.014153394,0.07982324,0.03188638,5.991,0,0
-0.013200708000000002,-0.03329616,0.013479978,0.0666797,0.02795114,5.992,0,0
-0.014418862000000001,-0.014461560000000005,0.007833604000000001,0.046528046600000005,0.020746943999999996,5.993,0,0
-0.014763982000000002,0.005810039999999999,0.002080583999999999,0.0245585466,0.011933606000000001,5.994,0,0
-0.016564020000000002,0.029244980000000004,-0.0031363360000000004,0.0039952866,0.0034051259999999996,5.995,0,0
-0.015986280000000002,0.04384442,-0.007653116,-0.0150732734,-0.004229074,5.996,0,0
-0.013166991999999999,0.03640443000000001,-0.012370574000000002,-0.0318079734,-0.011277954,5.997,0,0
-0.010671982,0.02072875,-0.01600452,-0.044891280000000006,-0.017734698,5.998,0,0
-0.006705666000000001,0.010617802,-0.01505045,-0.0532137,-0.02278914,5.999,0,0
-0.0007831460000000002,0.007221822000000001,-0.011410042000000002,-0.056160220000000004,-0.026327160000000002,6.0,0,0
0.0047910539999999995,0.0076147820000000005,-0.007090992000000001,-0.054533380000000006,-0.028562780000000003,6.001,0,0
0.007979706,0.009437550000000001,-0.0006657120000000002,-0.04729134,-0.028372440000000002,6.002,0,0
0.007928354,0.00993893,0.0075013879999999995,-0.034787873999999996,-0.024454940000000005,6.003,0,0
0.0052146219999999995,0.004671918,0.013620158,-0.020023814,-0.017523335,6.004,0,0
0.0016648119999999999,-0.0041296219999999995,0.01669767,-0.003918754000000002,-0.008498495000000002,6.005,0,0
-0.00145345,-0.011859281999999999,0.01849736,0.012725305999999999,0.001105965,6.006,0,0
-0.00369721,-0.01784942,0.01989118,0.025755206,0.008880405000000001,6.007,0,0
-0.004298804,-0.02119986,0.019407540000000004,0.03336222,0.014701825000000002,6.008,0,0
-0.003872872,-0.020045340000000002,0.01563516,0.0364492,0.018507640000000002,6.009,0,0
-0.003170432,-0.014728114,0.0094275,0.034508119999999996,0.019176620000000002,6.01,0,0
-0.0037808,-0.008340194,0.0013586800000000001,0.028092540000000003,0.017698560000000002,6.011,0,0
-0.004751646000000001,-0.000686434000000001,-0.0072718600000000015,0.018903016,0.015642106000000003,6.012,0,0
-0.002759514000000001,0.009281346,-0.015074480000000003,0.009123136,0.012187244000000002,6.013,0,0
-3.940400000000026e-05,0.015500825999999999,-0.020525040000000005,0.0007717560000000006,0.006831476000000001,6.014,0,0
0.0007064359999999997,0.016602199999999998,-0.022376040000000003,-0.007607544000000001,5.636000000000269e-06,6.015,0,0
0.001858804,0.0176179,-0.020549820000000003,-0.016016764000000003,-0.006756324000000001,6.016,0,0
0.0034277560000000006,0.015782796,-0.015872744,-0.021184960000000003,-0.011443090000000001,6.017,0,0
0.0031931000000000004,0.009728392000000002,-0.009029704000000001,-0.02348044,-0.014373508,6.018,0,0
0.0036229980000000005,0.00631355,-0.0011858039999999995,-0.02479538,-0.014982400000000002,6.019,0,0
0.006350788000000001,0.0061196900000000005,0.006183596,-0.023282900000000002,-0.012626474,6.02,0,0
0.00882753,0.00461939,0.011593436000000002,-0.016618374,-0.007632498000000001,6.021,0,0
0.011274624,0.0037369140000000005,0.012569706000000002,-0.006438594000000001,-0.00021915800000000055,6.022,0,0
0.013266584000000001,0.0017912379999999997,0.008771670000000002,0.005577786,0.008356282,6.023,0,0
0.009381460000000001,-0.01081692,0.001902650000000001,0.019207726,0.016582942,6.024,0,0
-0.0007477999999999999,-0.0289665,-0.00391121,0.033029766,0.024518656000000003,6.025,0,0
-0.011778799999999999,-0.038564600000000004,-0.007885266,0.0453936,0.03172976,6.026,0,0
-0.0226843,-0.03355706,-0.011724452000000003,0.056561480000000004,0.03564926,6.027,0,0
-0.033335960000000005,-0.022363840000000003,-0.012979576000000001,0.06636854,0.03674506,6.028,0,0
-0.03666836,-0.01642756,-0.012379616000000001,0.07188206,0.03547434,6.029,0,0
-0.030555874,-0.008737640000000001,-0.012389096,0.07166404,0.0310736,6.03,0,0
-0.021932708000000002,0.0019027599999999999,-0.011760048000000002,0.06466782,0.024137414,6.031,0,0
-0.012938126,0.00393512,-0.010085426000000002,0.048336618,0.015262352000000002,6.032,0,0
-0.002300946,0.0007862599999999987,-0.007206936,0.023782038000000002,0.004875552,6.033,0,0
0.007064714,0.007630086,0.00046274400000000104,-0.004067842,-0.007134548000000001,6.034,0,0
0.013309508000000001,0.017572958,0.012719004,-0.033450822000000005,-0.020355688000000004,6.035,0,0
0.020468342,0.020533118,0.026165212,-0.061796582,-0.033956402000000004,6.036,0,0
0.02783584,0.022658618000000002,0.03983553000000001,-0.08261164,-0.0451586,6.037,0,0
0.03150686,0.026976778,0.04998280000000001,-0.09399550000000001,-0.051446620000000005,6.038,0,0
0.03277214,0.037353532,0.051046520000000005,-0.09816506,-0.05259608,6.039,0,0
0.031225,0.04853574,0.041644296000000004,-0.09490886,-0.048767780000000004,6.04,0,0
0.024773252,0.0502463,0.022242296,-0.0835569,-0.04049066,6.041,0,0
0.017184406,0.04302918000000001,-0.0009639640000000012,-0.06921656000000001,-0.030627754,6.042,0,0
0.012432812000000001,0.02786142,-0.015795784,-0.055015060000000005,-0.022015558,6.043,0,0
0.007930386000000001,-0.0009860600000000004,-0.023499400000000004,-0.038299356,-0.013831042399999998,6.044,0,0
0.0036499139999999998,-0.03010556,-0.033156296,-0.017955656,-0.004839502400000001,6.045,0,0
0.0012684660000000002,-0.04286062,-0.04100241600000001,0.0035954840000000012,0.0038860376000000004,6.046,0,0
-0.0006129620000000002,-0.047266760000000005,-0.041360436,0.024173844000000003,0.0105620916,6.047,0,0
-0.003991168,-0.04610968000000001,-0.041857836,0.043317024,0.0156266956,6.048,0,0
-0.007870522,-0.03741754,-0.043454480000000004,0.057730580000000004,0.019639060000000003,6.049,0,0
-0.01059331,-0.0343845,-0.034621222,0.06557046,0.02188864,6.05,0,0
-0.013793334,-0.04227812,-0.015792821999999998,0.06746014,0.02295004,6.051,0,0
-0.01682394,-0.04646600000000001,0.0016627179999999988,0.06631097999999999,0.0245917,6.052,0,0
-0.01789712,-0.041285786,0.013448458,0.06485138,0.02636898,6.053,0,0
-0.01792088,-0.029087245999999997,0.024274458000000002,0.0617834,0.027458760000000002,6.054,0,0
-0.017810760000000002,-0.011266885999999999,0.032458640000000004,0.05669318,0.0280659,6.055,0,0
-0.013507744,0.009655094,0.0344478,0.049289280000000005,0.025748060000000003,6.056,0,0
-0.004417684,0.027201934,0.032890420000000004,0.037865982000000006,0.019689152,6.057,0,0
0.003201036,0.034337,0.027919190000000003,0.020015802,0.011577212000000002,6.058,0,0
0.008084566,0.03531266,0.01809861,-0.0026625980000000004,0.0012738520000000007,6.059,0,0
0.011427306000000002,0.03311908,0.006814090000000002,-0.025109258000000002,-0.009283828000000001,6.06,0,0
0.009426804,0.023893048000000004,-0.0020526300000000006,-0.043929458000000005,-0.016580568,6.061,0,0
0.0021850240000000007,0.011173289999999999,-0.009971230000000001,-0.05759774,-0.02141656,6.062,0,0
-0.0034625059999999997,0.0022356919999999988,-0.01579994,-0.06406,-0.02426168,6.063,0,0
-0.0059974780000000005,-0.004176508000000001,-0.01725472,-0.06327652,-0.02452042,6.064,0,0
-0.006528392000000001,-0.006830302000000001,-0.0171591,-0.0602134,-0.024633440000000003,6.065,0,0
-0.00277504,-0.0009093499999999997,-0.018092499999999997,-0.0569006,-0.02557736,6.066,0,0
0.0034625800000000003,0.007344648000000001,-0.01842712,-0.052684140000000004,-0.02501294,6.067,0,0
0.00817117,0.012211986000000001,-0.0164997,-0.047792320000000006,-0.021494148,6.068,0,0
0.012622192,0.015825458,-0.012736079400000001,-0.040566580000000005,-0.015712708000000002,6.069,0,0
0.016301686000000003,0.014758668000000003,-0.006458639400000002,-0.030247342000000003,-0.008684550000000003,6.07,0,0
0.015287268000000003,0.007832107999999999,0.0026346205999999996,-0.017311462000000007,-0.0008028900000000005,6.071,0,0
0.010314646,0.0030257280000000005,0.0127473806,0.0002536980000000001,0.00892139,6.072,0,0
0.005388892000000001,0.005563808000000001,0.021223060600000003,0.022110638000000002,0.018505198,6.073,0,0
-0.00022612799999999949,0.013241596000000001,0.02603116,0.043126278000000004,0.025579318000000004,6.074,0,0
-0.007191108000000001,0.02238756,0.025420320000000003,0.0610332,0.03100646,6.075,0,0
-0.011301936,0.029684759999999998,0.018712358000000002,0.07639520000000001,0.034589760000000004,6.076,0,0
-0.012480794,0.030678700000000003,0.0073837580000000015,0.08521114,0.03491922000000001,6.077,0,0
-0.01320562,0.023293966000000003,-0.004504542000000001,0.08474388000000001,0.0323744,6.078,0,0
-0.012164608,0.007901766000000001,-0.013023482000000001,0.07869984000000001,0.02913656,6.079,0,0
-0.008218036,-0.016095294000000003,-0.017810162,0.06841668000000001,0.02424538,6.08,0,0
-0.004720752,-0.04452869400000001,-0.0189035,0.051849346000000004,0.017750459800000003,6.081,0,0
-0.0025590214000000004,-0.064564174,-0.015995174,0.029710706000000003,0.0106827098,6.082,0,0
0.0012022746000000001,-0.06771212,-0.011313646,0.005670606,0.0024393098,6.083,0,0
0.004820262600000001,-0.05727988,-0.00704823,-0.018859074000000003,-0.006515910200000001,6.084,0,0
0.0051318406000000006,-0.0352793,-0.00219177,-0.042320814,-0.0148007102,6.085,0,0
0.003636838600000001,-0.005100619999999998,0.004494090000000001,-0.0610879,-0.021298789999999998,6.086,0,0
0.0016923640000000007,0.0192978,0.012016684,-0.07277762,-0.02584626,6.087,0,0
-0.002601992,0.03159112,0.017706836000000004,-0.07800902,-0.02791384,6.088,0,0
-0.007126952000000001,0.0366647,0.020283960000000004,-0.07894578,-0.02872386,6.089,0,0
-0.007776979800000001,0.038382980000000004,0.019577052,-0.07377278,-0.028225339999999998,6.09,0,0
-0.0064455472,0.032811679999999996,0.016949274,-0.06295046,-0.0262956,6.091,0,0
-0.0043545371999999995,0.02232836,0.013073726000000003,-0.048110108,-0.023523000000000002,6.092,0,0
-3.324519999999974e-05,0.013905572,0.008236496,-0.026876708,-0.018902596,6.093,0,0
0.0034090588000000007,0.004349662,0.006736898,-0.0008378480000000021,-0.011869408,6.094,0,0
0.0036470178,-0.005339658000000001,0.0063614480000000004,0.023272492000000002,-0.003657248,6.095,0,0
0.004239463200000001,-0.008923498000000002,0.001334666,0.041731192,0.0032333920000000007,6.096,0,0
0.004897189200000001,-0.008219998,-0.006785646,0.05452792,0.007974272000000001,6.097,0,0
0.0027100852,-0.010363830000000001,-0.015084776000000001,0.0598286,0.010697348,6.098,0,0
0.0005430992000000001,-0.012644240000000001,-0.022190818,0.05883734000000001,0.012469400000000002,6.099,0,0
-0.000660136,-0.01721286,-0.021823738000000002,0.05498074000000001,0.013725580000000001,6.1,0,0
-0.003307818,-0.02658216,-0.012936937999999999,0.04906644,0.01565672,6.101,0,0
-0.005444954,-0.030365980000000004,-0.0016753579999999992,0.04077034000000001,0.01864548,6.102,0,0
-0.003977146,-0.024095700000000005,0.010914302,0.029093658000000005,0.02007098,6.103,0,0
-0.0018220100000000006,-0.00997174,0.020825322000000004,0.014225498,0.018642753999999997,6.104,0,0
-0.0012202420000000003,0.01543244,0.022341220000000002,-0.0027937019999999995,0.0147963654,6.105,0,0
0.000640001,0.05039640000000001,0.014685320000000002,-0.020453362000000003,0.0080617654,6.106,0,0
0.001721317,0.07975042,0.00024064000000000203,-0.036496702000000006,-0.0009181146000000005,6.107,0,0
-0.001731799,0.09454454000000001,-0.01785592,-0.04848052,-0.0081129546,6.108,0,0
-0.006106713,0.08030476,-0.032191040000000004,-0.0559556,-0.0130235486,6.109,0,0
-0.007406005,0.03275716,-0.03644703999999999,-0.06035142,-0.01778418,6.11,0,0
-0.008097426000000001,-0.01955964,-0.03203048,-0.06312258,-0.02184372,6.111,0,0
-0.007071252000000002,-0.059090840000000006,-0.019384860000000004,-0.06362476,-0.02438432,6.112,0,0
0.00010228799999999986,-0.08596192000000001,-0.0005134800000000002,-0.058046,-0.02624958,6.113,0,0
0.010120148,-0.08622284000000001,0.01569182,-0.04662741200000001,-0.0265649,6.114,0,0
0.019058786,-0.056995392000000006,0.02240426,-0.027313032,-0.022693678000000002,6.115,0,0
0.027143886000000002,-0.023109852000000004,0.02318942,0.006700428000000001,-0.014335022000000001,6.116,0,0
0.0313277,-0.0027013720000000005,0.020415463999999998,0.047859208,-0.0026148019999999994,6.117,0,0
0.027908416000000002,0.0011974679999999993,0.012950124,0.081885868,0.010650738000000002,6.118,0,0
0.019523814,0.0002301079999999997,0.001722144,0.10627926000000001,0.023297098000000002,6.119,0,0
0.008461953999999999,0.00537922,-0.009864576,0.11892376,0.033538116,6.12,0,0
-0.005933506000000001,0.00903878,-0.017077056,0.11461488,0.04151322,6.121,0,0
-0.019735146000000002,0.01108856,-0.020730240000000004,0.0976159,0.04728160000000001,6.122,0,0
-0.028652762000000002,0.020318080000000002,-0.022167140000000002,0.0756867,0.04934406,6.123,0,0
-0.03364148,0.025969930000000002,-0.020125840000000002,0.052402086,0.04787934,6.124,0,0
-0.034272079999999996,0.017505009999999998,-0.015446758,0.028939305999999995,0.04428270000000001,6.125,0,0
-0.029014402,0.0014442500000000002,-0.01075287,0.005082166000000001,0.037382040000000005,6.126,0,0
-0.021689716,-0.017617890000000004,-0.005234269999999999,-0.019247694000000003,0.024444505999999998,6.127,0,0
-0.015581692000000003,-0.03636803,0.0038964700000000004,-0.046138094000000004,0.005563926000000002,6.128,0,0
-0.008397294,-0.048446260000000005,0.01614811,-0.07579628000000001,-0.017173854000000002,6.129,0,0
0.00020762599999999982,-0.053512960000000005,0.028480768000000004,-0.10235936000000001,-0.040073434000000005,6.13,0,0
0.007632288000000001,-0.05165278,0.038381540000000006,-0.12085084000000001,-0.058450374,6.131,0,0
0.015435302000000001,-0.0372082,0.04393036,-0.12942560000000003,-0.06886864000000001,6.132,0,0
0.024941758,-0.012180919999999998,0.04184698,-0.12612868000000002,-0.07075912000000001,6.133,0,0
0.032876340000000004,0.012680760000000001,0.031937612,-0.11017954,-0.06474876,6.134,0,0
0.03645574,0.031492080000000006,0.018713992000000002,-0.08785786000000001,-0.05384544,6.135,0,0
0.03838786,0.04559154000000001,0.0023714320000000014,-0.06605092,-0.04341544,6.136,0,0
0.03996508,0.051350940000000005,-0.015459208000000002,-0.044621732,-0.033191860000000004,6.137,0,0
0.036189740000000005,0.0463854,-0.026285088000000005,-0.021109732,-0.019453199999999997,6.138,0,0
0.028023799999999998,0.04161626,-0.030532520000000004,0.007389108000000002,-0.0019202400000000001,6.139,0,0
0.017618059999999998,0.04146086,-0.032100960000000005,0.041814028,0.017123620000000003,6.14,0,0
0.00042881999999999816,0.0390699,-0.028403380000000002,0.078165688,0.03603872,6.141,0,0
-0.021831140000000002,0.0362,-0.019558638,0.1101359,0.05153406,6.142,0,0
-0.04139474,0.0330625,-0.010698790000000001,0.13219178,0.06083678,6.143,0,0
-0.057040320000000005,0.020983780000000007,-0.0034945300000000005,0.1403624,0.06418112000000001,6.144,0,0
-0.0674844,0.0032338399999999982,0.004189710000000001,0.1367938,0.06279254,6.145,0,0
-0.0669211,-0.013224160000000002,0.01262065,0.12477648,0.05899978000000001,6.146,0,0
-0.05728208,-0.030721840000000007,0.019895608000000002,0.10553396,0.05321136,6.147,0,0
-0.042518226,-0.044416500000000005,0.02287254,0.08139544000000001,0.04293978,6.148,0,0
-0.023077866,-0.047722520000000004,0.021632152,0.0509662,0.025851320000000004,6.149,0,0
-0.001561085999999998,-0.04665366,0.016130384,0.011361159999999999,0.0029454200000000007,6.15,0,0
0.016744494000000002,-0.04574554,0.007423304000000002,-0.03394432,-0.023351780000000003,6.151,0,0
0.029539734000000005,-0.0393568,-0.0017024559999999998,-0.0766268,-0.04815092000000001,6.152,0,0
0.039057100000000004,-0.0254451,-0.011441556,-0.11058008,-0.06532844000000002,6.153,0,0
0.042839060000000005,-0.009938620000000002,-0.020391288,-0.13140944000000002,-0.0725095,6.154,0,0
0.04046594,0.007037299999999998,-0.026791380000000004,-0.1369996,-0.06966682,6.155,0,0
0.036741840000000005,0.027035820000000002,-0.030474820000000007,-0.12848781999999997,-0.05921928000000001,6.156,0,0
0.032272100000000005,0.0422323,-0.02979922,-0.11037662000000001,-0.04596770000000001,6.157,0,0
0.02535684,0.048513440000000005,-0.023124488,-0.08734748,-0.03319484,6.158,0,0
0.018980766,0.050410840000000005,-0.012224468,-0.061611698000000006,-0.021211332000000003,6.159,0,0
0.015387266000000002,0.04894536000000001,0.00020261199999999872,-0.035263418,-0.010924892,6.16,0,0
0.01124946,0.04117664000000001,0.012282692000000001,-0.008401798000000002,-0.001871072,6.161,0,0
0.0074921696,0.02828004,0.022549092,0.018643262,0.007849108,6.162,0,0
0.006022219600000001,0.012283480000000003,0.029358060000000002,0.044359262,0.017584828000000004,6.163,0,0
0.0037950816000000007,-0.01003196,0.032392580000000004,0.06748948,0.0265366,6.164,0,0
-0.0010326384000000001,-0.036165199999999995,0.03166974,0.0869032,0.034338200000000006,6.165,0,0
-0.005471932400000001,-0.05874084,0.026346902000000005,0.1009066,0.04048846000000001,6.166,0,0
-0.008735162000000001,-0.07376998000000001,0.015898822000000003,0.10793514000000001,0.044712800000000004,6.167,0,0
-0.014039312000000002,-0.07517116000000001,0.002543001999999999,0.10821512000000001,0.047467640000000005,6.168,0,0
-0.019162240000000004,-0.05976034,-0.007075678000000001,0.10124102,0.048512040000000006,6.169,0,0
-0.022061720000000003,-0.032791219999999996,-0.01193157,0.08648402,0.046512500000000005,6.17,0,0
-0.025002959999999998,-1.4339999999999839e-05,-0.015967092000000002,0.06474582,0.04117976,6.171,0,0
-0.02738134,0.03372472,-0.019032192000000003,0.0368413,0.0312529338,6.172,0,0
-0.027529420000000002,0.057433500000000005,-0.020218512,0.004085519999999999,0.015771813799999996,6.173,0,0
-0.02584528,0.06363165999999999,-0.021734632000000004,-0.02914424,-0.0026225662000000007,6.174,0,0
-0.02246955,0.054435894,-0.023510040000000003,-0.058320040000000004,-0.020135006200000003,6.175,0,0
-0.016236748000000002,0.035480753999999996,-0.022089800000000003,-0.08133864,-0.03542108620000001,6.176,0,0
-0.008008968000000003,0.011848194000000003,-0.016047632,-0.09451683999999999,-0.045552920000000004,6.177,0,0
0.0007539919999999998,-0.013924246,-0.006032052000000001,-0.09723936,-0.04832066,6.178,0,0
0.010855512000000001,-0.033359586,0.006842488000000001,-0.092744,-0.047133520000000005,6.179,0,0
0.021871682000000003,-0.04165826,0.020899468000000004,-0.08286608000000001,-0.04307192,6.18,0,0
0.031508100000000004,-0.044878180000000004,0.033951688,-0.06872582,-0.0357495,6.181,0,0
0.03875594000000001,-0.040809599999999994,0.04171222000000001,-0.052827900000000004,-0.027882320000000002,6.182,0,0
0.043317720000000004,-0.028776081999999994,0.04090466,-0.037269028,-0.020532846000000004,6.183,0,0
0.04168086000000001,-0.01817229,0.03050938,-0.020052088,-0.011481302,6.184,0,0
0.033229782000000006,-0.002792089999999999,0.01121176,0.00037447199999999896,0.00020489799999999937,6.185,0,0
0.022614118,0.022227570000000002,-0.011700219999999999,0.022786692,0.012735238000000001,6.186,0,0
0.010428058,0.046173030000000004,-0.03351312,0.04472575200000001,0.024161418000000004,6.187,0,0
-0.004538522000000001,0.062986632,-0.04663014,0.06351044,0.034333904,6.188,0,0
-0.018454182,0.061208910400000004,-0.046388120000000005,0.07644996000000001,0.04188096,6.189,0,0
-0.028305184000000004,0.0369873704,-0.037231662000000006,0.0805496,0.04351688000000001,6.19,0,0
-0.03639838000000001,0.012084590399999996,-0.022072961999999998,0.07473128000000001,0.03948996,6.191,0,0
-0.04145952,-0.0045971876,-0.0023894220000000004,0.061785120000000006,0.031961006,6.192,0,0
-0.03942198,-0.0188918076,0.015022058000000001,0.04627718,0.0226270436,6.193,0,0
-0.032000386,-0.017760131999999998,0.023875318,0.029329786000000004,0.0131454916,6.194,0,0
-0.021632998,-0.0020544199999999995,0.02817698,0.012185226,0.0045587256,6.195,0,0
-0.007436358000000001,0.00927912,0.029334520000000003,-0.002959014000000001,-0.0033605544,6.196,0,0
0.0069219220000000005,0.010433038,0.025266872000000003,-0.017489734,-0.0109202604,6.197,0,0
0.016617742,0.007913014000000001,0.016218312,-0.031524774,-0.017810998,6.198,0,0
0.022645468000000002,0.005225742000000001,0.003564452,-0.04184594,-0.024216526000000002,6.199,0,0
0.02425864,-0.00833277,-0.006158168,-0.0473196,-0.029380080000000003,6.2,0,0
0.019638724000000003,-0.02300887,-0.009484228,-0.05010892,-0.03112536,6.201,0,0
0.012018718000000003,-0.021360210000000004,-0.008680320000000002,-0.05045738,-0.028516000000000003,6.202,0,0
0.0054392040000000004,-0.015509206000000006,-0.0054290580000000005,-0.04685906,-0.024078760000000005,6.203,0,0
-0.0007588359999999995,-0.015055186000000005,-0.0012644620000000005,-0.0423575,-0.01953312,6.204,0,0
-0.006593016,-0.004765646000000003,-0.002148482,-0.03991550000000001,-0.014641144,6.205,0,0
-0.009816100000000001,0.010236634,-0.010637482,-0.036190120000000006,-0.010713556,6.206,0,0
-0.011101754000000002,0.007223405999999999,-0.020559882,-0.028332656000000005,-0.007930668,6.207,0,0
-0.01285204,-0.006086094,-0.025314664,-0.015688896000000004,-0.003638438,6.208,0,0
-0.015204200000000001,-0.014323568000000002,-0.02048066,0.004073683999999999,0.003553762000000001,6.209,0,0
-0.01651388,-0.018517748,-0.0085771,0.029826844000000005,0.011138946,6.21,0,0
-0.019257780000000002,-0.024623028000000005,0.0038264400000000004,0.055890064,0.017354158,6.211,0,0
-0.02502486,-0.024965998,0.014223520000000003,0.07759788000000001,0.02278695,6.212,0,0
-0.02900948,-0.014274638000000003,0.019360040000000002,0.09026650000000001,0.026123480000000004,6.213,0,0
-0.029436820000000002,-0.0025395180000000006,0.016151416400000004,0.08967416,0.026129680000000002,6.214,0,0
-0.028789220000000004,0.004323748,0.0061350564,0.0777633,0.02441696,6.215,0,0
-0.023547437800000005,0.006246264000000001,-0.003309263600000001,0.059798760000000006,0.02258504,6.216,0,0
-0.011778797800000004,0.0029884939999999995,-0.006877441600000001,0.038707156,0.019597094,6.217,0,0
8.98022e-05,-0.006260146,-0.007982389600000002,0.016633916,0.0144957282,6.218,0,0
0.0103084822,-0.012899146,-0.008260606000000004,-0.005161664000000001,0.007941574199999999,6.219,0,0
0.0209999622,-0.009553712,-0.004776308000000002,-0.026755104000000002,0.00010605420000000046,6.22,0,0
0.02857264,0.0007064519999999998,-0.0006336660000000002,-0.048512384000000006,-0.0085213258,6.221,0,0
0.03157004,0.013964560000000003,-0.0007671660000000001,-0.06830158,-0.0164694798,6.222,0,0
0.033410800000000004,0.02865478,-0.0013866848,-0.08062416,-0.021609473999999997,6.223,0,0
0.03336418000000001,0.03953158,-0.0003396667999999998,-0.08158624,-0.022616499999999998,6.224,0,0
0.02955374,0.038602674000000003,0.0014173312,-0.07181206000000001,-0.020296415999999998,6.225,0,0
0.024404240000000004,0.027851914000000002,0.0050488492,-0.05463188200000001,-0.016708184,6.226,0,0
0.020281820000000002,0.012914054000000001,0.0094623272,-0.033202196,-0.013658504,6.227,0,0
0.01574782,-0.00013084599999999957,0.011971534,-0.012320796000000002,-0.012006024,6.228,0,0
0.012149294,-0.006884067,0.013128335999999999,0.003897084,-0.011602044,6.229,0,0
0.011865614000000002,-0.009603925000000001,0.01569264,0.012964804,-0.011773158,6.23,0,0
0.010797708,-0.011443905,0.01832686,0.015114024,-0.011664306000000001,6.231,0,0
0.00636135,-0.010975065,0.01825136,0.01331229,-0.010942666000000002,6.232,0,0
0.0015301099999999999,-0.004423305,0.0157210366,0.0097714292,-0.009643366,6.233,0,0
-0.0030569240000000004,0.006707976000000002,0.009943216599999999,0.0092082292,-0.0072227898000000006,6.234,0,0
-0.008892604000000002,0.017973420000000004,-0.0012659433999999995,0.014714709200000002,-0.0036422998000000006,6.235,0,0
-0.013024238,0.027327320000000002,-0.0141571634,0.0246103512,0.0013608761999999996,6.236,0,0
-0.01448314,0.032066026000000004,-0.024217543400000003,0.036467999200000004,0.0086231962,6.237,0,0
-0.01746924,0.025973902,-0.02980712,0.046153160000000006,0.0169765562,6.238,0,0
-0.020370779999999998,0.012896122000000003,-0.030017340000000003,0.048613260000000005,0.02292708,6.239,0,0
-0.019915460000000003,0.0008695420000000005,-0.024976992,0.044920680000000004,0.026382560000000003,6.24,0,0
-0.019161214000000003,-0.012474438000000001,-0.015495012000000002,0.037215200000000004,0.02871554,6.241,0,0
-0.0159603812,-0.027145204000000006,-0.003987872000000002,0.025419094,0.02855498,6.242,0,0
-0.0067162412000000005,-0.04085922,0.006836508000000001,0.013531774,0.0256842,6.243,0,0
0.0027276388,-0.05552950000000001,0.015690528000000002,0.004688912,0.021469922000000002,6.244,0,0
0.0093570388,-0.06605348000000001,0.022688620000000003,-0.0015162482000000003,0.016744742,6.245,0,0
0.015991512800000003,-0.0652001,0.026896080000000003,-0.006313756199999999,0.010348532000000002,6.246,0,0
0.020177,-0.05521588,0.02778424,-0.011260090200000001,0.002502352,6.247,0,0
0.019826299999999998,-0.03613336,0.025582420000000005,-0.017859290200000003,-0.004928128,6.248,0,0
0.01840224,-0.013095099999999998,0.021507600000000005,-0.028036668200000003,-0.011448930000000003,6.249,0,0
0.016637980000000004,0.004711740000000001,0.015938298000000004,-0.041664508,-0.01838719,6.25,0,0
0.01275208,0.0209732,0.008043172000000003,-0.053041780000000004,-0.02554592,6.251,0,0
0.008068404000000001,0.0340859,-0.0004878679999999998,-0.058058280000000004,-0.02912936,6.252,0,0
0.005917488,0.039798520000000004,-0.007004728,-0.05753458,-0.02857842,6.253,0,0
0.00478753,0.04611776,-0.011625688,-0.0499288,-0.02463543,6.254,0,0
0.002760662,0.054499660000000005,-0.015919346,-0.03498559,-0.01629851,6.255,0,0
0.0016285900000000003,0.05774854000000001,-0.019462640000000003,-0.01746969,-0.00544507,6.256,0,0
0.0004838519999999997,0.058004480000000004,-0.0214195,-0.0006474500000000008,0.0033438300000000008,6.257,0,0
-0.002727432,0.05787492,-0.02099746,0.01643627,0.008921430000000001,6.258,0,0
-0.006041234000000001,0.05041852000000001,-0.018592098,0.032794750000000004,0.01267074,6.259,0,0
-0.0062688474,0.03260294,-0.01359583,0.04481812,0.013755600000000002,6.26,0,0
-0.0036989154000000015,0.00865578,-0.005445829999999999,0.053707780000000004,0.014842000000000001,6.261,0,0
0.00036959859999999897,-0.016654379999999996,0.00306047,0.06156576000000001,0.018670239999999998,6.262,0,0
0.0054456386,-0.042788240000000005,0.01274119,0.06558144,0.02280922,6.263,0,0
0.0095236306,-0.06646706,0.025007168000000003,0.06273768,0.024527,6.264,0,0
