bandpass 1,bandpass 2,bandpass 3,bandpass 4,bandpass 5,time,onset,mark
-0.00019197560000000003,-0.000702434,-0.0012444168,0.0011670316,-0.00025713974,4.188,0,0
-0.0010864436,0.0004125280000000001,-0.0021029788,0.0022183556,-0.00111248374,4.189,0,0
-0.0018131276,0.0014916820000000003,-0.0029569508,0.0028770496000000002,-0.00150818374,4.19,0,0
-0.0022318062000000003,0.0032484520000000006,-0.0033700520000000006,0.0031582016,-0.002016532,4.191,0,0
-0.00285481,0.004940174000000001,-0.0030402004000000004,0.0031964240000000002,-0.00286647,4.192,0,0
-0.002693414,0.005977048000000001,-0.0017572184000000006,0.0019812059999999997,-0.0025045842,4.193,0,0
-0.0016134098,0.005448274000000001,-0.0004425524000000003,0.00055133,-0.0011603021999999998,4.194,0,0
-0.0008504184000000001,0.004334205400000001,0.0006155735999999999,-0.0005948660000000001,-0.0002679722000000002,4.195,0,0
-0.00024187040000000007,0.002880853400000001,0.001046814,-0.00192041,0.0007606497999999999,4.196,0,0
0.0007258856000000001,0.0001831694000000001,4.758240000000014e-05,-0.002928794,0.0022059678,4.197,0,0
0.0010667142000000001,-0.0028424506000000005,-0.0007141168,-0.003198624,0.0032684980000000003,4.198,0,0
0.0008581006000000001,-0.004444014600000001,-0.00030711279999999985,-0.00337017,0.0033845500000000005,4.199,0,0
0.0011212292000000001,-0.005494942000000001,0.0009464812,-0.0035701400000000003,0.003499208,4.2,0,0
0.0012235432000000002,-0.006543402,0.0031006948000000005,-0.0030449080000000002,0.003964238,4.201,0,0
0.0006630876000000001,-0.005902486,0.0053479368000000005,-0.0022409701600000003,0.003543842,4.202,0,0
0.0004993816,-0.004248040760000001,0.0059147,-0.00144967376,0.0028320260000000005,4.203,0,0
0.0009390070000000002,-0.00316504676,0.004579224000000001,-0.0005560377600000002,0.0023349734,4.204,0,0
0.0006427810600000001,-0.0017148127599999998,0.0019044700000000006,0.00059957824,0.0007788814000000001,4.205,0,0
-8.905694e-05,0.00065300324,-0.0018015460000000004,0.00124945224,-0.0016434406000000001,4.206,0,0
-0.00014333693999999997,0.00255562124,-0.005010250000000001,0.0014008252000000001,-0.0033894446000000003,4.207,0,0
-0.00037913154,0.003639858,-0.0068929840000000004,0.0013386478100000001,-0.0055059086,4.208,0,0
-0.00128255354,0.005045328,-0.0065867178,0.0002491918100000001,-0.007823006,4.209,0,0
-0.0015032556,0.0060311240000000006,-0.0035654718,-0.00155529219,-0.008131256,4.21,0,0
-0.0012064684,0.0055714580000000005,0.0001518461999999996,-0.00315826419,-0.0072026320000000005,4.211,0,0
-0.0010484886000000002,0.004430089480000001,0.0029049122,-0.0038927049900000007,-0.006019463000000001,4.212,0,0
-0.00020782659999999992,0.0027987854800000005,0.005112734200000001,-0.0040407988,-0.003147489,4.213,0,0
0.0007019814000000001,0.00043503148000000047,0.006222353999999999,-0.0030511768000000008,0.0010798510000000002,4.214,0,0
0.0012244714000000001,-0.0017302785200000001,0.005251528,-0.0006766168000000002,0.004203897,4.215,0,0
0.0016673402,-0.00294012252,0.00391468,0.0012168992,0.005937391,4.216,0,0
0.0016510631,-0.00382408,0.00357886,0.0019233504000000002,0.006920452,4.217,0,0
0.0009602037000000002,-0.0041718960000000005,0.003146598,0.0026417432000000003,0.0060758798000000004,4.218,0,0
0.00013257769999999996,-0.0035040560000000006,0.001533672,0.0028178992,0.0036116898,4.219,0,0
-0.0001639702,-0.0026371744000000005,-9.901000000000029e-05,0.0018435408000000001,0.0019413038,4.22,0,0
-0.00026266619999999996,-0.0020250176000000003,-0.0009409230000000002,0.0018442608,0.0005604217999999999,4.221,0,0
-0.0005640693,-0.0006494316000000001,-0.0017507030000000002,0.0029186476,-0.0012746982,4.222,0,0
-0.0009628039,0.0012770224,-0.0020196678400000003,0.0032154076,-0.002310454,4.223,0,0
-0.0007387777,0.0021021204,-0.0009714438400000002,0.0034423816,-0.0029086520000000003,4.224,0,0
-0.0006885894000000001,0.0029131188,9.732160000000019e-06,0.003965752,-0.004422542,4.225,0,0
-0.0010750541999999998,0.004508004,0.00016761316000000003,0.0029583020000000003,-0.005536694000000001,4.226,0,0
-0.0007403792000000001,0.004328302,0.00045446116000000014,0.001005972,-0.004638582800000001,4.227,0,0
-0.0005624132000000001,0.0026444,0.00019520600000000012,-0.0002713399999999999,-0.0034352968000000003,4.228,0,0
-0.0008276034,0.0018022259999999999,-0.000740194,-0.001385712,-0.0024807126,4.229,0,0
-0.0013350658000000001,0.0010077524,-0.001517698,-0.002581944,-0.0005113866000000003,4.23,0,0
-0.0019470870000000001,-0.0004041858000000001,-0.0023501,-0.0026945660000000002,0.0020221374000000004,4.231,0,0
-0.00125584,-0.0016727898000000003,-0.0034067439999999997,-0.00195828,0.0032580862000000004,4.232,0,0
0.00042663399999999995,-0.0025032558000000005,-0.004065766,-0.0014892874,0.0041094802,4.233,0,0
0.0010660808000000001,-0.0030706718000000004,-0.004041602,-0.0010159611000000002,0.00528317,4.234,0,0
0.0013805504,-0.0042127882,-0.0033663996,-0.00022666750000000004,0.0047803724,4.235,0,0
0.0023880144,-0.005468434,-0.0014999816,0.00021279469999999998,0.0033311106,4.236,0,0
0.0020951104,-0.004517274,0.0006772064,0.00021285470000000003,0.00223783438,4.237,0,0
0.0006113184,-0.0022002939999999993,0.0020700924,0.0009770541,0.0005737743800000001,4.238,0,0
-0.0005934543999999999,4.149800000000027e-05,0.0029004284,0.0019387778000000003,-0.0013589856200000002,4.239,0,0
-0.0011257279999999999,0.0029577840000000006,0.0029186002,0.0023657522000000005,-0.0023564200200000005,4.24,0,0
-0.0013375606,0.005633128000000001,0.0021335422,0.002962436,-0.0030102722200000005,4.241,0,0
-0.0019597714,0.007224810000000001,0.0014509622000000002,0.0032149340000000005,-0.0036365480000000007,4.242,0,0
-0.0018809558000000002,0.007901908000000001,0.000994697,0.002370459,-0.0030952446000000002,4.243,0,0
-0.0006114598000000002,0.0070833300000000005,0.00020562900000000003,0.0011694269999999998,-0.0015959726,4.244,0,0
0.0008778862000000001,0.004337962000000001,-0.0006704371999999999,8.584999999999973e-06,-0.0004176086000000002,4.245,0,0
0.0016105888000000003,0.0013663100000000001,-0.0012525932,-0.0012653290000000001,0.0007566834000000001,4.246,0,0
0.0018272144,-0.0010819119999999998,-0.001721104,-0.0022423350000000002,0.0023573514,4.247,0,0
0.002129909,-0.0033978780000000004,-0.0024596808,-0.002801006,0.003120492,4.248,0,0
0.0017950862000000003,-0.004715270000000001,-0.0027887348,-0.00294986,0.002685396,4.249,0,0
0.0006560242000000001,-0.004605942,-0.0025384448,-0.0027985540000000004,0.0026873799999999996,4.25,0,0
-1.89198e-05,-0.004346259999999999,-0.0027538848,-0.0019960575999999996,0.002770098,4.251,0,0
0.00023248940000000003,-0.00461842,-0.002638388,-0.0008858916000000002,0.001416896,4.252,0,0
0.0003325592,-0.004160726,-0.0021137703999999998,-0.0003149496,0.00030761000000000004,4.253,0,0
0.00024152359999999996,-0.0035198606000000003,-0.0019765444,0.00019375559999999998,6.616200000000008e-05,4.254,0,0
7.445359999999997e-05,-0.0025257706000000003,-0.0016330352,0.0012080256,-0.001328214,4.255,0,0
-0.00036964239999999997,-0.0002058005999999999,-0.0006950612000000001,0.0022201192000000005,-0.002994988,4.256,0,0
-0.0007831244,0.0020749234000000004,0.0004655468000000001,0.0027413072,-0.003202214,4.257,0,0
-0.0010103924,0.0034353914000000004,0.0022160412000000003,0.0033229512000000003,-0.0034583020000000003,4.258,0,0
-0.0008603079999999998,0.004533368,0.0040426092,0.0034178480000000002,-0.004210622000000001,4.259,0,0
-0.00051824,0.0048713079999999995,0.004353456800000001,0.002234136,-0.003524062,4.26,0,0
-0.0001840522,0.003672464,0.0033862748000000006,0.0006493079999999999,-0.002060356,4.261,0,0
0.00033146580000000003,0.0020840119999999997,0.0017027467999999996,-0.000847398,-0.001083608,4.262,0,0
0.0005894698000000001,0.0008183420000000001,5.286880000000004e-05,-0.002695318,0.0006847320000000002,4.263,0,0
0.0002809338,-0.0007877880000000001,-0.0009134636,-0.003993698,0.00298348,4.264,0,0
0.0003046412,-0.0028265960000000002,-0.0007656944000000001,-0.00393531,0.004426014000000001,4.265,0,0
0.0012528274000000001,-0.003741574,0.00014008159999999995,-0.00408853,0.005260450000000001,4.266,0,0
0.0019143334000000002,-0.0036848540000000004,0.0005173449999999999,-0.004383274,0.0057994100000000005,4.267,0,0
0.0018684694000000003,-0.004090080000000001,0.000358911,-0.0035148180000000003,0.005347578,4.268,0,0
0.0022928424000000004,-0.0037849120000000005,0.00011282079999999993,-0.0024109222,0.003826882,4.269,0,0
0.002660031,-0.0023323130000000004,-2.6616200000000072e-05,-0.0019675150000000004,0.002393006,4.27,0,0
0.0015979842000000003,-0.0013624728,-3.5684200000000034e-05,-0.0014301040000000002,0.00071757,4.271,0,0
-9.661580000000004e-05,-0.0004175667999999999,0.00033945640000000005,-0.0003406920000000001,-0.0014312360000000002,4.272,0,0
-0.0008807198000000001,0.0011008472000000001,0.0009577344,7.410289999999994e-05,-0.002927934,4.273,0,0
-0.0011912008000000002,0.0022761692,0.0012839690000000003,0.00019403609999999998,-0.0034464260000000003,4.274,0,0
-0.0017601188000000002,0.0032183462000000005,0.0014053280000000002,0.0011247329000000001,-0.0034926440000000005,4.275,0,0
-0.002244602,0.0039492979999999995,0.00111515174,0.0019784539,-0.0028390138,4.276,0,0
-0.00202779,0.0036147700000000002,0.0005320977400000001,0.0023573079,-0.0010290418000000001,4.277,0,0
-0.0017756419999999998,0.0025581711999999998,0.00012169334000000003,0.003076623,0.0002850642,4.278,0,0
-0.001832292,0.0012908352,-0.00031023586,0.003525228,0.000674089,4.279,0,0
-0.00112577,-0.0006604588000000001,-0.0008364818600000001,0.002555399,0.0014857130000000003,4.28,0,0
-7.609599999999989e-05,-0.0027495588000000003,-0.001046871,0.0015318390000000001,0.0020976408000000003,4.281,0,0
0.00023797640000000001,-0.0040693048,-0.0007983262000000001,0.0008846354000000002,0.0017010548,4.282,0,0
0.00017863240000000005,-0.004669548000000001,-0.0005433078000000001,-0.0004285946,0.0012779024000000002,4.283,0,0
0.0003294654,-0.004796472,-0.0002164238000000001,-0.0016038166000000003,0.0015831258000000004,4.284,0,0
-9.814280000000001e-05,-0.0038706304000000005,0.00010865520000000002,-0.0016602422000000002,0.0009598918000000001,4.285,0,0
-0.0005271187999999999,-0.0019801904,0.0005126286,-0.001533363,-0.0006337222,4.286,0,0
-0.0002571672,-0.00016003039999999984,0.0009315458,-0.0014081308000000001,-0.0016075862000000001,4.287,0,0
-2.8466399999999982e-05,0.0016133756,0.0006831294,-0.00027987080000000015,-0.0029202478000000002,4.288,0,0
0.0001409868,0.0035872736000000004,0.00024865259999999996,0.0009409492,-0.00448512,4.289,0,0
-9.203099999999999e-05,0.005207172,-0.0003778664000000001,0.0013968198000000002,-0.0051267840000000005,4.29,0,0
-0.000524091,0.005394152,-0.0011463704,0.001719164,-0.00512981,4.291,0,0
-0.0006554627999999999,0.004963914,-0.001606273,0.0018665574000000004,-0.004937034,4.292,0,0
-0.0007247748000000001,0.004793072000000001,-0.0019998806000000005,0.0009420094,-0.0037188423999999997,4.293,0,0
-0.0008471544,0.0033921920000000005,-0.0021517946,-0.0005206626,-0.0018845503999999995,4.294,0,0
-0.0008025624000000001,0.0014206619999999998,-0.0019682966000000002,-0.0012911106,-0.0006391423999999998,4.295,0,0
-0.0006474344,0.00014292199999999986,-0.0021493346,-0.0021319000000000004,0.0007107596,4.296,0,0
-0.0007123046,-0.0013581880000000002,-0.002456298,-0.0030532640000000004,0.0022546256,4.297,0,0
-0.000622504,-0.002975352,-0.0021156686000000004,-0.0028464920000000004,0.0036675880000000003,4.298,0,0
-0.00014326060000000002,-0.0038211380000000004,-0.0017515223999999999,-0.0022188838,0.004324588,4.299,0,0
0.0007047794000000001,-0.004488540000000001,-0.0012163508,-0.0022321598000000003,0.0044103020000000005,4.3,0,0
0.0013673714000000002,-0.0048520080000000005,-0.00021004079999999994,-0.0021334158000000003,0.004101400600000001,4.301,0,0
0.0013391378000000003,-0.004088400000000001,0.0005463172,-0.0015719088000000002,0.0022068266000000005,4.302,0,0
0.0011339144000000001,-0.0029030600000000003,0.0015066138000000002,-0.0015424320000000003,-0.00034576339999999994,4.303,0,0
0.0006620984,-0.0017465100000000002,0.0028784556000000005,-0.0008980282000000001,-0.0020983614,4.304,0,0
-3.7084200000000054e-05,-0.0005503418000000001,0.0032808579999999998,0.0011705718,-0.0034492414,4.305,0,0
-0.0008935882000000001,0.0007278041999999999,0.0031461569999999997,0.0031470098000000004,-0.004348702,4.306,0,0
-0.0014233946,0.0017153282,0.003112647,0.004337920800000001,-0.004186260000000001,4.307,0,0
-0.0010812752,0.0023511342,0.002240769,0.0052980100000000006,-0.0038229460000000007,4.308,0,0
-0.0007351752000000001,0.0031410682,0.001241285,0.005435156000000001,-0.0032535886,4.309,0,0
-0.00034365059999999986,0.003569162,0.0008601772,0.0040471428,-0.0017113165999999998,4.31,0,0
0.0005924034000000002,0.003216834,0.0006399862,0.0026303521200000007,0.00012087540000000003,4.311,0,0
0.0014818514,0.0022797399999999997,0.0006234502000000001,0.0019401221200000002,0.0021793414,4.312,0,0
0.0016130658,0.00031219799999999986,0.0005385752000000001,0.00138630612,0.0045241614,4.313,0,0
0.0019268098,-0.0026370219999999997,0.0004739272,0.0008770631200000001,0.006401424,4.314,0,0
0.0021857198000000003,-0.004686462,0.001063849,0.00113415032,0.007011231999999999,4.315,0,0
0.0015446172000000004,-0.005164083999999999,0.001402047,0.001384393,0.00639981,4.316,0,0
0.0008550112000000002,-0.004502514,0.001496547,0.0008949202000000001,0.005546662,4.317,0,0
0.00033469540000000017,-0.002505584,0.0016886554,0.0007166684000000001,0.00430819,4.318,0,0
-0.00020372919999999995,-1.9972000000000045e-05,0.0010040993999999998,0.000475203,0.0022786480000000003,4.319,0,0
-0.0007241280000000001,0.001527028,-0.00022840859999999997,-0.000303617,0.0002764779999999998,4.32,0,0
-0.0007024183999999999,0.0016728400000000003,-0.0013138986000000002,-0.0006190746,-0.001177798,4.321,0,0
-0.0007843904,0.0015458538,-0.0025617046000000004,-0.0003770780000000001,-0.0029604880000000003,4.322,0,0
-0.0010770404,0.0019971018,-0.003352774,-0.000459245634,-0.004785076000000001,4.323,0,0
-0.0009674431999999999,0.0029743018,-0.003285006,-0.000679417234,-0.005411690000000001,4.324,0,0
-0.0007939783999999998,0.0038951798,-0.0028732444,-0.0007858952340000001,-0.0054619460000000005,4.325,0,0
-0.0008068877999999999,0.0045322938,-0.0020781496000000003,-0.0013150816340000001,-0.004909432,4.326,0,0
-0.00048394899999999996,0.004798488,-0.0012097918,-0.002361405434,-0.002861026,4.327,0,0
0.00029924620000000004,0.0033688098000000007,-0.000439621,-0.0033938400000000004,-0.00034639999999999996,4.328,0,0
0.00047915960000000004,0.0010846038000000002,-9.792160000000001e-05,-0.0039008460000000008,0.0015350420000000001,4.329,0,0
0.000393563,-7.632999999999972e-06,-0.00015131900000000002,-0.004377574,0.0038663280000000005,4.33,0,0
0.00043316540000000003,-0.0007708330000000001,-0.0001675272,-0.004386532,0.006004752,4.331,0,0
0.0006278066000000001,-0.002441947,-0.00036839300000000006,-0.0031129140000000005,0.006061028,4.332,0,0
0.0012964494,-0.0044380508,-0.0008455038,-0.0016665640000000002,0.0052424360000000005,4.333,0,0
0.0017564754,-0.0058915988,-0.0012959612,-0.000497096,0.004535250000000001,4.334,0,0
0.001354752,-0.006098386,-0.0013668916,0.001024158,0.002644764,4.335,0,0
0.0010853660000000002,-0.004852975999999999,-0.0015085042,0.002317862,2.890400000000017e-05,4.336,0,0
0.0011101732000000002,-0.0028378699999999997,-0.0016321862,0.002505592,-0.0013439839999999999,4.337,0,0
-0.0002294327999999998,-0.0002549300000000001,-0.0007667861999999998,0.002952054,-0.00229498,4.338,0,0
-0.0020415288,0.003182396,0.00047001580000000006,0.00364844,-0.003616192,4.339,0,0
-0.0019368782,0.005428304,0.001644194,0.00344851,-0.003988194,4.34,0,0
-0.0013791942,0.005456352000000001,0.0035189719999999996,0.003165422,-0.0033101679999999996,4.341,0,0
-0.0021421674,0.005199508000000001,0.005090866,0.002921508,-0.003083712,4.342,0,0
-0.0019277734000000002,0.004985992,0.004976682,0.0016839440000000004,-0.0026306940000000003,4.343,0,0
-0.0005832114000000001,0.0034968590000000006,0.0041627408,-7.191799999999992e-05,-0.0009450179999999999,4.344,0,0
-0.0004037946,0.0012069830000000002,0.0029355428,-0.0010344020000000002,0.00034872000000000017,4.345,0,0
-0.0006695846,-3.318100000000002e-05,0.0005729508000000002,-0.001958186,0.0013181680000000002,4.346,0,0
1.552340000000004e-05,-0.0011858370000000001,-0.0010884732,-0.0029339020000000004,0.0026956820000000005,4.347,0,0
0.0003934164000000001,-0.002395709,-0.0010671011999999998,-0.002955164,0.0032305819999999996,4.348,0,0
0.0003269424,-0.002935636,-0.0004508559999999998,-0.0022813688,0.002209818,4.349,0,0
0.0009180310000000001,-0.0037020060000000007,0.0005031860000000002,-0.001901942,0.001144486,4.35,0,0
0.0015639430000000001,-0.00478484,0.0017738500000000002,-0.0017479420000000002,0.0001486539999999999,4.351,0,0
0.0021027430000000002,-0.004982184000000001,0.0022778782,-0.0018146520000000004,-0.002048354,4.352,0,0
0.001904455,-0.003653952000000001,0.0018189076000000002,-0.0025359680000000004,-0.0040421300000000005,4.353,0,0
0.0009372930000000001,-0.001753322,0.001104591,-0.0032558772,-0.005082284,4.354,0,0
-6.974299999999993e-05,0.0009706220000000002,7.222300000000006e-05,-0.0031566704,-0.006280128,4.355,0,0
-0.0005676026000000002,0.003779088,-0.0007546250000000001,-0.0024420704000000003,-0.0072546320000000004,4.356,0,0
-0.0008287126,0.005426974,-0.0013447972,-0.0012574864000000003,-0.006433102000000001,4.357,0,0
-0.0014841056,0.00616221,-0.0017496486000000001,0.0010086076,-0.004344356000000001,4.358,0,0
-0.0017042856,0.005915780000000001,-0.001895566,0.0027897156,-0.0025274460000000005,4.359,0,0
-0.0019369716,0.0042846728,-0.002698638,0.0027796246000000003,-0.0004257560000000001,4.36,0,0
-0.0025398100000000004,0.0019314768000000002,-0.003939506000000001,0.0022085366,0.0017611200000000001,4.361,0,0
-0.0024618860000000004,-0.0003760231999999997,-0.004084620000000001,0.0018558496000000001,0.0028620720000000002,4.362,0,0
-0.001279506,-0.0025866412,-0.0034020228000000005,0.0008280718,0.0035831680000000003,4.363,0,0
-0.00020801959999999992,-0.0044461372,-0.0021035148,-0.00010717318000000007,0.004960316,4.364,0,0
0.0008081904000000001,-0.005802486,0.0003643212000000002,0.00036413221999999996,0.006044336,4.365,0,0
0.0016041524,-0.005974948,0.0023292292000000004,0.0006714896200000001,0.005958776000000001,4.366,0,0
0.0015909284000000003,-0.00557545,0.0030731606000000003,0.00024742861999999997,0.005722464,4.367,0,0
0.0017556264,-0.005634842,0.0028365606000000003,0.00036041441999999993,0.005095982000000001,4.368,0,0
0.0020566660000000004,-0.005039074,0.0015611966,0.0011799874,0.0031523972,4.369,0,0
0.002143354,-0.00323887,0.00042612060000000003,0.0014981954,0.0012714052000000003,4.37,0,0
0.0017914600000000001,-0.0012915119999999999,0.0002029226,0.0019370659999999999,0.0001814532000000001,4.371,0,0
0.001182884,0.0012717880000000003,-0.00032433080000000006,0.003279114,-0.0015593147999999999,4.372,0,0
0.0003175519999999998,0.004306268,-0.00126733,0.003790572,-0.0038563768,4.373,0,0
-0.0003847640000000001,0.006606090000000001,-0.0017580260000000002,0.0030321404000000006,-0.005391392,4.374,0,0
-0.0009009114000000001,0.008296774,-0.002592032,0.002294382,-0.0066180860000000005,4.375,0,0
-0.0010507656000000002,0.009078372000000001,-0.003310634,0.0015485219999999999,-0.007491996000000001,4.376,0,0
-0.00072798,0.008387518,-0.002777296,-0.00032811800000000007,-0.006360736200000001,4.377,0,0
-0.0004482636,0.0061517118,-0.0011830579999999999,-0.002442988,-0.0038770961999999996,4.378,0,0
-0.00019738304000000003,0.0033106498,8.526400000000015e-05,-0.0038630624000000006,-0.0016718142000000003,4.379,0,0
-9.055243999999999e-05,0.00045931179999999985,0.000366676,-0.005420612,0.0012550738,4.38,0,0
0.00037512576,-0.0021204621999999997,0.00031641600000000003,-0.006577132,0.004450475800000001,4.381,0,0
0.0009292441600000001,-0.0040393062,3.585399999999993e-05,-0.0063640979999999995,0.006179398,4.382,0,0
0.0014230037600000002,-0.005177678,-0.0005475936000000001,-0.00519937,0.00725321,4.383,0,0
0.0016870532,-0.005875724000000001,-0.0007200116,-0.0034318200000000004,0.008582870000000001,4.384,0,0
0.001413716,-0.006548000000000001,5.538240000000006e-05,-0.0008862999999999999,0.008627722,4.385,0,0
0.0008607640000000002,-0.006108354,0.0009941384000000002,0.0017730880000000004,0.006929978000000002,4.386,0,0
2.6067999999999914e-05,-0.0047917556,0.0016109544,0.003922800000000001,0.005550548000000001,4.387,0,0
-0.000881638,-0.0032200635999999998,0.001992862,0.005642686000000001,0.003671046400000001,4.388,0,0
-0.001222272,-0.0007725295999999999,0.0019939199999999997,0.006703826,0.0006276924000000001,4.389,0,0
-0.0009987301999999998,0.0020100944,0.0016044642,0.006720552,-0.0021823616,4.39,0,0
-0.0010823222000000002,0.0038593264000000007,0.0009206662000000001,0.006072452000000001,-0.0043861276,4.391,0,0
-0.0012977462,0.004923190000000001,0.0002885981999999999,0.005272380000000001,-0.0065796116,4.392,0,0
-0.0013544702,0.005841026000000001,-0.0002527006,0.0036927532000000005,-0.008080272000000001,4.393,0,0
-0.0015364362,0.005548754,-0.0008500326000000001,0.0015205532000000003,-0.0076866600000000005,4.394,0,0
-0.0013934564000000003,0.0041425558,-0.0008336926000000001,1.1597199999999978e-05,-0.006601278000000001,4.395,0,0
-0.0006489644000000001,0.0025497518000000005,-0.0004478816,-0.0013028248,-0.004825404600000001,4.396,0,0
0.00031837559999999996,0.0002117057999999996,-0.00034916000000000005,-0.0031349128,-0.0020789366,4.397,0,0
0.0009727248000000001,-0.0027777542000000004,-0.0005193832000000001,-0.004011382,0.0006951813999999997,4.398,0,0
0.0010097908,-0.0049744762,-0.0004772232,-0.0039037200000000003,0.0022400474,4.399,0,0
0.0012821952,-0.005737426,-0.00021041740000000004,-0.004237764000000001,0.0035479114,4.4,0,0
0.0013772732,-0.006214280000000001,-0.00025829900000000003,-0.004226042000000001,0.004901552,4.401,0,0
0.0006148032,-0.005940766,-4.306160000000004e-05,-0.0031155774,0.004269792600000001,4.402,0,0
0.0005049856,-0.0041701794,0.00031172460000000003,-0.0020332156,0.0030110274000000005,4.403,0,0
0.0011046636,-0.0024558244,0.00013651860000000007,-0.0010279896000000002,0.0020646628,4.404,1,1
0.0006469914,-0.0009246163999999999,0.0001595686,0.0005798224,-5.928919999999998e-05,4.405,0,0
-0.0003100546,0.0013604896,0.0013302852000000001,0.0019751404000000004,-0.0032686272,4.406,0,0
-0.00038034860000000007,0.0037218436,0.0023892842000000003,0.0024353058,-0.0053434918,4.407,0,0
-0.0008324622,0.0053499770000000006,0.0027253400000000006,0.002577556,-0.0069064726,4.408,0,0
-0.0019110262000000002,0.006636162,0.0032704308000000002,0.002652374,-0.008769042,4.409,0,0
-0.0024840680000000003,0.007233672000000002,0.002996975,0.0018253812000000001,-0.009220858,4.41,0,0
-0.0024341740000000003,0.006156808000000001,0.001604132,0.0004373132,-0.007894954,4.411,0,0
-0.002035549,0.0035538920000000003,0.00011061600000000001,-0.0005345988,-0.0059982676,4.412,0,0
-0.0012080749999999999,0.0007046259999999996,-0.000729974,-0.0011322728,-0.0037045316,4.413,0,0
0.0004620030000000001,-0.0021108520000000003,-0.0008833228,-0.0017137156,0.00020346440000000013,4.414,0,0
0.0017803150000000002,-0.004325132000000001,-0.001034145,-0.001710303,0.0043730724000000006,4.415,0,0
0.0019422949999999997,-0.004640272600000001,-0.000969408,-0.0011537348,0.007444782400000001,4.416,0,0
0.0017561394,-0.0042355146,-0.0006550378000000001,-0.0006900868000000001,0.010087262000000001,4.417,0,0
0.0015377793999999999,-0.0040012846,-0.0005599738,-0.00026433100000000003,0.011641356,4.418,0,0
0.0009646574,-0.0036731966000000003,-0.0010507298,-0.0001359622,0.01063684,4.419,0,0
0.0007370934,-0.0036793806,-0.0014333898,-0.00033868200000000003,0.008438364,4.42,0,0
0.0012085454000000002,-0.00399162,-0.0017127178000000002,-0.0003100088000000001,0.005910885200000001,4.421,0,0
0.0005382000000000003,-0.002761416,-0.002101258,8.351319999999997e-05,0.0020655072000000003,4.422,0,0
-0.000862386,-4.289200000000032e-05,-0.0014113759999999998,5.357079999999998e-05,-0.0015622488,4.423,0,0
-0.0016796360000000002,0.002112922,-0.0003530419999999999,3.7068599999999986e-05,-0.0035798088000000006,4.424,0,0
-0.0024036640000000002,0.0035411720000000004,0.00021437140000000017,0.0005102828,-0.0049741208000000006,4.425,0,0
-0.0028313760000000005,0.004758172000000001,0.0007243172000000002,0.0005838089800000001,-0.005513884000000001,4.426,0,0
-0.0017582580000000002,0.005070558,0.0012646216000000003,5.7546979999999995e-05,-0.004053356000000001,4.427,0,0
-1.2337999999999976e-05,0.0034129126,0.0010985066,-0.00046986042000000006,-0.001749788,4.428,0,0
0.0007509700000000001,0.0012242466,0.000482453,-0.00092490222,0.0006004399999999999,4.429,0,0
0.0019436700000000002,-0.00047200340000000027,0.00017521340000000005,-0.00180257642,0.00313717,4.43,0,0
0.0032836720000000005,-0.0022377674,-0.00011962379999999996,-0.002821468,0.005002474,4.431,0,0
0.002926105,-0.0035412334,-0.00023498619999999998,-0.0032222500000000003,0.005672844,4.432,0,0
0.0016993250000000002,-0.004088006,-0.00034054119999999994,-0.003124678,0.005499292,4.433,0,0
0.0009368370000000002,-0.003962604000000001,-0.0005547175999999999,-0.00288343,0.004734674,4.434,0,0
-0.0002737530000000002,-0.0029497480000000003,-0.0004654578,-0.0015747020000000003,0.0033240148,4.435,0,0
-0.0017865650000000002,-0.0015102260000000004,-0.00016964520000000002,0.00046367,0.0017415648,4.436,0,0
-0.001728434,-0.00036402799999999975,0.00013314280000000005,0.001957468,0.0006988704,4.437,0,0
-0.0010443816999999998,0.000799638,0.0006324068000000001,0.003399152,-0.0006024936,4.438,0,0
-0.0009060817,0.002600648,0.0014157108000000002,0.0049792199999999995,-0.0024083376,4.439,0,0
-0.0008526233,0.004020006,0.0018763612000000003,0.005398352,-0.0035965304000000003,4.44,0,0
-0.0009101553,0.004035098,0.0017532742000000003,0.004674132,-0.0046469064,4.441,0,0
-0.0013593693000000001,0.0034695677999999996,0.0011752122000000002,0.0037097918,-0.006042106000000001,4.442,0,0
-0.001519232,0.0034321278,0.0001417422,0.0020357798,-0.006115918,4.443,0,0
-0.000931526,0.0032563478,-0.0008299798000000001,-0.00020901220000000013,-0.004362706,4.444,0,0
-0.0002513124,0.0018597977999999997,-0.0013691832,-0.0020756642,-0.0023427300000000003,4.445,0,0
0.0005128956000000001,0.0006893037999999998,-0.00139839074,-0.0031969642,0.00011868800000000004,4.446,0,0
0.0015165996,-0.0005185159999999998,-0.0010760623400000002,-0.00400801,0.0030110939999999997,4.447,0,0
0.0022814420000000003,-0.0033576820000000003,-0.0009059663400000001,-0.003991848,0.0050197340000000005,4.448,0,0
0.0025908700000000003,-0.006152964,-0.00095545034,-0.002690286,0.005423092,4.449,0,0
0.0028761380000000003,-0.00742282,-0.00121352494,-0.0013883600000000004,0.004745788,4.45,0,0
0.003648678,-0.007841442,-0.0015582576000000002,-4.089800000000004e-05,0.003891438,4.451,0,0
0.003424156,-0.0062978140000000005,-0.0017531402,0.001933264,0.0020502780000000004,4.452,0,0
0.0015589780000000004,-0.0017011140000000005,-0.0014670322,0.0030531700000000004,-0.00045729599999999994,4.453,0,0
0.0002700300000000002,0.0030099260000000004,-0.0007201262,0.0030403480000000004,-0.0023572660000000002,4.454,0,0
-0.0006336277999999999,0.006655802000000001,-9.484080000000014e-05,0.0033852000000000005,-0.004226860000000001,4.455,0,0
-0.0024663098,0.010025752,0.0004555592,0.003214408,-0.0063387420000000005,4.456,0,0
-0.0033883598,0.011803560000000001,0.0007682622000000001,0.0018133560000000001,-0.007248078,4.457,0,0
-0.0027674318,0.010741503999999999,0.0008344356,0.0003064979999999999,-0.006754992,4.458,0,0
-0.0025899218,0.007788090000000002,0.0009511116000000001,-0.0013468780000000001,-0.0060425259999999995,4.459,0,0
-0.0022957616,0.004160972000000001,0.000948488,-0.00368963,-0.0042845306,4.46,0,0
-0.0008118136,-0.0006051680000000001,0.000884103,-0.005959356,-0.0014897905999999997,4.461,0,0
5.6976400000000006e-05,-0.005151228000000001,0.0005448516,-0.006946388,0.0006108894000000001,4.462,0,0
0.0003521164000000001,-0.008023582,-0.0001718278,-0.006916366,0.0023199174,4.463,0,0
0.0015639844,-0.010136228,-0.0010658338000000002,-0.0059877839999999995,0.0042508774,4.464,0,0
0.0024834740000000003,-0.011183750000000001,-0.0017230176000000003,-0.0035363179999999992,0.00501244,4.465,0,0
0.0021327,-0.009124976000000002,-0.0021123046,-0.00026970199999999927,0.004217243400000001,4.466,0,0
0.0018244448,-0.005735492,-0.002108056,0.0025291880000000004,0.0034918274,4.467,0,0
0.0017587368000000002,-0.0037993920000000004,-0.0013063194000000001,0.00549741,0.0023778904000000003,4.468,0,0
0.0007194448000000001,-0.0008529120000000003,-0.00029091140000000006,0.008452114,0.0003494364000000002,4.469,0,0
-0.0006840192,0.003730588,0.0005737606000000001,0.009503604,-0.0011933016000000001,4.47,0,0
-0.001117397,0.006595774,0.0013862726,0.009477202,-0.0021410450000000003,4.471,0,0
-0.00034062579999999984,0.006971034,0.0023533486,0.009130566,-0.0033266570000000002,4.472,0,0
0.00010748659999999994,0.007569862,0.0027609580000000004,0.007507912,-0.0045341,4.473,0,0
-0.0005894753999999999,0.008465710000000001,0.0025462360000000003,0.004901116400000001,-0.00474195,4.474,0,0
-0.0012871094,0.0076216,0.0023670640000000003,0.0025080124000000006,-0.0041204200000000005,4.475,0,0
-0.0017837475999999998,0.005464154,0.0018630608000000004,-0.00012413760000000006,-0.0031352282000000004,4.476,0,0
-0.0024974757999999997,0.00300763,0.0011509648000000003,-0.0032167876000000002,-0.0009806061999999998,4.477,0,0
-0.0020014782,5.564200000000028e-05,0.0006040247999999999,-0.0053116496,0.0016719477999999999,4.478,0,0
1.5798000000000895e-06,-0.00281253,0.00037144914,-0.006722782,0.0030970978,4.479,0,0
0.0012191636,-0.004803646000000001,-0.00027031486,-0.007900772,0.0041632678,4.48,0,0
0.0015205056,-0.006721940000000001,-0.00175889366,-0.007641696,0.005292086,4.481,0,0
0.0012098278000000002,-0.007354396000000001,-0.0038928356600000003,-0.005706181,0.005266098,4.482,0,0
4.198000000000396e-07,-0.005891014,-0.005531039660000001,-0.0039028008000000004,0.0041826979999999995,4.483,0,0
-0.0012367342000000003,-0.004589721000000001,-0.0054691862,-0.0024684592,0.00288523,4.484,0,0
-0.0016998420000000002,-0.0037837528000000003,-0.0038445762,-0.00033320120000000005,0.0008190839999999999,4.485,0,0
-0.00209438,-0.0015265588000000002,-0.0008012242000000002,0.0013976588,-0.001975338,4.486,0,0
-0.0019888652000000003,0.0010557912,0.0031033958000000004,0.0019634138,-0.004474458000000001,4.487,0,0
-0.0013803082,0.0028316612,0.005799751800000001,0.0025184715999999998,-0.006265232000000001,4.488,0,0
-0.0017469982000000001,0.0053165722,0.0054463440000000005,0.0031546880000000005,-0.007140896000000001,4.489,0,0
-0.0018375582,0.0075892500000000005,0.0034089820000000005,0.0026976434,-0.007625284000000001,4.49,0,0
-0.0010903366000000001,0.007978846,0.001116508,0.0017732914,-0.0069070500000000005,4.491,0,0
-0.0005479674,0.007397664,-0.0011432480000000001,0.0009194894,-0.005600648,4.492,0,0
-1.3144399999999955e-05,0.006658996,-0.0019282320000000002,-0.0005623706,-0.004008493,4.493,0,0
0.0011176196,0.004127378,-0.000989808,-0.0016269345999999998,-0.0007057970000000002,4.494,0,0
0.0023777716,0.00021507000000000015,0.00011687400000000005,-0.0015306632,0.0031258889999999998,4.495,0,0
0.003461674,-0.002200838,0.0010511320000000002,-0.0011859344000000002,0.006257205,4.496,0,0
0.003671754,-0.003935512,0.002287494,-0.0008113044,0.009280221000000002,4.497,0,0
0.002929786,-0.007059106000000001,0.002816484,-0.0004516544,0.011310922000000001,4.498,0,0
0.0018429500000000003,-0.009461528,0.0022370504,-0.0004694684,0.010443550000000001,4.499,0,0
0.0004303740000000001,-0.009271370000000001,0.0016117724000000002,-0.0009359011999999999,0.008661166000000001,4.5,0,0
-0.000753033,-0.007991812000000001,0.0008195184,-0.0012057504,0.006878072,4.501,0,0
-0.0012415056000000002,-0.006077578000000001,-0.0004035936,-0.0007534183999999999,0.004078816000000001,4.502,0,0
-0.0009712721600000001,-0.0033073276000000007,-0.0012864934000000002,4.212960000000006e-05,0.00147117,4.503,0,0
-0.00010646616,-0.0011543976000000001,-0.0010774978000000002,0.0006260796000000001,-0.00018420200000000006,4.504,0,0
0.0008357898400000001,0.0005513964,-8.314580000000013e-05,0.0012429516000000002,-0.0018783040000000003,4.505,0,0
0.00054859284,0.0028478764,0.0006570482,0.002153888,-0.004034132000000001,4.506,0,0
-0.0005808545599999999,0.004775904400000001,0.0010499704840000001,0.002416588,-0.005285612,4.507,0,0
-0.002043868,0.006134260000000001,0.0012251574840000002,0.002540392,-0.005478658000000001,4.508,0,0
-0.0034393540000000004,0.007883974,0.000762302484,0.00276737,-0.005367476,4.509,0,0
-0.003872594,0.008647600000000002,1.739468400000002e-05,0.0022526646,-0.004081598800000001,4.51,0,0
-0.003348134,0.006843770000000001,-0.000161498316,0.0013477148000000001,-0.0015335188,4.511,0,0
-0.002099482,0.004252772,-0.00016717459999999998,0.00044825499999999994,0.0003607192000000001,4.512,0,0
-0.00023233200000000002,0.002038594,-0.00042700340000000005,-0.0007328790000000001,0.0017934592000000004,4.513,0,0
0.0015751860000000001,-0.00020647800000000007,-0.0006548604000000001,-0.0020640430000000006,0.004013473200000001,4.514,0,0
0.00218753,-0.002444202,-0.0009559206000000001,-0.0025316916,0.005589966,4.515,0,0
0.0023840120000000005,-0.00441007,-0.0013263496,-0.0029760978000000003,0.00562199,4.516,0,0
0.002755684,-0.005789554000000001,-0.0017821576000000001,-0.003635044,0.005800202000000001,4.517,0,0
0.0030746460000000003,-0.006658672000000001,-0.0022921260000000002,-0.0032057900000000005,0.005507774,4.518,0,0
0.0026508840000000005,-0.006738118000000001,-0.0026401080000000004,-0.002102628,0.003113962,4.519,0,0
0.001532112,-0.0057896300000000005,-0.003062754,-0.001201602,0.0004969919999999999,4.52,0,0
0.0007869040000000002,-0.004783586000000001,-0.00346554,-0.0003981534000000002,-0.001586404,4.521,0,0
0.000195738,-0.0033332518,-0.003779222,0.0007779686000000001,-0.0042133480000000004,4.522,0,0
-0.0010881900000000002,-0.00041114579999999997,-0.003659312,0.0015994726,-0.0068076280000000005,4.523,0,0
-0.0023288020000000005,0.0022916922000000006,-0.0031041316,0.0014134348000000001,-0.00871781,4.524,0,0
-0.002448832,0.004037726200000001,-0.0026412256,0.0010363578000000002,-0.010440104,4.525,0,0
-0.0023280052000000002,0.006268152200000001,-0.0017674366,0.00030413520000000004,-0.011281942,4.526,0,0
-0.0025193212,0.008054636000000002,-0.0004375166000000001,-0.0014402788,-0.010261088000000002,4.527,0,0
-0.0023542952000000002,0.007521034,0.0005705193999999999,-0.0030351528000000004,-0.0080242652,4.528,0,0
-0.0018107692000000003,0.0059795436,0.001207395,-0.003333615,-0.004427043200000001,4.529,0,0
-0.0012004912,0.0042349696,0.002273307,-0.0032398726,0.00012550479999999986,4.53,0,0
-0.0004786619999999999,0.0012688356,0.0033206119999999997,-0.0029045906,0.0043753168,4.531,0,0
0.00019849999999999984,-0.0023521784,0.003729328,-0.0014061632000000003,0.007269532800000001,4.532,0,0
0.001364346,-0.0054028724000000005,0.004124822,-0.0002677381999999999,0.009209876,4.533,0,0
0.0029228780000000003,-0.007772086,0.004609504,-0.00023358420000000002,0.010332814,4.534,0,0
0.003862784,-0.009722640000000001,0.00440066,-0.0003022106,0.010198604000000002,4.535,0,0
0.004043402,-0.010273204,0.0033429472,-0.000145978,0.009168404,4.536,0,0
0.004068436,-0.009754213999999999,0.0021915152,0.0002742526,0.007857342,4.537,0,0
0.003525018,-0.008313014,0.0010192212,0.0013176675999999998,0.006708114,4.538,0,0
0.0023855596599999997,-0.005517664,1.6035000000000032e-05,0.0028509696,0.003852486,4.539,0,0
0.0014775754200000001,-0.0024033880000000002,-0.000473589,0.0039524645999999995,0.001480746,4.54,0,0
0.00043453541999999995,0.0006335520000000001,-0.0006820598,0.00513709,-0.0007177600000000004,4.541,0,0
-0.00057945258,0.00324768,-0.0008656998,0.0054334660000000005,-0.0022989160000000007,4.542,0,0
-0.00133657458,0.005838594000000001,-0.0011248418,0.004653552,-0.0002856740000000001,4.543,0,0
-0.00165118224,0.005993938000000001,-0.0011224804,0.00498685,0.0007083679999999996,4.544,0,0
-0.002002774,0.004112922000000001,-0.0007157124,0.006444176000000001,-0.0018812700000000004,4.545,0,0
-0.003079002,0.005172808,-0.00037318679999999996,0.007890782,-0.0055211240000000005,4.546,0,0
-0.004172662000000001,0.008654888,0.00018831219999999993,0.009371572000000002,-0.010968966,4.547,0,0
-0.004981244,0.012370454,0.0012228742000000002,0.010463874,-0.019968546,4.548,0,0
-0.005795364000000001,0.01758882,0.0017467250000000002,0.0088413172,-0.02523312,4.549,0,0
-0.0061104639999999995,0.022560280000000002,0.0016341990000000002,0.0048381752,-0.02413618,4.55,0,0
-0.0048680089999999995,0.021619962,0.0014124018,-0.0005279047999999999,-0.019014603999999997,4.551,0,0
-0.002390885,0.015112742000000002,0.0011369024,-0.0069678048000000005,-0.009786804,4.552,0,0
0.0006707950000000001,0.005105082000000001,0.0004686284,-0.0131105068,0.0017055360000000006,4.553,0,0
0.0035295530000000004,-0.006902597999999999,-0.00046877560000000004,-0.017626562,0.013127176,4.554,0,0
0.005942379,-0.017868858,-0.0010961216,-0.019923240000000002,0.022161896,4.555,0,0
0.008115778,-0.026825560000000002,-0.0018504664000000004,-0.020214920000000004,0.028875440000000002,4.556,0,0
0.00912722,-0.0326027,-0.0026831320000000004,-0.017720286000000002,0.03193664,4.557,0,0
0.008816682,-0.03421808,-0.00293966,-0.012538548,0.030179980000000002,4.558,0,0
0.007612278,-0.03179432,-0.00284343,-0.005917788000000001,0.02498533,4.559,0,0
0.0058993406000000005,-0.025963803999999997,-0.00211554,0.0009885519999999997,0.01706819,4.56,0,0
0.0030989306,-0.016636194,-0.000457314,0.007867072,0.006054210000000001,4.561,0,0
-0.0005618514000000003,-0.004393513999999999,0.0012136199999999999,0.013341137999999999,-0.00591005,4.562,0,0
-0.0034971694,0.007418346000000001,0.002320472,0.01609556,-0.01613747,4.563,0,0
-0.005099665400000001,0.017631826000000003,0.00303336,0.01717086,-0.02446946,4.564,0,0
-0.006066784000000001,0.02676005,0.0030048080000000003,0.01625704,-0.030382179999999998,4.565,0,0
-0.0065102660000000015,0.03226694000000001,0.0021188946,0.0124864924,-0.03145082,4.566,0,0
-0.005955276000000001,0.032016260000000005,0.0007758126000000003,0.006873318399999999,-0.02732618,4.567,0,0
-0.00508047,0.027828706,-0.0006295814,0.0008355183999999996,-0.020212202,4.568,0,0
-0.0034961600000000008,0.02022157,-0.0014052394,-0.005722281600000001,-0.010193461999999999,4.569,0,0
-0.0010037199999999996,0.00822285,-0.0017962587999999999,-0.011517321600000002,0.0017840980000000005,4.57,0,0
0.002035118,-0.00449111,-0.0020193286,-0.014484894000000003,0.012472678000000001,4.571,0,0
0.004711704000000001,-0.01514675,-0.0026433266000000003,-0.015117300000000004,0.020518978,4.572,0,0
0.006194016,-0.024480176,-0.0038614766,-0.014139742000000004,0.02599322,4.573,0,0
0.0066934460000000005,-0.03121076,-0.0047373446,-0.011047940000000001,0.027622960000000002,4.574,0,0
0.005153000600000001,-0.03124462,-0.0053397052,-0.006128286,0.02492604,4.575,0,0
0.0018286586000000001,-0.02462293,-0.005170702,-0.0009190259999999999,0.019434806,4.576,0,0
-0.0006280494000000002,-0.01536099,-0.0036926099999999994,0.004651334000000001,0.011783057999999999,4.577,0,0
-0.0017716114000000003,-0.003937870000000001,-0.0017486886000000002,0.010162336000000001,0.0021516979999999988,4.578,0,0
-0.0034828174,0.00907987,0.00020223540000000002,0.013811774,-0.007157402000000001,4.579,0,0
-0.004559814,0.019085190000000002,0.0022470474000000004,0.01538156,-0.014671762000000001,4.58,0,0
-0.004012912,0.023710940000000003,0.0034376154,0.015208180000000002,-0.020581968000000003,4.581,0,0
-0.0037998539999999996,0.025888820000000003,0.0040832794000000006,0.012737776000000001,-0.024034020000000003,4.582,0,0
-0.004414832,0.026439260000000003,0.005075516,0.008238606,-0.023525280000000006,4.583,0,0
-0.004225324,0.023208120000000002,0.005268552,0.003426104,-0.019759682000000004,4.584,0,0
-0.002241754,0.016761468,0.00414698,-0.001806836,-0.013792920000000002,4.585,0,0
0.0001770719999999997,0.008925428,0.0026965240000000005,-0.007357056000000001,-0.005478540000000002,4.586,0,0
0.002409704,1.5367999999999545e-05,0.001435288,-0.011349532,0.003426399999999999,4.587,0,0
0.00435216,-0.008760812,0.0003963694000000002,-0.013508702000000001,0.010906079999999999,4.588,0,0
0.0050309014,-0.015697452,-0.0003889086,-0.01439026,0.016423922,4.589,0,0
0.004880689400000001,-0.020296480000000002,-0.0012593306000000001,-0.013265981999999999,0.01981654,4.59,0,0
0.0044893294,-0.022073680000000002,-0.0021991546000000002,-0.009575312,0.019868419999999998,4.591,0,0
0.0033050714,-0.02071272,-0.0030159486000000003,-0.004802946000000001,0.016854031999999998,4.592,0,0
0.0024101241999999997,-0.017066826000000004,-0.0035138300000000003,-1.176000000000085e-06,0.012280962000000001,4.593,0,0
0.0018194787999999999,-0.01132324,-0.0035145366000000006,0.005147664,0.0063059959999999995,4.594,0,0
-0.0005273451999999999,-0.0035245400000000005,-0.0025477046000000002,0.009921406,-0.0005964240000000003,4.595,0,0
-0.0034329392000000004,0.00430656,-0.0009605866,0.012639056,-0.006815164,4.596,0,0
-0.005297067200000001,0.010911460000000001,0.0003401078,0.013350450000000002,-0.011659016000000001,4.597,0,0
-0.006396852000000001,0.016157526000000002,0.0013770178000000002,0.012882036,-0.015408586,4.598,0,0
-0.006146409400000001,0.01937854,0.0017987624000000003,0.010500436,-0.017121820000000003,4.599,0,0
-0.004698577000000001,0.01967302,0.0016475304000000003,0.006743148,-0.016128958,4.6,0,0
-0.0030355194000000005,0.017176066000000004,0.0015813204000000001,0.00279365,-0.0126897694,4.601,0,0
-0.0012246542,0.013020324000000002,0.001187162,-0.0014979100000000003,-0.007383653400000001,4.602,0,0
0.00016296579999999994,0.007395600000000001,-0.0005383059999999999,-0.005395886,-0.0006602533999999997,4.603,0,0
0.0009365952,0.0004831200000000001,-0.0027182000000000005,-0.007958206,0.006197026600000001,4.604,0,0
0.0020733448,-0.00607606,-0.00442398,-0.009467808,0.0116589446,4.605,0,0
0.0036881872000000004,-0.011318946,-0.005711972000000001,-0.0099308,0.015482996000000002,4.606,0,0
0.005160706,-0.015846624,-0.004982062000000001,-0.008616056,0.017361599999999998,4.607,0,0
0.005922498,-0.01874106,-0.0011785419999999999,-0.0059586664,0.016427788,4.608,0,0
0.005252265200000001,-0.017777728,0.00320995,-0.0033654463999999995,0.013187721999999999,4.609,0,0
0.0036474992000000003,-0.014205461400000001,0.006056930000000001,-0.0008070643999999998,0.008524430000000001,4.61,0,0
0.0016823792000000002,-0.0090216054,0.00792062,0.0023891916,0.00235357,4.611,0,0
-0.0010742588,-0.0014953454,0.00814638,0.005028909600000001,-0.004228190000000001,4.612,0,0
-0.0037270708,0.0061716746000000005,0.006002552,0.00625747,-0.009603338,4.613,0,0
-0.004958184000000001,0.0117677226,0.0034137974000000007,0.007139230000000001,-0.013742052000000001,4.614,0,0
-0.005370528000000001,0.015524316,0.0021326922000000003,0.007432546000000001,-0.01683294,4.615,0,0
-0.005634308,0.01716652,0.0012507146600000002,0.005937978,-0.01738638,4.616,0,0
-0.005015274,0.01615196,0.0005786932600000001,0.0033438060000000004,-0.015376746,4.617,0,0
-0.0034177242000000005,0.013510278,0.00013827225999999998,0.0005425900000000003,-0.0119703598,4.618,0,0
-0.0013766322000000005,0.008712788,-0.00053887314,-0.0029818300000000004,-0.0069550357999999994,4.619,0,0
0.0008036378,0.0011366080000000003,-0.0009828599400000001,-0.006875278,-0.0007551557999999994,4.62,0,0
0.0028330498000000005,-0.006530172000000001,-0.0013512684000000002,-0.009655116000000002,0.0045524242,4.621,0,0
0.003932869800000001,-0.011372492000000001,-0.001732829,-0.010837424000000002,0.008897270200000001,4.622,0,0
0.00426191,-0.014268470000000002,-0.0019064200000000002,-0.011089216000000002,0.012241544000000002,4.623,0,0
0.004244556,-0.01597634,-0.0015254460000000002,-0.009672202000000001,0.01323028,4.624,0,0
0.0036370100000000004,-0.014558960000000001,-0.0014237960000000002,-0.006069736000000001,0.012631338,4.625,0,0
0.002850318,-0.011296528,-0.0015396200000000002,-0.0019567179999999997,0.010500022000000001,4.626,0,0
0.0023590302000000003,-0.008934838,-0.00162297,0.0019902,0.006328998,4.627,0,0
0.0013758702,-0.005771968000000001,-0.002165058,0.005803898,0.000830098,4.628,0,0
-0.00012255580000000005,-0.00038006800000000033,-0.0028219,0.008474754,-0.004292962,4.629,0,0
-0.0011805278,0.004904312,-0.003093712,0.009043246,-0.008614179999999999,4.63,0,0
-0.0024663798000000006,0.00897054,-0.0027718468000000004,0.00815622,-0.012443464000000001,4.631,0,0
-0.0032307020000000002,0.01210777,-0.0023327487999999998,0.00611112,-0.014674900000000001,4.632,0,0
-0.0031853740000000004,0.013503900000000001,-0.0010117308,0.0029510960000000003,-0.014113214,4.633,0,0
-0.003448034,0.012535751999999999,0.0005037991999999999,0.00014681599999999948,-0.011636862,4.634,0,0
-0.0035954919999999996,0.010048136,0.0011805524,-0.0016779220000000005,-0.00819919,4.635,0,0
-0.0027461606,0.006525631999999999,0.0012375326,-0.0026642840000000003,-0.0025681499999999995,4.636,0,0
-0.0016103825999999998,0.0019713480000000004,0.0012039934,-0.002316772000000001,0.003970350000000001,4.637,0,0
-0.0005278605999999999,-0.002792812,0.0013051674,-0.0007088819999999999,0.009134924,4.638,0,0
0.0013529834000000002,-0.0071421639999999995,0.0009673174,0.0004421300000000001,0.013197052,4.639,0,0
0.0030784274,-0.010921628,0.0007526070000000001,0.0007040800000000002,0.01619634,4.64,0,0
0.0037545480000000003,-0.013339164,0.000815906,0.0010835416000000001,0.01636168,4.641,0,0
0.002830792,-0.013303128000000001,0.0009755824,0.0009741976,0.013897024,4.642,0,0
0.001579436,-0.011608916,0.0009186704000000001,0.00047063840000000003,0.010992146,4.643,0,0
0.0008533414000000002,-0.009085218,0.0012542124000000001,0.0010460724,0.006922458,4.644,0,0
-0.0003792986,-0.00451169,0.0019948076,0.0022617903999999998,0.0015561200000000005,4.645,0,0
-0.0015618965999999999,0.0017206300000000003,0.0021692434,0.0027015288,-0.002728498,4.646,0,0
-0.0020657806,0.006860318000000001,0.0019620374000000004,0.0031945268000000003,-0.005963802000000001,4.647,0,0
-0.0027713786,0.010504566,0.0016248694,0.0038372700000000003,-0.009313524,4.648,0,0
-0.003868092,0.013423248000000002,0.0012089934,0.002751524,-0.011801756,4.649,0,0
-0.0040566660000000004,0.013919546000000001,0.000567858,0.0012594880000000002,-0.012195038,4.65,0,0
-0.003579106,0.011783242000000003,0.0004236538,0.0005329110000000001,-0.011061548000000001,4.651,0,0
-0.0024525020000000005,0.008761818,0.00036293420000000005,-0.0010034150000000001,-0.008324482,4.652,0,0
-0.0006527519999999999,0.004874984,4.9074399999999985e-05,-0.003350039,-0.0038370039999999998,4.653,0,0
0.001137692,0.00034275799999999986,-0.0001418624,-0.004922209,0.0006298739999999999,4.654,0,0
0.0024867820000000003,-0.0035670280000000007,-0.001197831,-0.005891291,0.0038371440000000007,4.655,0,0
0.0034553500000000003,-0.006356582,-0.002618803,-0.0071126639999999994,0.006037282000000001,4.656,0,0
0.004186156,-0.008852438,-0.0031598406,-0.006874931999999999,0.00740486,4.657,0,0
0.004556546,-0.010525064,-0.0030370186,-0.004668783999999999,0.007156464,4.658,0,0
0.0040883180000000005,-0.009471814,-0.0024639958000000003,-0.002350104,0.006186184,4.659,0,0
0.0029480560000000005,-0.0071891872000000015,-0.0005129177999999999,-0.0005630179999999999,0.005245248,4.66,0,0
0.0026700740000000006,-0.0056441272000000015,0.0017916562,0.0014180920000000001,0.0033584599999999997,4.661,0,0
0.0022960320000000004,-0.0032029012000000003,0.0029025882000000003,0.002769964,0.0005698499999999996,4.662,0,0
0.0012604240000000002,-8.735520000000007e-05,0.0031998120000000002,0.00311748,-0.001991638,4.663,0,0
0.00036674400000000023,0.0008913025999999999,0.0024794310000000003,0.0038026600000000002,-0.0038887080000000003,4.664,0,0
-9.70439999999998e-05,0.0012067377999999999,0.0011267770000000002,0.004957252,-0.005461008,4.665,0,0
-0.0007147032,0.0021890138,0.00012710719999999996,0.005575468,-0.005676612,4.666,0,0
-0.0014095458,0.0024821458,-0.0006096528000000001,0.00480148056,-0.004773426,4.667,0,0
-0.001039832,0.0029457938,-0.0012008268000000002,0.0033774605600000005,-0.0036917942,4.668,0,0
-0.00012155399999999985,0.00374009,-0.001219642,0.00121214856,-0.0016959262000000002,4.669,0,0
0.0008120660000000002,0.0039127680000000005,-0.001105922,-0.0014228114400000001,0.0011936898,4.67,0,0
0.0009473532000000001,0.00400194,-0.0014414622000000002,-0.0028463974400000005,0.0038601458000000004,4.671,0,0
0.0006133978000000001,0.004267642,-0.0019003322000000003,-0.0029498222000000004,0.006395305800000001,4.672,0,0
0.0003866730000000001,0.003511716,-0.0016796282000000001,-0.0027361382,0.009064260000000001,4.673,0,0
-1.0309999999999635e-06,0.0016325200000000002,-0.0008259680000000001,-0.0019310064000000002,0.009899284000000001,4.674,0,0
-0.000146469,-0.000448148,-0.00034284539999999996,-0.0006713034000000001,0.008457130799999999,4.675,0,0
-0.00010028100000000002,-0.002602224,-0.00020273139999999986,-0.0004900822,0.0061398588,4.676,0,0
-3.931000000000041e-06,-0.004454522000000001,-4.8149399999999854e-05,-0.000650842,0.0029328068000000003,4.677,0,0
-0.00010445040000000007,-0.004406482,-7.767719999999989e-05,-0.0004123592,-0.0011094412000000004,4.678,0,0
-0.00040988640000000007,-0.002402148,-0.0004837112,-0.0003725898,-0.0042651012,4.679,0,0
-0.0010516664,-1.2000000000000292e-06,-0.000713889,-0.00032868679999999996,-0.005915624,4.68,0,0
-0.0015717364000000001,0.0023786759999999997,-0.0003241698,0.0003199040000000001,-0.006944958,4.681,0,0
-0.0014292424,0.004385836000000001,0.0005904021999999999,0.0007142642000000001,-0.007577734,4.682,0,0
-0.0013148468000000002,0.005120908,0.000987032,0.00034998140000000005,-0.007462708,4.683,0,0
-0.0010454836000000003,0.004606716,0.0009127359999999999,-0.0002973837999999999,-0.00650796,4.684,0,0
-0.0007414412000000001,0.0038914768000000003,0.0014913512000000002,-0.0015283278,-0.005804674,4.685,0,0
-0.0006190974,0.0023839828000000005,0.0016593080000000004,-0.0032849278000000003,-0.004793260000000001,4.686,0,0
-5.8097399999999984e-05,6.0028800000000004e-05,0.0013183608000000002,-0.004461164000000001,-0.0025969160000000003,4.687,0,0
0.0002239874,-0.0018552771999999999,0.0011881148000000002,-0.0038635262000000004,-0.00045017599999999994,4.688,0,0
9.146839999999993e-05,-0.0030856072000000003,0.0010645036,-0.0022688522,0.001679308,4.689,0,0
0.00020629599999999996,-0.004052668000000001,0.0005209676000000001,-0.0005217242000000002,0.0046006680000000005,4.69,0,0
0.00013788619999999987,-0.0048794500000000005,-0.0001423444,0.0016329118,0.006565382,4.691,0,0
-0.00011562080000000002,-0.004741568,-0.0008525472,0.0036867518,0.006849800000000001,4.692,0,0
0.00011573920000000003,-0.00452109,-0.0017275772000000002,0.004164742,0.007035266000000001,4.693,0,0
0.0007592230000000001,-0.00453309,-0.002360016,0.003879008,0.005882756,4.694,0,0
0.0008620908000000001,-0.0030249020000000003,-0.002870834,0.003827934,0.0031713,4.695,0,0
0.0004453288000000001,-8.370600000000001e-05,-0.002713908,0.0028684920000000003,0.0008577500000000001,4.696,0,0
-0.00013762019999999982,0.0024191840000000004,-0.0024742,0.0019748688,-0.001143036,4.697,0,0
-0.0011339342000000001,0.004433514,-0.0023233500000000005,0.0016772068,-0.003453626,4.698,0,0
-0.0024150522,0.006280694000000001,-0.00155864,0.0009988014,-0.005041328,4.699,0,0
-0.003042598,0.006416154,-0.00046303399999999986,6.625739999999999e-05,-0.005181356,4.7,0,0
-0.002492753,0.005130156,0.0007937379999999998,-0.00038794459999999997,-0.00511014,4.701,0,0
-0.0018214681999999998,0.0038287192,0.0022659979999999995,-0.0007496714,-0.004604242000000001,4.702,0,0
-0.0007374501999999999,0.0023726786000000002,0.003518,-0.0017370754000000004,-0.00273782,4.703,0,0
0.0009242358000000001,0.00047780260000000014,0.003916569999999999,-0.002324084,-0.0007511719999999999,4.704,0,0
0.0021049878000000003,-0.0017277314,0.0034271484000000002,-0.002350566,0.00038887600000000013,4.705,0,0
0.0028080728000000003,-0.0039418054,0.0024540912000000003,-0.00260438,0.0018526240000000002,4.706,0,0
0.0029599260000000003,-0.005941006600000001,0.0017110352000000001,-0.0027671740000000003,0.0033891760000000003,4.707,0,0
0.0023212056,-0.00643007,0.0008985492000000002,-0.002159398,0.003210768,4.708,0,0
0.0006036696,-0.005090766000000001,1.662320000000002e-05,-0.001262391,0.0025344844,4.709,0,0
-0.0011003164000000002,-0.0035598758000000004,-0.0001998224,-0.000584903,0.0026252524,4.71,0,0
-0.0021322704,-0.0014542952000000003,-0.00020350016,0.000923505,0.00186439932,4.711,0,0
-0.0027999664000000007,0.0009219128,-0.00038566896000000005,0.002769967,0.00015240931999999997,4.712,0,0
-0.0022808200000000002,0.0017625688,-0.00019441815999999998,0.0035968270000000004,-0.00065386868,4.713,0,0
-0.000872826,0.0017181948,2.9719840000000002e-05,0.0038261820000000005,-0.00105873308,4.714,0,0
0.00042946000000000016,0.0025142266,8.755239999999983e-06,0.003938154000000001,-0.0023402610800000003,4.715,0,0
0.001106474,0.003456018,-0.00043187180000000007,0.0031729736000000006,-0.002599962,4.716,0,0
0.0012501,0.003498762,-0.0013132670000000001,0.0016896652,-0.00143326,4.717,0,0
0.00048801,0.00318148,-0.0022556038,0.0008338617999999999,-0.0011653640000000001,4.718,0,0
-0.000219241,0.002182242,-0.004198217800000001,2.7713799999999958e-05,-0.0009834612,4.719,0,0
-0.00017866099999999993,0.0003282700000000001,-0.007065414000000001,-0.0010244162,0.0001796028000000001,4.72,0,0
-0.0003695676,-0.001612914,-0.00940528,-0.0018075818000000002,0.00041772680000000005,4.721,0,0
-0.0002829672,-0.0025740859999999997,-0.010409892,-0.0030165454,-0.0006592532000000001,4.722,0,0
0.00023750880000000005,-0.0030168700000000005,-0.008996494,-0.004776634,-0.0011567852,4.723,0,0
0.0007742878000000001,-0.0035482680000000003,-0.00359814,-0.005889322000000001,-0.0015315980000000001,4.724,0,0
0.0006318888,-0.002884741,0.0037158200000000003,-0.006201754,-0.0027390820000000003,4.725,0,0
0.00010864940000000002,-0.0017436270000000002,0.009233479999999999,-0.006500962,-0.0033194220000000003,4.726,0,0
3.9882400000000064e-05,-0.001882397,0.011905805999999998,-0.005766088000000001,-0.0030480660000000003,4.727,0,0
-3.25602e-05,-0.002104075,0.010840202,-0.003674728000000001,-0.0029447600000000003,4.728,0,0
-0.0004874326000000001,-0.0007422190000000002,0.006327133999999999,-0.0015555420000000005,-0.00238418,4.729,0,0
-0.00046844599999999997,0.0004473179999999998,0.0015593840000000002,0.0003361099999999998,-0.0008603060000000002,4.73,0,0
0.00012226319999999996,0.000940238,-0.0007072739999999999,0.0025294840000000002,0.00019698199999999995,4.731,0,0
0.0002458286,0.00228267,-0.0005347640000000001,0.004404706,0.0011924280000000002,4.732,0,0
0.0001084972,0.0033119860000000007,0.0008645020000000002,0.005357362,0.00317254,4.733,0,0
-4.0088399999999973e-05,0.0027364416000000003,0.0023816100000000006,0.005897228,0.004571218,4.734,0,0
-0.0003447034,0.0015808374000000004,0.0027883912000000004,0.006102756,0.005409234000000001,4.735,0,0
-0.0004900805999999999,0.0005832174000000002,0.0020992172000000005,0.005771102,0.00684938,4.736,0,0
-0.00036359820000000004,-0.0008651586,0.0010174988000000002,0.004948084,0.007681166,4.737,0,0
-0.00030207959999999995,-0.0019144086,-0.00016634119999999999,0.0041118000000000005,0.006941254000000001,4.738,0,0
0.000122349,-0.0020459502000000004,-0.0009806432,0.0030877658000000004,0.005683362,4.739,0,0
0.0008278404000000001,-0.0016510280000000001,-0.0016391264000000002,0.0016691638000000003,0.004130049800000001,4.74,0,0
0.0009277012,-0.0005906240000000001,-0.0028914544,0.0008178998,0.0018367557999999999,4.741,0,0
0.0007630423999999999,0.0009503620000000002,-0.004476156,0.0002520584,-0.00039772820000000004,4.742,0,0
0.0009467378,0.0022313820000000005,-0.005187652000000001,-0.0007611056000000002,-0.0018798742000000002,4.743,0,0
0.0007078540000000001,0.0026741652,-0.005200874,-0.0013227454,-0.0029187702000000003,4.744,0,0
-0.00015450800000000006,0.0025499818,-0.0043362794,-0.0013050554000000002,-0.003736364,4.745,0,0
-0.0004505708,0.0020497378,-0.0017434674000000002,-0.0017351314000000001,-0.004064642,4.746,0,0
-0.00044382700000000005,0.0015295798000000002,0.0012137046000000001,-0.0021260600000000004,-0.003933931999999999,4.747,0,0
-0.00036005100000000007,0.0008493086000000001,0.0034273626,-0.0019652940000000002,-0.003884062,4.748,0,0
7.27382e-05,0.0004913806,0.0048528786,-0.002700898,-0.0040426360000000005,4.749,0,0
0.0005610528000000001,0.00011015,0.004982254,-0.004082012,-0.0037041080000000002,4.75,0,0
0.0012721508000000002,-0.001126738,0.003488062,-0.004495456,-0.0031067714000000005,4.751,0,0
0.0018422766,-0.0020308540000000003,0.0017851180000000003,-0.004195378,-0.0025263542000000007,4.752,0,0
0.0019416786000000003,-0.0024789668000000003,0.0006622882000000001,-0.0036854978000000005,-0.0009953462000000003,4.753,0,0
0.0020103926000000004,-0.003157528,0.0004608922000000001,-0.0022507038000000004,0.0009166558,4.754,0,0
0.0017954358,-0.0030079286,0.0018786542000000003,-0.00012432580000000006,0.0012761076,4.755,0,0
0.0007572738000000001,-0.0015638346,0.0033371202000000003,0.0009183652,0.0008338270000000002,4.756,0,0
-0.0002749101999999999,-0.00040820859999999984,0.0038507330000000003,0.0012980392,0.0006774238,4.757,0,0
-0.0009511062,0.00041394540000000006,0.0035004208000000005,0.002358401,-0.00036318220000000005,4.758,0,0
-0.0017148002,0.0014756518,0.0018291008000000002,0.003321821,-0.0014594582,4.759,0,0
-0.0018140510000000001,0.0018221904000000001,-0.0007164812000000002,0.003443069,-0.0006570300000000001,4.76,0,0
-0.0013543206,0.0011247238000000003,-0.0026741832,0.003879636,0.0007831499999999999,4.761,0,0
-0.0012793286,0.0007425929999999999,-0.00365899,0.004073414,0.001394274,4.762,0,0
-0.0011097032000000001,0.000721165,-0.004083504000000001,0.0026789160000000004,0.002350202,4.763,0,0
-0.0007106234,1.8544599999999992e-05,-0.003486192,0.00084862,0.003118796,4.764,0,0
-0.00045605919999999994,-0.0008348454000000001,-0.0027074458,-0.0003302279999999999,0.0023606052,4.765,0,0
0.0001868884,-0.0014685368000000002,-0.0019667134,-0.001371964,0.0014708872,4.766,0,0
0.0009682703999999999,-0.0024257560000000003,-0.0007825574,-0.00264175,0.0012760812,4.767,0,0
0.0010385794000000001,-0.002918854,-0.00014060939999999993,-0.002880206,0.00039621119999999995,4.768,0,0
0.0008832016,-0.001988258,-5.0194199999999974e-05,-0.002232361,-0.00020538399999999997,4.769,0,0
0.0006060724,-0.0009010059999999998,-0.00014191119999999998,-0.0018329088000000001,0.00034163880000000007,4.77,0,0
-0.0002706476,0.00010835200000000009,-0.0001825812,-0.0015199082,-2.26751999999999e-05,4.771,0,0
-0.0008559516,0.0017489580000000001,-0.0007001532000000001,-0.0006427968,-0.0007460512,4.772,0,0
-0.0009239964000000001,0.003021188,-0.0011880812000000002,0.0001647632,-0.00043282019999999995,4.773,0,0
-0.0008723470000000001,0.0031629680000000004,-0.001077644,0.0007595842000000001,-0.0003162833999999999,4.774,0,0
-0.000931245,0.003323668,-0.0011907972,0.0012867080000000001,-0.0010087194,4.775,0,0
-0.001130403,0.003922438,-0.0015804496,0.0009499794,-0.0011253174,4.776,0,0
-0.0010626610000000001,0.0035828700000000006,-0.0016048156,0.00047075799999999994,-0.0009170914,4.777,0,0
-0.0009356875800000001,0.0027605506000000003,-0.0006279056,-1.0446000000001085e-06,-0.0011458388,4.778,0,0
-0.0010240291800000002,0.0026474986000000005,0.000596472,-0.0009075286000000001,-0.0010216367999999999,4.779,0,0
-0.0008216491800000001,0.0020233066,0.0017210440000000001,-0.0016901866000000002,-0.0003233307999999999,4.78,0,0
-0.00011536518000000002,0.0004390446000000004,0.00227972112,-0.0014889046000000003,0.0004992472,4.781,0,0
0.00031980282000000003,-0.0006535073999999998,0.0021964551200000003,-0.0008587766,0.0009019626000000001,4.782,0,0
0.0006563118000000001,-0.001751748,0.00161011492,-0.0004864194,0.001456481,4.783,0,0
0.001102604,-0.003283536,0.0003777625199999999,-0.0001671912,0.0021168914000000002,4.784,0,0
0.001648766,-0.0037187319999999998,-0.0005884820800000001,0.00013540520000000002,0.0018231585999999998,4.785,0,0
0.0022346700000000002,-0.0031967811999999997,-0.00044708440000000007,0.00029432420000000006,0.0015654104,4.786,0,0
0.0030853,-0.0030083332,0.0006935036,-0.00015311979999999998,0.001775541,4.787,0,0
0.0035828220000000003,-0.0022742036,0.0015292998,-0.00038605960000000005,0.0011801112000000002,4.788,0,0
0.002664474,-0.0009090735999999998,0.0018786482000000002,-0.00024816360000000007,0.00015459220000000001,4.789,0,0
0.0015405500000000003,-0.0008533195999999999,0.0023191588,-0.0005106300000000001,-0.000335487,4.79,0,0
0.00021204200000000007,-0.0017065364,0.0022010156,-0.000699753,-0.0012984128,4.791,0,0
-0.0016190879999999999,-0.0026611984,0.0014061853199999997,-0.0004038362000000001,-0.0027571068,4.792,0,0
-0.002683908,-0.003311472,0.0009335873200000001,-0.0005040372000000001,-0.003094047,4.793,0,0
-0.002675554,-0.0028599080000000004,0.00061533332,-0.0010842654,-0.003106394,4.794,0,0
-0.0025320080000000005,-0.0013940180000000006,0.00029358132000000003,-0.0009056654000000001,-0.003307402,4.795,0,0
-0.002221534,0.0002571339999999997,-8.646228e-05,-0.0003352914,-0.0022310144,4.796,0,0
-0.001737518,0.0015277898000000002,-0.0007629480000000001,0.00037452180000000006,-6.360440000000001e-05,4.797,0,0
-0.0012117919999999997,0.0013114577999999999,-0.001271334,0.00161283,0.0015420856,4.798,0,0
0.000321628,-0.0012976602000000002,-0.002202294,0.00292717,0.0026455376,4.799,0,0
0.002024646,-0.0031951922,-0.0037348900000000003,0.0037700940000000003,0.0042198156,4.8,0,0
0.0024389240000000003,-0.0025001782,-0.004160098,0.004060984,0.0048904940000000004,4.801,0,0
0.0016849060000000003,-0.0005008040000000001,-0.0033878696,0.003629248,0.0039642072,4.802,0,0
0.0004933739999999998,0.0017813140000000002,-0.0023310536000000002,0.002287432,0.0027769512,4.803,0,0
-0.0007761700000000001,0.0040794180000000005,-0.0002908936000000004,0.0009523940000000001,0.0014093171999999998,4.804,0,0
-0.0022063126,0.005409782,0.0019633084,-1.717799999999991e-05,-0.0006335948000000001,4.805,0,0
-0.0026896006000000005,0.00474495,0.0028783748000000002,-0.00105,-0.0024246108,4.806,0,0
-0.0018462442,0.0035222460000000006,0.0024433084,-0.001998138,-0.003197204,4.807,0,0
-0.0011091806,0.0032709080000000003,0.0012069203999999997,-0.002261388,-0.0038920380000000004,4.808,0,0
-0.0007222948,0.0035176100000000004,-0.00021400960000000002,-0.0022033860000000003,-0.004370378,4.809,0,0
2.586379999999994e-05,0.0028226808,-0.0011690376000000001,-0.0023938260000000004,-0.0033255456,4.81,0,0
0.0007525538,0.0020337996,-0.0013941172000000001,-0.00196048,-0.0018494575999999999,4.811,0,0
0.0009047908000000001,0.0014317374000000003,-0.0015841252,-0.000927436,-0.0011258408,4.812,0,0
0.0014131572,2.2197400000000195e-05,-0.0021726412000000004,-0.00042627400000000014,0.00020271519999999992,4.813,0,0
0.0017971694,-0.0014834486000000003,-0.0028714112,-0.0002023886,0.0017231932,4.814,0,0
0.0009312734,-0.0023359574,-0.0036680392,0.00046446120000000007,0.00168837722,4.815,0,0
-0.00045370459999999997,-0.0022328426,-0.00439487,0.0005961326,0.00111798222,4.816,0,0
-0.0009181659999999999,-0.0021433161999999998,-0.004766832,0.00012214780000000002,0.0010531732200000001,4.817,0,0
-0.0006483740000000001,-0.0022950322000000003,-0.004184524,0.0004513418,0.0003521592200000001,4.818,0,0
-0.0011183380000000002,-0.0015686674000000003,-0.0014997820000000003,0.0011261384,-0.00065587478,4.819,0,0
-0.0015029680000000001,-0.00045759299999999995,0.0024223080000000006,0.0013072126,-0.0007216388,4.82,0,0
-0.0009280180000000001,0.00010225740000000005,0.005376998000000001,0.0016344891999999999,-0.0010190858,4.821,0,0
-0.0006047130000000001,0.0011651772,0.007240914000000001,0.002377982,-0.0019940356,4.822,0,0
-0.0009751590000000001,0.0026603271999999997,0.008378958,0.0025896260000000003,-0.0024286156,4.823,0,0
-0.00048333100000000015,0.0028722217999999997,0.007457182000000001,0.00274819,-0.0019481779999999996,4.824,0,0
0.000496793,0.0030911214,0.0047553572,0.003158708,-0.0015702683999999998,4.825,0,0
0.0010553488,0.0031895214,0.0024503805999999996,0.0027053660980000003,-0.0010550599999999998,4.826,0,0
0.0017598418000000001,0.0018956884,0.0012974874000000003,0.0018331790980000004,0.0004483119999999999,4.827,0,0
0.0019702338000000003,0.0003449464,0.0005403226000000001,0.0008278690979999999,0.0015248579999999998,4.828,0,0
0.0018131197999999998,-0.000749953,-0.00045609540000000003,-0.0008060569019999998,0.0019469324000000003,4.829,0,0
0.0018554017999999999,-0.0020971030000000003,-0.0011170886,-0.002731064902,0.0024999164,4.83,0,0
0.0017190314,-0.003903633,-0.0011751420000000001,-0.003875603,0.002836636,4.831,0,0
0.0012566874,-0.004596742,-0.0012259368000000002,-0.0042992920000000006,0.0025224752,4.832,0,0
0.0008113510000000001,-0.00436037,-0.001442022,-0.004270662000000001,0.0026034052,4.833,0,0
0.00021407499999999999,-0.0037629100000000004,-0.0012139338,-0.0034146960000000005,0.0027791252000000004,4.834,0,0
-0.0005517030000000001,-0.002215316,-0.0008452182000000001,-0.0020869868,0.0011759912,4.835,0,0
-0.0009094024,0.0003531980000000001,-0.0010052002,-0.0009316120800000001,-0.0005358048,4.836,0,0
-0.0012062284,0.002222066,-0.0010233522,-0.00038770148,-0.0014511740000000002,4.837,0,0
-0.001521428,0.003121338,-0.0005376602000000001,-8.670728000000001e-05,-0.003126358,4.838,0,0
-0.0015716480000000001,0.004377256,-1.3638399999999981e-05,0.00017296452,-0.004623854,4.839,0,0
-0.001393716,0.004439798,0.00045153600000000005,0.00054123932,-0.00388190814,4.84,0,0
-0.0010685529600000002,0.002726002,0.000865909,0.0011968386000000002,-0.00211087214,4.841,0,0
-0.0007900443600000002,0.0008585200000000002,0.0005447390000000001,0.0020253580000000005,-0.0009022121399999998,4.842,0,0
-0.0002773923600000001,-0.0007102199999999999,-0.0005567609999999999,0.0022144295999999997,0.00060839186,4.843,0,0
0.0006637696400000001,-0.0029993040000000004,-0.0016838970000000002,0.0009756818000000002,0.00193124386,4.844,0,0
0.00155854764,-0.0048927499999999995,-0.0025787150000000005,-0.0015199162,0.0021159670000000003,4.845,0,0
0.0018421106,-0.004836634,-0.0028640940000000006,-0.0045516382,0.001772373,4.846,0,0
0.0017428302000000002,-0.0041261758,-0.0018183280000000003,-0.007186972200000001,0.001843461,4.847,0,0
0.001440234,-0.0038839818,-7.979599999999993e-05,-0.008804556000000002,0.0013181932000000001,4.848,0,0
0.0007865249999999999,-0.0038070238,0.0011781760000000002,-0.00886742,0.00018130719999999998,4.849,0,0
0.000527971,-0.0039879558,0.002244054,-0.007170878,0.0003941301999999998,4.85,0,0
0.000687699,-0.0049796538,0.0030126640000000004,-0.00368179,0.0009145122,4.851,0,0
0.0006885689999999999,-0.005024031799999999,0.0027279868000000002,0.00010132799999999992,0.0011462662,4.852,0,0
0.0007384741999999999,-0.0034913677999999994,0.0017979474,0.0031236420000000003,0.002696444,4.853,0,0
0.0007329713999999999,-0.0019246358,0.0010017180000000002,0.005986780000000001,0.004486204000000001,4.854,0,0
0.0004510972000000001,5.10621999999999e-05,0.0005150848,0.008196794,0.003987978,4.855,0,0
0.0001049414,0.0022651322,5.2268799999999976e-05,0.008793696,0.002857496,4.856,0,0
-9.22628e-05,0.004114452,-0.00047891000000000003,0.008428862,0.002141036,4.857,0,0
-0.0005665838,0.006233964,-0.0009354146000000001,0.008211976000000001,0.00020238400000000022,4.858,0,0
-0.001403822,0.008491646,-0.0013560292,0.007234024,-0.00143595,4.859,0,0
-0.0018886038,0.009176796000000001,-0.0017616460000000002,0.005333742800000001,-0.0015034254000000002,4.86,0,0
-0.002001028,0.007912686,-0.0018212872400000001,0.0037237878000000004,-0.0015552414,4.861,0,0
-0.002110382,0.005373150000000001,-0.0014120110400000002,0.0026351838,-0.0020356774,4.862,0,0
-0.0019415500000000002,0.0013484580000000003,-0.00072182924,0.0021618958,-0.0009089974,4.863,0,0
-0.00106538,-0.00224889,-2.509564000000006e-05,0.0026702898,0.0012268046,4.864,0,0
-0.0006559816,-0.003560520600000001,0.00044106676,0.003556837,0.002471976,4.865,0,0
-0.0008537536,-0.0032915342,0.00087975,0.0034585997399999998,0.003306718,4.866,0,0
-0.00017921760000000006,-0.0031967922,0.00082488344,0.0023876577399999997,0.003948786,4.867,0,0
0.0011398924000000001,-0.0029858022,-0.0004400443600000001,0.0007755637399999998,0.0027604560000000005,4.868,0,0
0.0017665864,-0.0012962862000000003,-0.00233512396,-0.0015161182600000002,-0.0007381359999999999,4.869,0,0
0.0015397324,0.00033792239999999997,-0.00366317236,-0.00405210226,-0.004234974,4.87,0,0
0.0013351563999999998,0.001562654,-0.00387123636,-0.0059972,-0.007819562,4.871,0,0
0.0005754144000000001,0.003439246,-0.0024097959999999996,-0.0075611540000000005,-0.012163204,4.872,0,0
-0.0006483336,0.005249638,0.0007170820000000002,-0.00968186,-0.015341046,4.873,0,0
-0.0014183476,0.005582922000000001,0.0038090600000000004,-0.011488694,-0.0163025,4.874,0,0
-0.00158967,0.005190518,0.005092229,-0.011593454,-0.0162616,4.875,0,0
-0.00152888,0.005048356,0.004352881,-0.010841818,-0.014765734,4.876,0,0
-0.001382112,0.004064674,0.002280153,-0.01056636,-0.011287726,4.877,0,0
-0.0012748756,0.0029758240000000006,-6.181699999999998e-05,-0.01011992,-0.008857646,4.878,0,0
-0.0013818936,0.0022315412000000006,-0.0017765090000000003,-0.00959294,-0.007970404,4.879,0,0
-0.0005027656000000001,0.0011554752,-0.0027539620000000004,-0.009118744,-0.005852592000000001,4.88,0,0
0.0004361464,0.0003955692,-0.0029876300000000002,-0.006786696000000001,-0.002740318000000001,4.881,0,0
0.00034378840000000006,0.0006139492,-0.0029485920000000003,-0.0009997739999999997,0.001326154,4.882,0,0
0.0005809852000000001,0.0006585892,-0.002935112,0.008255946,0.009399634,4.883,0,0
0.0012758952,-0.0007058340000000002,-0.0023622374,0.017994266000000002,0.019235892,4.884,0,0
0.0010326331999999999,-0.0026791920000000004,-0.0008749394000000001,0.024517104,0.02530008,4.885,0,0
0.0007917472,-0.005378054,0.0005582725999999999,0.026200960000000002,0.02756442,4.886,0,0
0.0017002732,-0.008971892,0.0016396666000000001,0.023477788,0.026620539999999998,4.887,0,0
0.0019632900000000003,-0.012234352,0.0023445026000000002,0.0168538058,0.020263801999999997,4.888,0,0
0.0014410612,-0.013057158000000001,0.0023206996,0.007746259799999999,0.010666898,4.889,0,0
0.0009947276,-0.009458224,0.0020707396,-0.0005890601999999998,0.0023222580000000002,4.89,0,0
0.0008087432000000001,-0.0029921639999999994,0.0013989698,-0.0065627802,-0.004097362,4.891,0,0
0.0008546752000000001,0.003608356000000001,0.0009426314,-0.0099380482,-0.008388252,4.892,0,0
0.0013815892000000002,0.008588404000000001,0.0010388994,-0.010479714,-0.008747382,4.893,0,0
0.0026607220000000003,0.01038773,0.0010348934,-0.006504227999999999,-0.003934978000000001,4.894,0,0
0.0041174516000000005,0.007714024000000002,0.0007820604000000001,0.0012795120000000004,0.0044065219999999995,4.895,0,0
0.005534942,0.0014000640000000003,0.0008025376000000001,0.007828452,0.012612542000000001,4.896,0,0
0.00617293,-0.005020756,0.001091304,0.01065081,0.017419772,4.897,0,0
0.005661217999999999,-0.009518324000000002,0.0007469776,0.010023294,0.0175164886,4.898,0,0
0.003928242,-0.01223331,0.00035463599999999997,0.005759772,0.012706688600000002,4.899,0,0
0.00082749,-0.013266340000000001,0.00018403659999999999,-0.001047788,0.004942012600000002,4.9,0,0
-0.003128324,-0.010438676000000001,-0.00020222080000000003,-0.007046448,-0.0034057474,4.901,0,0
-0.006249646,-0.0045318960000000005,-0.0010853828,-0.011155906,-0.0116190274,4.902,0,0
-0.007601406000000001,0.0008576440000000003,-0.0020384884,-0.013515182,-0.017000396,4.903,0,0
-0.008368738,0.005940244000000001,-0.0025614344,-0.012670192,-0.019177476000000002,4.904,0,0
-0.00914931,0.011064964000000002,-0.0028269080000000004,-0.008986939999999999,-0.019871540000000004,4.905,0,0
-0.009562250000000001,0.013738840000000002,-0.0026243892,-0.00393946,-0.0171463308,4.906,0,0
-0.010566866000000001,0.01281374,-0.0020387704,0.00161378,-0.010819992800000003,4.907,0,0
-0.013462172000000001,0.011473636000000002,-0.0007912023999999999,0.005963824,-0.005115652800000001,4.908,0,0
-0.015764,0.010481978,0.0007565976000000001,0.006667234,-0.00023399279999999998,4.909,0,0
-0.01593842,0.008114472000000001,0.0015372376,0.004190200000000001,0.0051420272,4.91,0,0
-0.014615378000000002,0.0048666130000000005,0.0018900048,0.0015939007999999997,0.008101638,4.911,0,0
-0.01144412,0.0026509430000000002,0.0022442160000000003,-0.00016342119999999998,0.008630016,4.912,0,0
-0.006688272,0.0013964584000000003,0.0021187940000000002,-0.0018694792000000003,0.008545386000000002,4.913,0,0
-0.0008265320000000005,-0.0005515296,0.0015749520000000001,-0.0049605372,0.0050263059999999995,4.914,0,0
0.0054411880000000004,-0.0024982776000000003,0.001420894,-0.0109781152,-0.003800494,4.915,0,0
0.011343986,-0.0040262706,0.0015980300000000003,-0.018495416,-0.012024454,4.916,0,0
0.017064388,-0.005649334600000001,0.0017131280000000004,-0.024790254,-0.014861164000000001,4.917,0,0
0.022124540000000005,-0.007342956,0.001898682,-0.02721304,-0.013316354000000002,4.918,0,0
0.024350740000000003,-0.008303194,0.0018919540000000002,-0.022114676,-0.006476673999999999,4.919,0,0
0.02426366,-0.008477252000000001,0.0018192272000000002,-0.009547595999999998,0.0051897060000000005,4.92,0,0
0.021701170000000006,-0.007650274,0.0015218424000000002,0.004567704,0.015018366000000002,4.921,0,0
0.014859476000000002,-0.0052164360000000005,0.0005086364000000002,0.016136204,0.01832358,4.922,0,0
0.006124616000000001,-0.0020090940000000003,-0.0006471396000000001,0.024657624,0.017259200000000002,4.923,0,0
-0.0015370639999999994,0.0009166200000000002,-0.0015614036000000003,0.02821276,0.013701220000000002,4.924,0,0
-0.007750824,0.00320112,-0.0025355388,0.027099320000000003,0.007660002000000001,4.925,0,0
-0.011973234,0.0044938980000000005,-0.003279232,0.025096180000000003,0.0025202460000000003,4.926,0,0
-0.012696884000000002,0.003240138,-0.003228234000000001,0.023289280000000002,8.421399999999999e-05,4.927,0,0
-0.01104164,0.00012861999999999986,-0.0028124680000000003,0.019954932,-0.002792426,4.928,0,0
-0.008576478,-0.002853006,-0.0023116726000000005,0.014701182200000003,-0.005939666,4.929,0,0
-0.004460558,-0.006009314,-0.0018980466000000002,0.007914682200000002,-0.005847628,4.93,0,0
0.0012188819999999997,-0.009094298,-0.0016681086,0.0006505021999999999,-0.0033274940000000003,4.931,0,0
0.007036186,-0.010411548,-0.0017241686,-0.0049120318,0.00046333799999999977,4.932,0,0
0.012642882000000001,-0.009621088,-0.0018974946000000002,-0.0083733478,0.006808738,4.933,0,0
0.01688812,-0.007722417800000002,-0.00168635142,-0.010294898,0.012361598,4.934,0,0
0.01807668,-0.004908539800000001,-0.0009251174199999999,-0.010932618000000002,0.012509329999999999,4.935,0,0
0.0171531,-0.0014027418,0.00029132058000000025,-0.012015318000000002,0.007254391999999998,4.936,0,0
0.014050911999999999,0.0020019202,0.0014615785800000001,-0.014466824000000001,-0.0023806280000000005,4.937,0,0
0.008673172,0.0047049042,0.00226620058,-0.016488600000000003,-0.015819828,4.938,0,0
0.002971532,0.00666395,0.0022724436,-0.016165048,-0.028983648,4.939,0,0
-0.0023640080000000003,0.008029198,0.0018131568,-0.013542780000000003,-0.03728078,4.94,0,0
-0.0075104080000000005,0.008636597999999999,0.0012464047999999998,-0.010170743999999999,-0.03988634,4.941,0,0
-0.01151282,0.00879108,0.0006556728,-0.007546194000000001,-0.03642024,4.942,0,0
-0.013354360000000001,0.008791898,0.00046673480000000006,-0.006157794000000001,-0.026610024,4.943,0,0
-0.0134425,0.008321938000000001,0.0007895712,-0.004987728000000001,-0.013376184000000003,4.944,0,0
-0.012539658,0.00735153,0.0007636432,-0.002995146000000001,-0.000801923999999999,4.945,0,0
-0.011265756,0.006124420000000001,0.00013087320000000006,-0.0004994660000000001,0.009584496,4.946,0,0
-0.009204328000000001,0.004087614000000001,-0.0003270428,0.004016123999999999,0.017951716,4.947,0,0
-0.006806855999999999,0.0009689159999999994,-0.0009848348,0.010393444,0.024183000000000003,4.948,0,0
-0.005401184,-0.0016743,-0.0016840028,0.012446558,0.02608192,4.949,0,0
-0.003986236000000001,-0.0032778,-0.001888078,0.009296456,0.023958940000000005,4.95,0,0
-0.001839332,-0.0050268560000000006,-0.0011632080000000002,0.005882568,0.019903598000000005,4.951,0,0
9.13279999999999e-05,-0.0057673180000000004,0.0002438980000000001,0.001403187999999999,0.013135018000000002,4.952,0,0
0.00110406,-0.00449223,0.0014545040000000001,-0.0057085320000000005,0.0052601620000000005,4.953,0,0
0.0018036298,-0.00320212,0.0025373440000000004,-0.012179784000000003,-0.0018020380000000002,4.954,0,0
0.0018357878,-0.0021242739999999998,0.0037148160000000006,-0.016853652,-0.009035938,4.955,0,0
4.791779999999981e-05,-0.0005147099999999998,0.003917634000000001,-0.021048940000000002,-0.015013016,4.956,0,0
-0.0021534082,0.00038910600000000007,0.0026947812000000003,-0.024256720000000002,-0.017323336,4.957,0,0
-0.0028431524,0.0006631454000000001,0.0015206812000000004,-0.02478412,-0.017247982000000002,4.958,0,0
-0.0018849262000000004,0.0018792394000000001,0.0004815532000000001,-0.021299424000000004,-0.014807602,4.959,0,0
0.0004249077999999998,0.0032534654000000002,-0.0004836184,-0.013888824000000003,-0.008214096,4.96,0,0
0.0041240918,0.0039165794,-0.001157783,-0.0036114040000000012,-0.00027029600000000016,4.961,0,0
0.0077908098,0.0045643414000000005,-0.0016208582,0.007882836,0.005783464,4.962,0,0
0.01036693,0.0042381634,-0.0018884942000000002,0.017148115999999998,0.008818526,4.963,0,0
0.012011062000000001,0.0018487494000000001,-0.0017318954,0.02132974,0.008005192,4.964,0,0
0.012248920000000002,-0.0013603966,-0.0008526118000000001,0.021965079999999998,0.004863156,4.965,0,0
0.010941200000000002,-0.0041886986000000005,0.00024133279999999997,0.02162452,0.0020916640000000005,4.966,0,0
0.0083262356,-0.0080776666,0.0015210748000000001,0.02265408,0.0016156640000000002,4.967,0,0
0.0046204576,-0.013241614000000002,0.0025878248,0.026485220000000004,0.004034124000000001,4.968,0,0
0.0003733676000000003,-0.016810028,0.0025310379999999998,0.03073916,0.008957578,4.969,0,0
-0.0038100324000000002,-0.016434266,0.0009645660000000003,0.030837600000000003,0.013590008000000002,4.97,0,0
-0.0078784924,-0.011270754,-0.0006619699999999999,0.027227244,0.016015542,4.971,0,0
-0.011547288,-0.002252474,-0.0018537000000000002,0.023539444,0.017074782000000004,4.972,0,0
-0.01420831,0.007093106000000002,-0.0034829080000000003,0.019919064,0.016658862,4.973,0,0
-0.0159968,0.013932346000000002,-0.004841092,0.018314004000000002,0.016174022000000003,4.974,0,0
-0.01834632,0.018197740000000004,-0.005279678,0.020391264000000003,0.015618542000000001,4.975,0,0
-0.02071436,0.01857518,-0.0046437318,0.02287432,0.013153748000000002,4.976,0,0
-0.021131200000000003,0.01560064,-0.0023801738000000005,0.021422780000000002,0.009314434000000002,4.977,0,0
-0.02081358,0.013887980000000001,0.0004644321999999995,0.015667934,0.004662668,4.978,0,0
-0.02100022,0.01404996,0.0020440779399999998,0.007023713999999999,0.0001465179999999999,4.979,0,0
-0.020038740000000003,0.012682798,0.00287041594,-0.004555166000000001,-0.0022556304,4.98,0,0
-0.016790474,0.0091968272,0.0028824273400000003,-0.017541786000000004,-0.0028214024,4.981,0,0
-0.01166031,0.005377727200000001,0.00181520734,-0.029596986000000002,-0.0044500484,4.982,0,0
-0.004046630000000002,0.0016625652000000005,0.0008087933400000001,-0.038363180000000004,-0.0061485824,4.983,0,0
0.00479701,-0.0025259448,0.0008888102000000001,-0.04075008,-0.005304024399999999,4.984,0,0
0.01319517,-0.0066681628,0.0016602222000000003,-0.035326500000000004,-0.002593476,4.985,0,0
0.022048324,-0.010001192,0.0016696050000000002,-0.025117270000000004,0.0020637680000000005,4.986,0,0
0.029557100000000003,-0.012482932,0.0005651470000000002,-0.013941876000000004,0.008091508,4.987,0,0
0.03332224,-0.014158570000000002,-0.000668313,-0.0038590839999999996,0.011567696,4.988,0,0
0.03397506,-0.014249174000000002,-0.0017292956000000003,0.0011647840000000003,0.008947328000000001,4.989,0,0
0.0319207,-0.012943714000000002,-0.0028328856,-0.0009556159999999998,0.002548728000000001,4.99,0,0
0.025932228000000005,-0.011445552,-0.0032720140000000006,-0.008306946,-0.006477772,4.991,0,0
0.016861748000000003,-0.009329654000000001,-0.0030740760000000002,-0.02022182,-0.018429352000000003,4.992,0,0
0.006180948000000002,-0.007208852,-0.001508172,-0.035558232,-0.0279131,4.993,0,0
-0.005130071999999999,-0.006482114,0.0010995839999999998,-0.04913132,-0.03285846,4.994,0,0
-0.013142732,-0.0052721392,0.002347242,-0.05589132,-0.03533172,4.995,0,0
-0.015842612000000002,0.0002952587999999999,0.0026915628,-0.056769320000000005,-0.0344714,4.996,0,0
-0.015194708599999999,0.0071938008,0.0027504948000000003,-0.051638500000000004,-0.02849698,4.997,0,0
-0.013624074600000001,0.010927818800000001,0.0013797628000000001,-0.0369781,-0.020500154,4.998,0,0
-0.0099448246,0.013159878800000002,-0.0005961092000000001,-0.016536139999999998,-0.012696682,4.999,0,0
-0.0059253786,0.012541832000000001,-0.0015131612,0.0034507800000000022,-0.003992822,5.0,0,0
-0.0080616866,0.007548474000000001,-0.0013246624,0.02426164,0.004432698,5.001,0,0
-0.014737570000000002,0.0023685388,-0.0007640384,0.04568262,0.010897238,5.002,0,0
-0.019535444,0.0003050307999999999,9.54396e-05,0.06170794,0.015807151999999998,5.003,0,0
-0.021352774,-0.0004537192,0.0013424456,0.07198138000000001,0.02064306,5.004,0,0
-0.021049736000000003,0.00029193880000000005,0.0027833516,0.07691354,0.023404920000000003,5.005,0,0
-0.015226134000000002,0.0015160896,0.003817908,0.07289718,0.022857920000000004,5.006,0,0
-0.0031752540000000006,-0.00023596519999999994,0.004251080000000001,0.061653440000000004,0.021247140000000005,5.007,0,0
0.011111246000000002,-0.0030553972,0.004166388,0.04825476,0.01892908,5.008,0,0
0.024148946,-0.0055277112,0.0032782668,0.03405444,0.014398152,5.009,0,0
0.033606162,-0.0074312292,0.0021759568000000004,0.020470278,0.009805260000000001,5.01,0,0
0.03988718000000001,-0.008479654,0.001149994,0.00965593,0.007394622000000001,5.011,0,0
0.04313678,-0.008686982,1.78e-06,-0.0003490299999999993,0.0044559660000000004,5.012,0,0
0.04324064000000001,-0.008868222,-0.000956268,-0.012173830000000002,-0.0003666940000000003,5.013,0,0
0.041068280000000006,-0.009574162,-0.0013727428,-0.02508453,-0.005661706000000001,5.014,0,0
0.037140320000000004,-0.010051130000000002,-0.0018362728000000002,-0.034848928,-0.010174934,5.015,0,0
0.03127688,-0.009416726,-0.002823042,-0.0388031,-0.012516290000000001,5.016,0,0
0.023840608,-0.0068653740000000005,-0.003592504,-0.03803086,-0.011846794,5.017,0,0
0.015158794000000001,-0.0025416540000000004,-0.0037066160000000003,-0.03405466,-0.010151292000000001,5.018,0,0
0.004790274000000001,0.0041127460000000005,-0.003670388,-0.0266802,-0.007559219999999999,5.019,0,0
-0.006024226000000001,0.010392966,-0.0032876098,-0.019065386,-0.0025003840000000005,5.02,0,0
-0.018066206,0.014184194,-0.0021848320000000003,-0.015717406,0.00280369,5.021,0,0
-0.03176973400000001,0.0171429,-0.0011733674,-0.013930366000000001,0.00535561,5.022,0,0
-0.04460602000000001,0.01897548,-0.0006316420000000001,-0.010710684000000002,0.005861504000000001,5.023,0,0
-0.05485674000000001,0.01838898,-0.00037771440000000005,-0.007094964,0.004447452000000001,5.024,0,0
-0.061928620000000004,0.0167569,-0.0005517186000000001,-0.003224338,-0.0008651240000000001,5.025,0,0
-0.06421938,0.0154907,-0.0005472888,0.0021090820000000004,-0.00618648,5.026,0,0
-0.060883740000000006,0.013321057999999998,0.0004170086000000001,0.007443842000000001,-0.00663134,5.027,0,0
-0.05430926000000001,0.01022928,0.0017020772,0.01139584,-0.0014424959999999988,5.028,0,0
-0.04424854000000001,0.006311810000000001,0.0027671336000000004,0.01308202,0.006716604000000001,5.029,0,0
-0.0309495898,0.0010482900000000003,0.0035415196000000006,0.011625952000000002,0.014678524,5.03,0,0
-0.016987521800000002,-0.00451007,0.0036683560000000002,0.008350078,0.018835380000000006,5.031,0,0
-0.002630741799999999,-0.009261648,0.0029357082,0.00442671,0.014876339999999998,5.032,0,0
0.0123038182,-0.013418570000000001,0.0020303156,-0.00189909,0.00312546,5.033,0,0
0.025701518200000002,-0.015923660000000003,0.0014671416,-0.011619649999999999,-0.012457740000000002,5.034,0,0
0.036406748,-0.01541494,0.0009612717999999999,-0.019930882,-0.025943380000000002,5.035,0,0
0.046163800000000005,-0.013189458000000001,0.00015093179999999993,-0.025375848,-0.03519966000000001,5.036,0,0
0.05397586000000001,-0.010737276,-0.0007089084000000001,-0.02853538,-0.0376039,5.037,0,0
0.05626116,-0.007579126,-0.0012686658000000003,-0.024559576,-0.030187758,5.038,0,0
0.05122618000000001,-0.0037497399999999997,-0.0015815502,-0.012101056,-0.016325278,5.039,0,0
0.04083260200000001,-0.000947962,-0.0011711164,0.0016637439999999991,-0.0026374779999999995,5.04,0,0
0.027396186000000003,0.000606504,-0.0005982296,0.014677324000000002,0.007243122,5.041,0,0
0.012094826000000001,0.0019615860000000004,-0.0004261096,0.028497404,0.014093082,5.042,0,0
-0.0011930139999999992,0.0024810200000000004,-0.0007279016000000001,0.038809500000000004,0.017799000000000002,5.043,0,0
-0.007954898,0.001559488,-0.0014326532,0.043741440000000006,0.01843498,5.044,0,0
-0.0082519514,0.00068899,-0.0021672472000000003,0.04467378000000001,0.01757084,5.045,0,0
-0.0049842014,-0.000490176,-0.0025509680000000002,0.04166032,0.018647379999999998,5.046,0,0
-0.0003058614000000003,-0.002980834,-0.002503884,0.034005860000000006,0.020065279999999998,5.047,0,0
0.0030263126000000004,-0.005283758,-0.0026496160000000005,0.024297756,0.018616840000000003,5.048,0,0
0.0023447965999999995,-0.00593984,-0.0028406560000000004,0.014454523800000002,0.016717700000000002,5.049,0,0
-0.0016471519999999994,-0.0051670380000000005,-0.002922162,0.0057608998,0.01501477,5.05,0,0
-0.007636766,-0.002289260000000001,-0.0027783532,-0.0011295402000000003,0.008785114,5.051,0,0
-0.013903285999999999,0.0027455939999999996,-0.0019342672000000002,-0.0094626802,-0.0032562059999999993,5.052,0,0
-0.01519419,0.00677538,-0.0004188191999999999,-0.0200416162,-0.014621766000000001,5.053,0,0
-0.010081009999999998,0.0075841395999999995,0.0010369048000000002,-0.028873483999999998,-0.023245746,5.054,0,0
-0.00357365,0.0054564716,0.0020584468,-0.03223,-0.029486356000000002,5.055,0,0
0.00155131,0.0015948935999999993,0.00292207,-0.029695178800000003,-0.026760874000000004,5.056,0,0
0.004892058,-0.0031957864,0.003595606,-0.018537058800000002,-0.012414693999999997,5.057,0,0
0.0038421320000000003,-0.0085817124,0.00352226,0.0001813011999999975,0.005333266000000001,5.058,0,0
-0.0020468880000000006,-0.011260124000000002,0.0024800639999999997,0.0160124212,0.021355946,5.059,0,0
-0.008329088,-0.007879616000000002,0.00099458,0.020472973199999998,0.033482426,5.06,0,0
-0.011008044000000002,-0.003135998,-0.0006579580000000002,0.014507371999999998,0.03495306,5.061,0,0
-0.0104082926,-0.0007976020000000003,-0.002157542,0.002265151999999996,0.025664860000000005,5.062,0,0
-0.0082595966,0.0013663400000000002,-0.0028822544,-0.013395788000000002,0.01235696,5.063,0,0
-0.0045032406,0.0017747399999999995,-0.0026434468,-0.028042688000000003,-0.003336939999999999,5.064,0,0
8.352140000000038e-05,-0.0017980700000000006,-0.0019035994,-0.036725,-0.0194661,5.065,0,0
0.0031035834,-0.005882144000000001,-0.0017724034,-0.037305920000000006,-0.028949120000000002,5.066,0,0
0.004018062,-0.007482064,-0.0027527814000000003,-0.03308996,-0.0300401,5.067,0,0
0.004032440000000001,-0.005950800000000001,-0.0034114770000000004,-0.026709242799999998,-0.027153756,5.068,0,0
0.002949948000000001,-0.0014933000000000008,-0.0030070646,-0.017874416799999997,-0.021361304,5.069,0,0
0.000584128,0.0032974079999999995,-0.002089744,-0.0101979128,-0.014774024,5.07,0,0
-0.0016864700000000002,0.007857862,0.0001512900000000001,-0.0067311128,-0.013749224,5.071,0,0
-0.00337884,0.012683626,0.0035411139999999997,-0.0083348728,-0.020201124,5.072,0,0
-0.0048495660000000005,0.01611708,0.006141942,-0.01696959,-0.032171348,5.073,0,0
-0.005481434,0.01629368,0.007364852000000001,-0.026480576,-0.04331372,5.074,0,0
-0.0061264760000000005,0.013676928,0.007496878,-0.0249370942,-0.04502230000000001,5.075,0,0
-0.008975304,0.010867736,0.006425982,-0.010233654200000001,-0.032616479999999996,5.076,0,0
-0.012100951999999998,0.00846342,0.0037292820000000004,0.013599545800000005,-0.0062855600000000025,5.077,0,0
-0.013653404000000001,0.005528614000000001,-0.0004298199999999998,0.04220058580000001,0.02706934,5.078,0,0
-0.015688979999999998,0.003428726,-0.005122958,0.0661267858,0.05618074000000001,5.079,0,0
-0.01726664,0.0022898579999999997,-0.009131186000000001,0.07748934,0.0738153,5.08,0,0
-0.015424460000000003,-0.00038177000000000024,-0.011314412000000001,0.0749571,0.07887352,5.081,0,0
-0.012497904000000002,-0.002435784,-0.00981821,0.06128812,0.07086846000000001,5.082,0,0
-0.009458342000000002,-0.0017341940000000003,-0.0036835699999999993,0.04251285800000001,0.05412732000000001,5.083,0,0
-0.0032583020000000002,-0.0011422140000000001,0.00475253,0.024318198,0.03733299000000001,5.084,0,0
0.004850138,-0.0006403480000000003,0.01234503,0.008703737999999999,0.023221483999999997,5.085,0,0
0.012432097999999999,0.0010012479999999997,0.016783952,-0.005316042000000001,0.009450964000000003,5.086,0,0
0.017977762,0.0015473826,0.016580424,-0.019175362,-0.0037081159999999996,5.087,0,0
0.02059948,0.0006026006,0.011373024,-0.0314962,-0.013695676,5.088,0,0
0.021094520000000002,0.00019997059999999999,0.003333024,-0.039832440000000004,-0.021798246000000004,5.089,0,0
0.020071980000000003,0.0005268720000000001,-0.004507496,-0.04730614,-0.03024504,5.09,0,0
0.01745746,0.00111713,-0.010247656,-0.054280880000000004,-0.03590788,5.091,0,0
0.013378792,0.0021484554,-0.01314962,-0.05421202,-0.036031320000000006,5.092,0,0
0.00858217,0.0024928173999999997,-0.013070178000000002,-0.046756320000000004,-0.031611759999999996,5.093,0,0
0.003205782,0.0013519314000000004,-0.009938612000000001,-0.034635986,-0.023372866000000003,5.094,0,0
-0.003370678,-0.0003069240000000005,-0.005116226000000001,-0.016587565999999998,-0.011664906000000001,5.095,0,0
-0.009172837999999999,-0.0032193380000000004,-2.6529999999999436e-05,0.0037626940000000013,0.0012494940000000003,5.096,0,0
-0.009556120000000001,-0.009551368000000001,0.0041241920000000005,0.018957674,0.011766154000000001,5.097,0,0
-0.006771862,-0.016147132,0.0061847479999999995,0.026799254,0.017079254000000002,5.098,0,0
-0.005262868,-0.017236136000000003,0.0061709139999999996,0.026983054,0.0162309135,5.099,0,0
-0.0025351,-0.015566739199999999,0.005019242,0.020289337999999997,0.010743653500000002,5.1,0,0
0.0007533819999999999,-0.013813875200000002,0.0031071796000000005,0.011957427000000001,0.0022032335000000004,5.101,0,0
0.00151071,-0.0084473944,0.001385045,0.007472647000000001,-0.005774726500000001,5.102,0,0
0.001832348,-0.00041351439999999995,0.001160603,0.009658227000000002,-0.0095234965,5.103,0,0
0.003216808,0.0061127536000000005,0.001626381,0.016919873000000002,-0.0096201094,5.104,0,0
0.004761339999999999,0.0100236448,0.0018485110000000002,0.024615489000000004,-0.006709301599999999,5.105,0,0
0.005394484,0.014681840799999998,0.0021674434,0.030756280000000007,-0.0013213336000000005,5.106,0,0
0.004386446,0.0199812,0.002809124,0.033047240000000005,0.0019184943999999999,5.107,0,0
0.003056424,0.01980176,0.002862004,0.029883680000000003,0.0007389043999999998,5.108,0,0
0.0022357896,0.01414525,0.002385948,0.02487692,0.00041285579999999995,5.109,0,0
0.0015046535999999999,0.00763551,0.0017843978000000001,0.020528420000000002,0.0027724680000000006,5.11,0,0
0.0014829376,-0.0007072699999999994,0.0007236918000000001,0.01759116,0.005624980000000001,5.111,0,0
0.0011545196,-0.010733590000000001,-0.0011028982,0.01644268,0.010176012000000002,5.112,0,0
-0.0018481524000000002,-0.01723389,-0.0032809982000000003,0.01501877,0.017497652000000002,5.113,0,0
-0.007143824000000001,-0.021427019999999998,-0.005316156200000001,0.01222628,0.02422556,5.114,0,0
-0.012745048000000002,-0.02475932,-0.00780311,0.00847429,0.026867259999999997,5.115,0,0
-0.016532338,-0.02371732,-0.00986879,0.0022162899999999992,0.02548928,5.116,0,0
-0.016435392,-0.02068522,-0.010203506000000001,-0.00624153,0.02124689,5.117,0,0
-0.013120014000000001,-0.016707424,-0.008188448000000001,-0.01356006,0.013139509999999998,5.118,0,0
-0.008892116000000002,-0.009402744000000001,-0.00443737,-0.01990777,0.0021494899999999987,5.119,0,0
-0.004737986,-0.0014496440000000004,0.00042413,-0.02609718,-0.00781889,5.12,0,0
-0.0014876280000000002,0.0031021300000000007,0.004636456000000001,-0.032125,-0.01842135,5.121,0,0
-0.00014728600000000016,0.004103320000000001,0.005877534,-0.038660520000000004,-0.03167416000000001,5.122,0,0
0.001698696,0.0024341639999999995,0.0056095934000000005,-0.045486040000000005,-0.04477664,5.123,0,0
0.006792777999999999,-0.0011455420000000003,0.0056302594000000004,-0.05168734,-0.055008999999999995,5.124,0,0
0.012119728,-0.0030907800000000004,0.0058154794,-0.05514960000000001,-0.06232992,5.125,0,0
0.01527607,-0.002623826,0.0062287334,-0.054624740000000005,-0.06459596000000001,5.126,0,0
0.0178087,-0.0007339640000000001,0.0081833614,-0.05071904000000001,-0.056864120000000004,5.127,0,0
0.01998906,0.000640158,0.009400862000000001,-0.043154580000000005,-0.04002594200000001,5.128,0,0
0.020941060000000004,-0.002205456,0.0074650746000000014,-0.029670688,-0.019968982000000003,5.129,0,0
0.021286680000000002,-0.008815578000000001,0.0039649786,-0.012447468000000003,-0.0012272820000000014,5.13,0,0
0.018733636,-0.011856466,0.0001354066,0.002761671999999998,0.012942298000000001,5.131,0,0
0.011068816000000002,-0.007788418,-0.0038840214,0.016654232,0.019207518000000003,5.132,0,0
0.0034827560000000005,-0.0013389399999999985,-0.0090719354,0.031563492000000005,0.019719530000000002,5.133,0,0
-0.0015311951999999998,0.010436740000000002,-0.014659128,0.04464278,0.01948065,5.134,0,0
-0.0066011332,0.03086624,-0.018401632,0.05355610000000001,0.02045209,5.135,0,0
-0.0084796812,0.04896002000000001,-0.01988852,0.0586273,0.02460293,5.136,0,0
-0.0050122532000000004,0.05698536,-0.0197,0.059286580000000005,0.03151327,5.137,0,0
-0.0024852812000000003,0.060155719999999996,-0.016816314000000002,0.05229152,0.03594644,5.138,0,0
-0.00472621,0.0610703,-0.010542705999999999,0.035592458,0.034478159999999994,5.139,0,0
-0.007566012,0.054507360000000005,-0.000967665999999999,0.014758238000000002,0.03030462,5.14,0,0
-0.006035784,0.04019262,0.011237834,-0.0026960620000000017,0.0262134,5.141,0,0
-0.0047139880000000006,0.030173400000000003,0.021147194,-0.016591662000000004,0.0212873,5.142,0,0
-0.008862479999999999,0.02812964,0.025749808,-0.026639542000000002,0.01853006,5.143,0,0
-0.01115638,0.021159145999999997,0.026898016,-0.03005448,0.01933564,5.144,0,0
-0.009418568,0.008870385999999997,0.023894254,-0.02936842,0.017204700000000003,5.145,0,0
-0.010459234000000001,-0.0008399939999999993,0.01546176,-0.02805128,0.010420500000000001,5.146,0,0
-0.010610936,-0.014043074,0.0062118600000000005,-0.0297094,0.0030631199999999995,5.147,0,0
-0.004563872,-0.033592154,0.0005010200000000005,-0.033467620000000003,-0.00553814,5.148,0,0
0.0034803480000000003,-0.05279974,-0.003109484,-0.03149022,-0.015559680000000001,5.149,0,0
0.00475248,-0.0616338,-0.006025308,-0.0238899,-0.020924480000000002,5.15,0,0
0.0008484499999999997,-0.05883298000000001,-0.0075572140000000005,-0.01408152,-0.020469548000000004,5.151,0,0
0.0014879140000000001,-0.055611959999999995,-0.007742218,0.0033003200000000016,-0.018776387999999998,5.152,0,0
0.00294509,-0.050796980000000005,-0.006836844,0.02488966,-0.01542724,5.153,0,0
-0.0018699540000000005,-0.03613662000000001,-0.004351868,0.035631140000000006,-0.010457820000000001,5.154,0,0
-0.0036569780000000004,-0.024388652,-0.001203782,0.03521122,-0.007647986,5.155,0,0
0.0036756820000000004,-0.027400512000000002,0.001020336,0.0300353294,-0.007249706000000001,5.156,0,0
0.004993276,-0.025477252,0.0016684859999999996,0.017601509400000003,-0.006520980000000001,5.157,0,0
-0.0032692040000000004,-0.011680031999999996,0.0011890219999999999,-5.519060000000204e-05,-0.005894068000000001,5.158,0,0
-0.00918614,-0.0006752119999999962,5.159399999999959e-05,-0.0155354906,-0.006642348000000001,5.159,0,0
-0.01147536,0.0104314,-0.0027227140000000006,-0.026625610600000002,-0.006651812000000001,5.16,0,0
-0.01597211,0.02590728,-0.006653752000000001,-0.03252436,-0.005108502400000001,5.161,0,0
-0.01632517,0.027303419999999995,-0.008878738,-0.0319299,-0.0017274684000000004,5.162,0,0
-0.005511329999999998,0.007174159999999999,-0.010254668000000002,-0.02796568,0.0041000116,5.163,0,0
0.002263806,-0.010796820000000002,-0.013515528,-0.020708102,0.010658851600000002,5.164,0,0
0.0022893059999999996,-0.018107222000000003,-0.014609880000000002,-0.006697942,0.0175563216,5.165,0,0
0.0068093960000000005,-0.023278901999999997,-0.010520486,0.010938978000000002,0.023838860000000003,5.166,0,0
0.013939296,-0.022034202,-0.0048921860000000015,0.027936198000000002,0.025727560000000003,5.167,0,0
0.013335236,-0.009958522000000001,0.00043219400000000033,0.045091538,0.022550088000000003,5.168,0,0
0.013362774,0.0023207180000000003,0.0041927876,0.06058176,0.017702453200000003,5.169,0,0
0.018428174,0.00541146,0.0025246676,0.06951721999999999,0.0126440392,5.17,0,0
0.015693116,0.0028614609399999994,-0.0035231464,0.07099950000000001,0.007663567200000001,5.171,0,0
0.006954482,-0.0003368590599999999,-0.0080092464,0.06679988,0.0043375772,5.172,0,0
0.00012060200000000047,-0.00286789906,-0.0083212464,0.05952834,0.0028390248,5.173,0,0
-0.003168972,-0.00639788306,-0.003337379999999999,0.04991072,0.0024215196000000002,5.174,0,0
-0.0027543639999999996,-0.00702296306,0.0067608400000000015,0.035530812,0.0014872496,5.175,0,0
-0.0015919099999999998,-0.001748024,0.01580016,0.019805172000000003,-0.0008121684,5.176,0,0
0.00017474399999999968,-0.000577864,0.02075194,0.009106778,-0.0026929104,5.177,0,0
0.004439723999999999,-0.004960544000000001,0.023167200000000002,0.0003071980000000007,-0.00412169,5.178,0,0
0.003490463999999999,0.0007773000000000007,0.02004074,-0.010164082000000001,-0.005999170000000001,5.179,0,0
-0.003970484,0.013244520000000003,0.0107025,-0.016375094,-0.007012404,5.18,0,0
-0.0074203,0.016835160000000002,0.00077172,-0.020270954,-0.007996836,5.181,0,0
-0.008931244,0.021859262,-0.006214719999999999,-0.031297240000000004,-0.011691284,5.182,0,0
-0.010317544000000001,0.032364508,-0.010883106000000002,-0.04575132000000001,-0.01657964,5.183,0,0
-0.005268082,0.028225532000000008,-0.012678428000000002,-0.054089040000000005,-0.02034112,5.184,0,0
0.004380338000000001,0.009033632,-0.008774836000000001,-0.05503236,-0.023599082,5.185,0,0
0.008801358,0.0017686880000000005,0.0010464440000000005,-0.04938027200000001,-0.024016020000000003,5.186,0,0
0.0037389020000000005,0.011767646,0.010300264,-0.036421884,-0.018771356,5.187,0,0
-0.003538837999999999,0.02078646,0.01524673,-0.020863302000000004,-0.011687712,5.188,0,0
-0.00756332,0.025045176,0.018366712000000004,-0.010641562000000002,-0.0059603858,5.189,0,0
-0.01290902,0.028790242,0.016445898000000004,-0.010849602,-0.0008080678,5.19,0,0
-0.016598326,0.028395886000000002,0.006092517999999998,-0.02067613,0.0020970322000000005,5.191,0,0
-0.011750346,0.019542994,-0.008367182,-0.034922758,0.0019452922,5.192,0,0
-0.0049276680000000005,0.008271256,-0.020429582,-0.048419420000000005,0.00118021,5.193,0,0
-0.0019435160000000002,0.0005537160000000001,-0.025035074,-0.058850400000000004,-0.0002858002000000002,5.194,0,0
-0.0013160040000000002,-0.0037244899999999996,-0.019081212,-0.06211030000000001,-0.0042202182000000005,5.195,0,0
-0.000455118,-0.00898245,-0.005120851999999999,-0.05440522,-0.0080567782,5.196,0,0
0.00015974200000000004,-0.017099798000000003,0.009638848000000002,-0.040324663999999996,-0.010009646200000001,5.197,0,0
0.002127124,-0.02623988,0.020284028000000003,-0.023543304,-0.011582644,5.198,0,0
0.007835932,-0.03571962000000001,0.022762314000000002,-0.004773724000000002,-0.01229592,5.199,0,0
0.01460956,-0.04267804,0.014547554,0.012989156000000002,-0.010725060000000002,5.2,0,0
0.016833960000000002,-0.04246628,-0.0001294459999999992,0.028439095999999997,-0.006349224,5.201,0,0
0.012548280000000002,-0.03238524,-0.013537466000000001,0.03926124,-0.0017839999999999996,5.202,0,0
0.007451140000000001,-0.01685404,-0.022106106000000004,0.03957186000000001,0.0009844380000000007,5.203,0,0
0.0019284120000000004,0.004471840000000003,-0.026637980000000002,0.03388411400000001,0.004080844,5.204,0,0
-0.005141196000000001,0.02704878,-0.025428708,0.02727988,0.007307292000000001,5.205,0,0
-0.00822707,0.0398965,-0.016502365999999997,0.015176030000000004,0.007240922000000001,5.206,0,0
-0.006835972000000001,0.04322856,-0.001784306000000002,0.004915634,0.00491336,5.207,0,0
-0.0061030519999999994,0.03686254800000001,0.013124014,0.008500514,0.0025496019999999998,5.208,0,0
-0.004263464000000001,0.021036188,0.020493254,0.02271574,-0.001311484,5.209,0,0
0.00043682400000000015,0.0059226680000000025,0.020118122000000002,0.036886754,-0.004195276,5.21,0,0
0.0038570180000000003,-0.007345292,0.016980884,0.050522064000000005,-0.0036970200000000005,5.211,0,0
0.006222544,-0.017359212,0.008284998000000002,0.06922372000000002,0.0001499819999999999,5.212,0,0
0.008212655600000002,-0.012402739999999999,-0.007675682,0.09078433999999999,0.009549958,5.213,0,0
0.0082870556,-0.004389615999999999,-0.021357941999999998,0.10768964,0.022627178,5.214,0,0
0.0066436796000000015,-0.0031212899999999997,-0.027432822,0.11859070000000001,0.033026042000000005,5.215,0,0
0.0032247836000000004,0.0014917460000000006,-0.025402694,0.12211896,0.037859500000000004,5.216,0,0
0.0004497996000000005,0.005026088000000001,-0.013093208000000002,0.10725142000000001,0.037614800000000004,5.217,0,0
-0.0021880520000000007,0.001899736,0.006234652000000002,0.07068349999999998,0.0315068,5.218,0,0
-0.007174352000000001,-9.902200000000004e-05,0.025889672000000002,0.0239082,0.021742048000000003,5.219,0,0
-0.007595792,-0.003971648,0.038196452,-0.022492999999999996,0.0121866,5.22,0,0
-0.0038539560000000004,-0.012210824,0.036281092,-0.06696476000000001,0.0038045500000000007,5.221,0,0
-0.002565290000000001,-0.020189386,0.022774932,-0.10739122000000001,-0.0048847100000000004,5.222,0,0
-0.0033804300000000007,-0.023876573999999998,0.007189131999999999,-0.1417475,-0.013573870000000002,5.223,0,0
-0.00513371,-0.0171474,-0.006843628000000001,-0.16819720000000002,-0.019663818,5.224,0,0
-0.005331194000000001,-0.009056560000000002,-0.017141148000000002,-0.18220980000000003,-0.025668090000000005,5.225,0,0
-0.004210193999999999,-0.00555948,-0.020955380000000003,-0.18241880000000002,-0.03071286,5.226,0,0
-0.00317855,-0.0034085,-0.016210670000000003,-0.16549408,-0.0322799,5.227,0,0
0.00013269000000000074,-0.00393876,-0.00917583,-0.12969250000000002,-0.03370144,5.228,0,0
0.005470764,-0.0068725999999999995,-0.006364228,-0.08873774,-0.03629152,5.229,0,0
0.005328470000000001,-0.00471612,-0.0007260520000000006,-0.05707758000000001,-0.038655100000000005,5.23,0,0
0.0031882720000000002,0.0015524259999999987,0.005773672,-0.02798346,-0.039952680000000004,5.231,0,0
0.004878454000000001,0.012800506,0.006604642,0.00317948,-0.037962560000000006,5.232,0,0
0.0011388739999999998,0.037487205999999995,0.007838722,0.02888714,-0.029886011200000003,5.233,0,0
-0.0027235999999999996,0.060705206000000005,0.013426140000000001,0.05187578,-0.0174493312,5.234,0,0
-0.0006428459999999999,0.074011746,0.013593430000000002,0.07862162,-6.201120000000164e-05,5.235,0,0
-0.004141288,0.08415436,0.006433566000000002,0.10286010000000001,0.0213186888,5.236,0,0
-0.00846124,0.08730682000000001,-0.0019780940000000006,0.11596864000000001,0.0412803088,5.237,0,0
-0.004114548,0.07850810000000001,-0.012053294,0.11959240000000002,0.05838204000000001,5.238,0,0
-0.003648468,0.06496316,-0.020407694,0.11709384,0.07101262000000001,5.239,0,0
-0.006571048000000001,0.05126916,-0.02261514,0.10837314,0.07658986000000001,5.24,0,0
-0.00028776800000000075,0.041514300000000004,-0.018957434000000002,0.0950665,0.07354888000000001,5.241,0,0
0.005710692,0.04009156,-0.014069538000000001,0.0790027,0.06344008,5.242,0,0
0.005745018,0.038345920000000006,-0.008401972,0.0619965,0.048550220000000005,5.243,0,0
0.006210152,0.03681746,-0.0003903719999999991,0.04472347000000001,0.030078364,5.244,0,0
0.002708112,0.040644820000000005,0.011897228,0.024335990000000002,0.010523264000000001,5.245,0,0
-0.005737768000000001,0.040870000000000004,0.025546742000000004,0.001216130000000001,-0.0070061559999999995,5.246,0,0
-0.011770608000000002,0.027891500000000003,0.030337106000000003,-0.020354169999999998,-0.021979276,5.247,0,0
-0.013287176,0.005007980000000002,0.028994047,-0.03736609,-0.035019176,5.248,0,0
-0.010006049999999999,-0.025650680000000002,0.023740769000000002,-0.046899,-0.042667000000000004,5.249,0,0
-0.0014763099999999998,-0.06299848,0.010419529,-0.0447494,-0.043008080000000004,5.25,0,0
0.009144969999999999,-0.09873190000000001,-0.0016004470000000003,-0.033568076,-0.03812684000000001,5.251,0,0
0.01475225,-0.12699914,-8.492700000000027e-05,-0.021657698,-0.029340170000000002,5.252,0,0
0.015447708000000003,-0.14890986,0.006424146,-0.014526578000000002,-0.017590214,5.253,0,0
0.0140184154,-0.1637874,0.0062983860000000004,-0.015983898,-0.006103988000000001,5.254,0,0
0.0098336834,-0.166048,0.0019020860000000007,-0.026707418,0.0020884319999999994,5.255,0,0
0.0066766634,-0.1597816,-0.007677598000000001,-0.041616022,0.007360092,5.256,0,0
0.0056113034,-0.14960199999999998,-0.019667178,-0.0544842,0.009050220000000001,5.257,0,0
0.0036661353999999993,-0.13151102,-0.029038298,-0.06434356000000001,0.005632344000000001,5.258,0,0
0.0016597199999999989,-0.10642142000000002,-0.0320143,-0.07047512,-0.00016082199999999927,5.259,0,0
0.00296557,-0.08781508000000002,-0.02759494,-0.06471116,-0.006131082,5.26,0,0
0.00497903,-0.07743694000000001,-0.02388016,-0.04469994,-0.012166262,5.261,0,0
-0.0011457099999999994,-0.05590711,-0.02179042,-0.019130259999999996,-0.015062712000000002,5.262,0,0
-0.0067023099999999995,-0.030594370000000006,-0.018999663400000002,0.008813260000000002,-0.014296538000000001,5.263,0,0
-0.0027148619999999997,-0.014628170000000003,-0.010796763400000003,0.03784528000000001,-0.014020118,5.264,0,0
-0.004202306,0.011161869999999999,0.0043631966,0.05600704000000001,-0.014339738000000001,5.265,0,0
-0.006957126000000001,0.040769530000000005,0.019013556600000002,0.05488202000000001,-0.013866618,5.266,0,0
0.003330254,0.05207734000000001,0.027723596600000004,0.04314906200000001,-0.013555190000000002,5.267,0,0
0.009471552,0.06034206,0.031778640000000004,0.027947226000000006,-0.011985657000000002,5.268,0,0
0.004507092,0.06651546,0.03131926,0.011564406000000003,-0.006933357,5.269,0,0
0.0062813980000000005,0.053123917400000005,0.02097029,-0.001105694,0.0013722229999999997,5.27,0,0
0.007777198000000001,0.0375641174,0.00557727,-0.009044174,0.010431123,5.271,0,0
0.004128838000000001,0.028276333400000003,-0.01068357,-0.013862016,0.017415207000000002,5.272,0,0
0.006774488,0.013189633400000001,-0.023583730000000004,-0.015157040000000002,0.02249972,5.273,0,0
0.010419598,-0.00016459460000000032,-0.028880472,-0.010798034000000001,0.026286520000000004,5.274,0,0
0.0058378779999999995,0.0018226480000000005,-0.029134676000000005,-0.005204554,0.026301400000000003,5.275,0,0
-0.002986342000000001,0.012202168,-0.020745820000000005,-0.0004454839999999999,0.020745962,5.276,0,0
-0.006350374000000001,0.018120631999999998,-0.003172600000000001,0.009996876000000002,0.012074662,5.277,0,0
-0.009481982000000002,0.027390392,0.01317088,0.026785076000000005,0.003452102,5.278,0,0
-0.015851732,0.0434886,0.019896962,0.04222899000000001,-0.0049356980000000005,5.279,0,0
-0.016484472,0.04980844,0.023211736000000004,0.052345510000000005,-0.013436278,5.28,0,0
-0.014342492000000002,0.04998698,0.023837720000000003,0.058192280000000006,-0.019479780000000002,5.281,0,0
-0.016950180000000002,0.05791844,0.015589860000000004,0.059895960000000005,-0.019510480000000004,5.282,0,0
-0.015939656000000003,0.0600329,0.005802400000000001,0.057792380000000004,-0.014568962000000001,5.283,0,0
-0.008087256000000001,0.05318002000000001,0.0005591920000000003,0.05077450000000001,-0.008680282000000001,5.284,0,0
-0.00033613600000000077,0.05195766,-0.004683198,0.04203064,-0.0020315420000000008,5.285,0,0
0.004161165999999999,0.060037560000000004,-0.007133958000000001,0.035547216000000006,0.006442878000000001,5.286,0,0
0.007909064,0.06582018,-0.00030473800000000014,0.023453716000000003,0.012389018,5.287,0,0
0.011381580000000002,0.061891360000000006,0.007983402,-0.00045452399999999955,0.013423580000000003,5.288,0,0
0.010168482,0.054353612,0.010440890000000001,-0.028074204000000002,0.01472016,5.289,0,0
0.008712362000000001,0.039164932,0.011194674000000002,-0.049717044,0.01761986,5.29,0,0
0.007139276,0.016512372,0.012402392000000002,-0.06834386,0.017528460000000003,5.291,0,0
0.002433338,-0.0028696380000000003,0.009748942,-0.08517958,0.013742032000000001,5.292,0,0
-0.002232422,-0.015349998,0.00436744,-0.09070349999999999,0.007624792000000001,5.293,0,0
-0.008307884000000001,-0.015744574,0.000428236,-0.08949046000000001,-0.002734388,5.294,0,0
-0.016010144000000004,-0.002038194000000001,-0.0063345580000000005,-0.09617668,-0.016355168000000003,5.295,0,0
-0.014142180000000004,0.005150648000000001,-0.017094316,-0.10881082,-0.028089148,5.296,0,0
-0.002801419999999999,0.0029766540000000005,-0.024582706000000003,-0.11193322,-0.034382,5.297,0,0
0.00469126,0.010785534000000001,-0.024734106000000002,-0.09993744000000002,-0.0348496,5.298,0,0
0.01016955,0.016427418,-0.018845682,-0.07647054,-0.030617420000000003,5.299,0,0
0.014927628,0.012875278,-0.009351762,-0.036836320000000006,-0.020899154000000003,5.3,0,0
0.012278668000000001,0.016724636,-0.0003093120000000008,0.020846280000000002,-0.0048021739999999985,5.301,0,0
0.004501128,0.021848480000000003,0.00517894,0.07951708,0.013812106000000001,5.302,0,0
-0.002265122,0.017692574000000003,0.006084012,0.12075334000000001,0.028663306000000003,5.303,0,0
-0.006469392,0.011465089800000001,0.003669576,0.14673282,0.037677626000000006,5.304,0,0
-0.00421671,0.0020517698000000013,0.0008278740000000001,0.15692960000000003,0.04159352,5.305,0,0
3.137000000000018e-05,-0.0060513502,-0.001052376,0.14463560000000003,0.03992672,5.306,0,0
-0.00299075,-0.0067703901999999995,-0.0010146500000000002,0.11720000000000001,0.03294764,5.307,0,0
-0.00402922,-0.0127695442,0.00016266000000000067,0.08295885999999998,0.024270618,5.308,0,0
0.001644666,-0.022627219999999997,0.0029660360000000005,0.0446725,0.017830172000000002,5.309,0,0
0.006491786000000001,-0.03429668,0.006062238000000001,0.004341680000000004,0.011735264000000002,5.31,0,0
0.005980666000000001,-0.045996140000000005,0.009287478,-0.03121692,0.0029298439999999996,5.311,0,0
0.004146826,-0.04201166,0.012323480000000001,-0.06052052,-0.007431976000000001,5.312,0,0
0.002032346000000001,-0.02201922,0.00679726,-0.08630878,-0.017692754,5.313,0,0
-0.004119240000000001,0.0023530800000000004,-0.0042318600000000005,-0.10382862000000001,-0.028102388,5.314,0,0
-0.010362968000000002,0.027853500000000003,-0.008232704,-0.10890446,-0.037578940000000005,5.315,0,0
-0.010330408,0.043042957,-0.009590982,-0.10633576,-0.042680680000000006,5.316,0,0
-0.006336418,0.036652589,-0.020497322,-0.10592856,-0.04349232,5.317,0,0
-0.0023659539999999995,0.021245262400000003,-0.032073542,-0.10431076,-0.04193476,5.318,0,0
0.002338576000000001,0.003763222400000001,-0.036961282000000005,-0.09530886000000001,-0.03785398,5.319,0,0
0.0016352280000000007,-0.014501517600000001,-0.0357192886,-0.07892837999999999,-0.03059052,5.32,0,0
-0.0007611999999999999,-0.0289016146,-0.019016350600000002,-0.051371980000000005,-0.021280347999999998,5.321,0,0
0.0007074254000000002,-0.037519766600000004,0.0081958294,-0.0070871799999999985,-0.010671028,5.322,0,0
0.0027541874,-0.046128720000000005,0.0366613094,0.05060142000000001,0.0020189120000000003,5.323,0,0
0.0049688374,-0.05576826000000001,0.06462960940000001,0.10710372,0.015476752,5.324,0,0
0.0099259534,-0.05707954,0.08183620000000001,0.15341490000000002,0.027303552000000002,5.325,0,0
0.0162613814,-0.051030780000000005,0.07702722000000001,0.1841958,0.03586206,5.326,0,0
0.019671086000000004,-0.03786574,0.056744498,0.19580820000000002,0.04022688,5.327,0,0
0.014074680000000001,-0.010080060000000002,0.03366349800000001,0.1910786,0.037751980000000004,5.328,0,0
-0.0025853399999999985,0.032716520000000006,0.007910438,0.1698922,0.028672380000000004,5.329,0,0
-0.0190498,0.07174038,-0.023542962,0.134342,0.01712262,5.33,0,0
-0.029682220000000002,0.09201676,-0.055149562000000006,0.09575013999999998,0.005322360000000002,5.331,0,0
-0.03665638,0.09748154000000002,-0.07439984,0.05722628000000001,-0.004881428,5.332,0,0
-0.03503982,0.08577172000000001,-0.07226462,0.010548880000000004,-0.012243748000000002,5.333,0,0
-0.019250405999999998,0.053792952000000005,-0.05689602000000001,-0.04048752,-0.017538488,5.334,0,0
-0.004226026000000001,0.020690352000000002,-0.041346796000000005,-0.08667532,-0.022138528,5.335,0,0
0.004682714000000001,-0.005448828000000001,-0.015405856000000002,-0.12705006000000002,-0.024515208,5.336,0,0
0.014023174000000001,-0.031671868,0.020756624,-0.1570524,-0.024112498,5.337,0,0
0.016260732000000003,-0.041996008,0.036068264,-0.16701200000000002,-0.019689997999999997,5.338,0,0
0.016796678,-0.04526912,0.030592606,-0.15711760000000002,-0.008319858,5.339,0,0
0.022318358000000003,-0.060259320000000005,0.032775722,-0.1399864,0.004680902000000001,5.34,0,0
0.020744898,-0.061071,0.027637086,-0.12263639999999999,0.013409462,5.341,0,0
0.009773038000000001,-0.045320198,0.0019811259999999997,-0.10060084000000001,0.018913,5.342,0,0
0.0027600800000000024,-0.039846938,-0.015347974000000002,-0.06873598,0.02275198,5.343,0,0
-0.00206488,-0.03644840799999999,-0.019188716,-0.025526579999999997,0.02391762,5.344,0,0
-0.015390980000000002,-0.015140237999999999,-0.022334258000000006,0.03228882,0.023636,5.345,0,0
-0.026794560000000002,0.006456362,-0.011214062000000004,0.09781002,0.0232542,5.346,0,0
-0.022494252000000003,0.009797700000000001,0.020065618,0.15210846000000003,0.02045003,5.347,0,0
-0.009936912000000001,0.0032152400000000003,0.040747998,0.184348,0.012931030000000001,5.348,0,0
-0.005371532,0.002984610000000001,0.039296178,0.1871086,0.000662170000000001,5.349,0,0
-0.003930492000000001,0.010989140000000001,0.026458759999999998,0.15797956000000002,-0.011867810000000003,5.35,0,0
0.006280488,0.014317120000000003,0.0006794599999999998,0.1035954,-0.023006610000000004,5.351,0,0
0.01225118,0.014312040000000002,-0.032068320000000004,0.029980600000000003,-0.033109360000000004,5.352,0,0
0.005827922,0.020047026000000003,-0.0512012,-0.0498618,-0.038086440000000006,5.353,0,0
0.002100314,0.022176165600000002,-0.0466310742,-0.12047460000000002,-0.03642982,5.354,0,0
0.008119514,0.0022149656000000004,-0.030068654200000003,-0.18111936,-0.031452,5.355,0,0
0.010153874,-0.029676874400000004,-0.005789254199999998,-0.22912860000000002,-0.024151816200000002,5.356,0,0
0.011745914,-0.057937074400000003,0.019959065800000002,-0.2472378,-0.011910096200000003,5.357,0,0
0.018541972,-0.0802259404,0.0337881058,-0.22838180000000002,0.0022246638,5.358,0,0
0.018238280000000003,-0.0982418,0.036866720000000006,-0.18188592999999997,0.0134092038,5.359,0,0
0.01057102,-0.09690108,0.030798660000000005,-0.11581212999999999,0.0216925238,5.36,0,0
0.00013926000000000043,-0.06566638,0.012916740000000001,-0.03712073000000001,0.027042939999999998,5.361,0,0
-0.011378220000000001,-0.03083958,-0.011127380000000003,0.03874267,0.029783360000000002,5.362,0,0
-0.019740419999999998,-0.005770199999999998,-0.025385580000000005,0.09240487000000001,0.030945860000000002,5.363,0,0
-0.016435202,0.011421472,-0.023020680000000005,0.11943180000000002,0.031349260000000004,5.364,0,0
-0.005469101999999999,0.015358752,-0.011796360000000006,0.12969360000000002,0.0317541,5.365,0,0
-0.0036991819999999996,0.014143372000000001,0.0009764599999999984,0.131955,0.03070496,5.366,0,0
-0.009292162,0.019024072000000003,0.019319380000000004,0.1255226,0.02248742,5.367,0,0
-0.006403806400000001,0.023097072000000003,0.03755252,0.10327520000000001,0.004590540000000001,5.368,0,0
-0.0032123644,0.039408700000000005,0.03462966000000001,0.07125052000000001,-0.0177803,5.369,0,0
-0.007487164400000002,0.0690332,0.01551618,0.04211916,-0.03856324,5.37,0,0
-0.0009221444000000007,0.07980968000000001,-0.0025865200000000036,0.016729920000000002,-0.05185192,5.371,0,0
0.012042955600000002,0.07354928000000001,-0.023047540000000002,-0.005476986,-0.05281264000000001,5.372,0,0
0.010139460000000001,0.06710504,-0.046810779999999996,-0.012011092000000001,-0.03942716,5.373,0,0
0.005214172,0.04490330000000001,-0.059663759999999996,0.007588068000000002,-0.015808040000000006,5.374,0,0
0.009447652,0.0036879200000000008,-0.05478898000000001,0.041345228,0.008760100000000002,5.375,0,0
0.008803040000000002,-0.028225200000000006,-0.03532608,0.06945986800000001,0.02867222,5.376,0,0
0.0031865,-0.04113398,-0.00441422,0.08618025400000001,0.041802500000000006,5.377,0,0
0.005755212,-0.049783799999999996,0.027272140000000004,0.09401012,0.04489416,5.378,0,0
0.007882132,-0.05283992,0.046599560000000005,0.08938375999999999,0.03995270000000001,5.379,0,0
-0.005103688000000001,-0.03074996,0.04925306000000001,0.06855662,0.033028800000000004,5.38,0,0
-0.015931456,-0.0038844399999999977,0.03049586,0.04304734600000001,0.024103574000000003,5.381,0,0
-0.014472482,0.003953340000000002,0.0009098799999999966,0.019991066000000002,0.01362614,5.382,0,0
-0.014646116,0.014461680000000001,-0.014847000000000004,-0.015359693999999995,0.005306159999999999,5.383,0,0
-0.015420926000000001,0.035090159999999995,-0.012182840000000004,-0.066501414,-0.00230186,5.384,0,0
-0.004319785999999999,0.03828312000000001,0.005331519999999996,-0.115458074,-0.012534360000000001,5.385,0,0
0.010634054,0.025828016000000002,0.029282419999999997,-0.15530220000000003,-0.023277894,5.386,0,0
0.016366640000000002,0.020716514000000002,0.04167567,-0.18810360000000004,-0.03163114,5.387,0,0
0.018186322,0.015584714,0.03174133,-0.196219,-0.03577026,5.388,0,0
0.016218536000000002,0.00377903,0.0036402100000000014,-0.17346188,-0.034655820000000004,5.389,0,0
0.016328116000000004,-0.01369947,-0.026308090000000003,-0.1389753,-0.027506474,5.39,0,0
0.018491556,-0.030986226,-0.03925662,-0.09080650000000001,-0.016125354,5.391,0,0
0.015520702000000003,-0.041982824,-0.034824669999999995,-0.014465100000000002,-0.0031887739999999993,5.392,0,0
0.008871762000000002,-0.047092144,-0.027664698,0.0680569,0.010944305999999999,5.393,0,0
0.002919866,-0.04647056,-0.015274298000000002,0.13095298,0.019907426,5.394,0,0
-0.002950918,-0.03876704,0.0001568060000000001,0.17801940000000002,0.020218186000000003,5.395,0,0
-0.012080948000000001,-0.021750724000000003,0.0010797460000000008,0.19856680000000002,0.01645336,5.396,0,0
-0.021113894,2.3895999999998946e-05,-0.007456774000000001,0.18315196,0.00949526,5.397,0,0
-0.024406634000000003,0.019252496,-0.004727086,0.14682442,-0.0012257000000000001,5.398,0,0
-0.017896208000000004,0.032307136,0.009359354,0.10418792,-0.008339746,5.399,0,0
-0.015641020000000002,0.044562736,0.01757255,0.0673909,-0.00790419,5.4,0,0
-0.012895622000000004,0.04942206,0.016529508,0.040604720000000004,-0.002492084000000001,5.401,0,0
0.0019271979999999989,0.039981133999999995,0.016884908,0.00714062,0.006143315999999999,5.402,0,0
0.023466818,0.014799474,0.018139248000000004,-0.03834684,0.012893376,5.403,0,0
