bandpass 1,bandpass 2,bandpass 3,bandpass 4,bandpass 5,time,onset,mark
-0.002224302,-0.0008091098,0.0002741942,-0.001335872,-0.0001478512,4.236,1,1
-0.0031508580000000003,-0.0017634458,0.00012000439999999997,-0.0013783248,-0.0002627802,4.237,0,0
-0.004676138000000001,-0.0021243558,-0.00021833960000000003,-0.0010346848,-0.0007632801999999999,4.238,0,0
-0.0056732760000000005,-0.0028454618,-0.0005354638000000001,0.00029877720000000025,-0.0011002692000000001,4.239,0,0
-0.006531116000000001,-0.003100758,-0.0008478498000000002,0.0017305212000000001,-0.0012158072,4.24,0,0
-0.0060579032,-0.0017887940000000002,-0.0011895000000000002,0.0026646512,-0.002212496,4.241,0,0
-0.0033944632000000004,0.00041316399999999994,-0.0010861660000000002,0.003203336,-0.0033081309999999997,4.242,0,0
0.00010840679999999997,0.0031016140000000004,-0.0009882880000000001,0.0036053400000000003,-0.004153937,4.243,0,0
0.0030740548,0.006137182,-0.0009312426,0.0035145040000000003,-0.0054341680000000005,4.244,0,0
0.0050562728,0.009120684,-0.0005169508,0.0030056720000000005,-0.005470270000000001,4.245,0,0
0.005810424,0.010389644000000002,-0.0001664838,0.0024080718,-0.0035024720000000004,4.246,0,0
0.0046944740000000006,0.009351002,5.930720000000002e-05,0.0015451018000000004,-0.001290896,4.247,0,0
0.0023592020000000003,0.006758842,0.0008384992,0.00015847580000000032,0.0015281720000000004,4.248,0,0
9.110599999999987e-05,0.0026085880000000002,0.001422428,-0.0015531462000000001,0.004783704000000001,4.249,0,0
-0.001497038,-0.0021586319999999997,0.001520415,-0.0028254042,0.006387762,4.25,0,0
-0.002089228,-0.005227488000000001,0.0013219832000000002,-0.0033213080000000002,0.0059851800000000005,4.251,0,0
-0.0016928,-0.006525306000000001,0.0011684350000000002,-0.003424808,0.00535933,4.252,0,0
-0.0003552140000000002,-0.00778723,0.000854591,-0.003002728,0.004121052,4.253,0,0
0.001755738,-0.007937938,4.818999999999982e-06,-0.001553406,0.0016691780000000003,4.254,0,0
0.003634816,-0.006115130000000001,-0.0005843858,9.496200000000008e-05,0.00016090800000000003,4.255,0,0
0.0033026920000000003,-0.0030776900000000005,-0.0006109660000000001,0.0009946220000000001,-0.0005049472,4.256,0,0
0.0008232820000000003,0.0001794279999999997,-0.000963863,0.0018627140000000001,-0.0019384092000000002,4.257,0,0
-0.0017002740000000003,0.003162254,-0.0015726210000000002,0.00253068,-0.0036225912000000006,4.258,0,0
-0.00309652,0.005844012,-0.0015303110000000003,0.0018152320000000002,-0.0042780552,4.259,0,0
-0.0033143840000000005,0.006677596,-0.0015429250000000001,0.0011038086,-0.0046004452,4.26,0,0
-0.0021177720000000004,0.0052164132000000005,-0.001672496,0.0012176906,-0.004592968,4.261,0,0
0.0002949259999999998,0.0026475472,-0.0012478648000000003,0.0007221479999999999,-0.0029571700000000003,4.262,0,0
0.002571308,-0.0001713368000000003,-0.0007971940000000002,-0.00019368800000000007,-0.0012062279999999997,4.263,0,0
0.0038393660000000003,-0.0023878588000000004,-0.00040554640000000015,-4.608380000000015e-05,-0.00032755200000000016,4.264,0,0
0.003675472,-0.0033923008,0.0007076176,0.0003838756,0.001201518,4.265,0,0
0.0027955294000000003,-0.00391904,0.0016716996000000002,0.0004378915999999999,0.003107946,4.266,0,0
0.00185436228,-0.0036874306000000004,0.0017263423999999998,0.0016379762,0.0038180780000000004,4.267,0,0
0.00141437228,-0.0023113935600000005,0.0019211376,0.0028041702,0.004085654,4.268,0,0
0.00195713628,-0.0014973035599999999,0.002146268,0.0027687244,0.004666432,4.269,0,0
0.00249719828,-0.00133390956,0.001848286,0.002464109,0.0038223132000000004,4.27,0,0
0.00227846228,-0.0007726021600000001,0.001451582,0.0018927654000000002,0.0014041992,4.271,0,0
0.0012842274000000001,4.864644000000015e-05,0.0012543794000000003,0.0005025593999999998,-0.0004801928,4.272,0,0
-0.0003558706000000001,0.0013883074000000002,0.0010494996000000002,-0.0007541886,-0.0021490748000000002,4.273,0,0
-0.0027452946000000003,0.0036644634000000003,0.0005580188000000001,-0.0009625410000000001,-0.0046094788000000005,4.274,0,0
-0.0046018426,0.005403641400000001,-0.00024368919999999996,-0.0014169216,-0.006790543999999999,4.275,0,0
-0.004768922,0.005583666,-0.0007881372,-0.0021177620000000005,-0.00784236,4.276,0,0
-0.0034939240000000002,0.004615411999999999,-0.0009131482000000001,-0.0021787480000000003,-0.008309112,4.277,0,0
-0.0014738579999999998,0.002261494,-0.0010402914000000002,-0.0016349620000000002,-0.00722067,4.278,0,0
0.0004193220000000001,-0.001040004,-0.0008623626,-0.0012136618000000003,-0.0034746299999999994,4.279,0,0
0.0021081660000000003,-0.0039118420000000004,-0.00019182660000000002,-0.0007265858,0.0008901100000000006,4.28,0,0
0.0023239890000000003,-0.004843268,0.0004973014,7.428940000000001e-05,0.004549898,4.281,0,0
0.00018201700000000003,-0.003831368,0.001137781,-0.00026475260000000014,0.0074661,4.282,0,0
-0.0029293910000000004,-0.0027501701999999998,0.001648404,-0.0013578046,0.008873002,4.283,0,0
-0.005398269000000001,-0.0016683202000000001,0.0015690216,-0.0016944628000000002,0.008097666,4.284,0,0
-0.005400797000000001,-0.00011106640000000002,0.0009828176,-0.0015346148000000002,0.006692384000000001,4.285,0,0
-0.0029962260000000003,-0.00018963639999999995,-5.302840000000002e-05,-0.0013428020000000001,0.005899608000000001,4.286,0,0
-8.081400000000002e-05,-0.0025629864,-0.0014479464,-0.0003842940000000001,0.004556404,4.287,0,0
0.002761026,-0.0042517762,-0.0023708484,0.001096856,0.0028367540000000004,4.288,0,0
0.0044511965999999995,-0.004234616199999999,-0.0024463876,0.0015031306,0.0014171500000000007,4.289,0,0
0.0024301126000000005,-0.003290446,-0.0023484656,0.0008518526000000002,-0.001026596,4.29,0,0
-0.0018279414,-0.0006804580000000008,-0.0020495436000000002,0.0005631656000000001,-0.004437532000000001,4.291,0,0
-0.0038480634,0.003418294,-0.0012517627999999999,0.00044124820000000016,-0.006599482,4.292,0,0
-0.0036201673999999994,0.007282908,-0.0010128728,-0.00023579579999999996,-0.007866262,4.293,0,0
-0.0025864819999999998,0.00941618,-0.0013979431999999999,-0.0006716284,-0.008865660000000001,4.294,0,0
-0.0004036059999999997,0.009775896,-0.0011414644000000002,-0.0007477644000000001,-0.007787652000000001,4.295,0,0
0.002236078,0.008251372,-0.0003799083999999999,-0.0007812734000000001,-0.004538759999999999,4.296,0,0
0.003531054,0.005181769999999999,0.0002485648000000001,-0.0001903880000000001,-0.001153748,4.297,0,0
0.0031898639999999997,0.002132574,0.0010253428,0.000406904,0.0021051879999999996,4.298,0,0
0.0028003340000000002,-0.000693372,0.0018361388000000002,-0.00021861000000000005,0.005354014,4.299,0,0
0.002504372,-0.002889324,0.002145206,-0.0014336379999999999,0.006965138000000001,4.3,0,0
0.0018100686,-0.0034721642000000003,0.0018212514000000004,-0.002650014,0.006281578,4.301,0,0
0.0015843728,-0.0027051002,0.0015003396,-0.004020968,0.004851014000000001,4.302,0,0
0.0017658248,-0.0017689776000000001,0.0013811356000000001,-0.004096298000000001,0.003729642,4.303,0,0
0.0009644328000000001,-0.00075949604,0.0011593054000000002,-0.0021033500000000004,0.0025843380000000003,4.304,0,0
0.0002643662,-0.0006869660400000001,0.0010025748,0.0011453160000000002,0.0021402900000000004,4.305,0,0
0.0016794976,-0.00351278984,0.0007108620000000001,0.004363730000000001,0.002080898,4.306,0,0
0.0032116774000000006,-0.00698265184,0.00019074980000000015,0.006472976000000002,0.0007262620000000003,4.307,0,0
0.0028536776000000004,-0.00817871044,-0.00032318300000000005,0.007372430000000002,-0.00132856,4.308,0,0
0.0024172936000000003,-0.00663027,-0.0007604268000000001,0.0071240800000000005,-0.00261832,4.309,0,0
0.0018472042000000001,-0.0027500320000000003,-0.0015936442,0.0061204200000000005,-0.003612018,4.31,0,0
-0.0005009418,0.002745728,-0.0020942067999999998,0.004584614000000001,-0.00410914,4.311,0,0
-0.0024963518000000002,0.007285758000000001,-0.0019929128,0.0029478912000000003,-0.0025007040000000003,4.312,0,0
-0.0025416482000000006,0.008180213799999999,-0.0022069260000000005,0.0010190412000000005,-0.00037087799999999994,4.313,0,0
-0.00187069548,0.0060068038,-0.0020518902,-0.0011981468,0.0005289074,4.314,0,0
-0.0010189936799999998,0.0024681518000000003,-0.0012297270000000001,-0.0034621968,0.0016925294,4.315,0,0
-0.0004447956800000001,-0.0012446961999999996,-0.0003718596,-0.0055597368,0.0026930454,4.316,0,0
-0.0019757396800000005,-0.0038060862000000003,-6.0767799999999984e-05,-0.006940534000000001,0.0022652076,4.317,0,0
-0.004107821480000001,-0.0045114660000000004,0.00017141760000000003,-0.007523608,0.0015543697999999997,4.318,0,0
-0.0048606682,-0.005224556,0.000457793,-0.0068919359999999995,0.0010490843999999997,4.319,0,0
-0.0050598242,-0.006624308,0.00010587940000000002,-0.005239364800000001,0.0002742574,4.32,0,0
-0.0034806102000000004,-0.006378460000000001,-0.000383568,-0.0024360088,-0.00021073659999999993,4.321,0,0
5.625800000000044e-06,-0.003423484,-0.00045138417600000004,0.0006289332,-0.00020997479999999995,4.322,0,0
0.0039947058,0.0005309719999999998,-0.0005439211760000001,0.0027807492,-0.000744871,4.323,0,0
0.006952411800000001,0.004778752000000001,-0.0008791023760000001,0.004194933200000001,-0.001803609,4.324,0,0
0.007661777999999999,0.009232116000000002,-0.000920155976,0.004526798,-0.0033037640000000003,4.325,0,0
0.006351003600000001,0.011414086,-0.000676862176,0.0032319048000000006,-0.005101046000000001,4.326,0,0
0.0035881095999999993,0.009605096000000002,-0.0004311938,0.0016850252000000002,-0.0063648,4.327,0,0
-0.0011788904000000005,0.0057874580000000005,0.00016505380000000002,0.000980574,-0.006222818,4.328,0,0
-0.0067463504,0.00169616,0.0009489598000000001,-0.00023891200000000003,-0.004000788,4.329,0,0
-0.010435258400000001,-0.0024097940000000003,0.0012481346000000001,-0.001212926,-0.0007730959999999998,4.33,0,0
-0.012209202,-0.005001412,0.0012789762,-0.0013668248000000003,0.002334576,4.331,0,0
-0.009976782,-0.006207930000000001,0.0016384102,-0.0016221152000000002,0.005124788,4.332,0,0
-0.002359741999999999,-0.006998542,0.0019447782,-0.0013606920000000002,0.007062686,4.333,0,0
0.006669098000000001,-0.0065888280000000006,0.0015501128,-0.00016424599999999994,0.007107076,4.334,0,0
0.012839277999999999,-0.004414642000000001,0.0014459620000000003,0.0007587340000000001,0.005861730000000001,4.335,0,0
0.014921972,-0.001923728,0.0019213766,0.0007754860000000001,0.004474844600000001,4.336,0,0
0.012484924,0.0005334760000000002,0.0018742825999999999,0.0012093806000000001,0.0025406446000000005,4.337,0,0
0.006001309999999998,0.0036474159999999997,0.0010933,0.0016152686000000002,0.000928941,4.338,0,0
-0.001013302,0.005804702,0.00026819340000000004,0.0010197538,0.00038634300000000004,4.339,0,0
-0.005052046,0.0049839312000000005,-0.00037544460000000005,0.0007777892,-0.0008213010000000002,4.34,0,0
-0.005743184000000001,0.0027158952000000004,-0.0013158946000000002,0.0014913052,-0.0028209696,4.341,0,0
-0.005221784,0.0011252492000000005,-0.0023449346,0.0020508666,-0.0040104576000000005,4.342,0,0
-0.00577229,-0.00040693099999999975,-0.0024957779999999997,0.0023296806,-0.004856132,4.343,0,0
-0.007387798000000001,-0.000798219,-0.0018927228000000002,0.0028710294,-0.005884478,4.344,0,0
-0.008420124000000001,0.0006986117999999999,-0.0013758184000000001,0.002557414,-0.0053087080000000005,4.345,0,0
-0.008233702000000002,0.0020090612,-0.0006517243999999999,0.0005577959999999999,-0.003200486,4.346,0,0
-0.006351722000000001,0.0025035471999999997,-6.174439999999994e-05,-0.0025180420000000003,-0.0017784438000000003,4.347,0,0
-0.0018490420000000004,0.0030351593999999996,0.00012887160000000004,-0.0059321980000000005,-0.0006101739999999999,4.348,0,0
0.003621498,0.0015186674,0.0005748964,-0.008687278,0.000813096,4.349,0,0
0.006873354,-0.0018309306,0.0011296000000000001,-0.009659998,0.00163366,4.35,0,0
0.007919214,-0.004132210000000001,0.00120667,-0.008507836,0.0019029140000000001,4.351,0,0
0.007630151999999999,-0.006043380000000001,0.001467762,-0.005939140000000001,0.0026353518,4.352,0,0
0.005745194,-0.008021490000000001,0.0015797741999999998,-0.002741392,0.0032264760000000003,4.353,0,0
0.0032943818,-0.007736012000000001,0.0006646561999999998,0.0002511480000000001,0.0023074740000000003,4.354,0,0
0.0017049858,-0.0037855860000000005,-0.0001241318000000001,0.002357174,0.001287842,4.355,0,0
0.0006336318,0.0009029739999999995,-0.0006850818000000001,0.00394282,0.001039718,4.356,0,0
-0.0004280822,0.004119772,-0.0013800838,0.005456342,-0.00011753799999999993,4.357,0,0
-0.0013416302,0.00639867,-0.001480232,0.00638348,-0.002032208,4.358,0,0
-0.002254318,0.007173736000000001,-0.0010192276000000001,0.006593534000000001,-0.002501212,4.359,0,0
-0.003294316,0.005348337000000001,-0.0010490076,0.006403020000000001,-0.0029289859999999997,4.36,0,0
-0.004493914,0.003011189,-0.0009737798,0.005706472,-0.0041011120000000005,4.361,0,0
-0.005187698,0.0018512640000000003,-0.0003663438,0.004296504,-0.0033488400000000005,4.362,0,0
-0.0051191760000000005,0.000391954,-8.649180000000007e-05,0.0024627322000000005,-0.0014372140000000005,4.363,0,0
-0.004417061200000001,-0.0010386560000000002,0.0002456498,0.0008441542000000001,-0.0006804968,4.364,0,0
-0.0033225852000000004,-0.0019076470000000002,0.0010599458000000001,-0.0011308458000000002,0.0002417369999999999,4.365,0,0
-0.0018234438000000002,-0.003793915,0.001568408,-0.0038095918,0.0017802809999999999,4.366,0,0
-0.0006698920000000001,-0.005849216000000001,0.0013637424,-0.0057144478,0.0019196889999999998,4.367,0,0
-0.0008279260000000001,-0.005319817,0.0013014564,-0.0057522056,0.0019838449999999997,4.368,0,0
-0.00045592280000000005,-0.0044236189000000006,0.00104830844,-0.0050147186,0.0036076578,4.369,0,0
0.0019900092,-0.005783188900000001,0.00026882644,-0.0035838164000000007,0.00453961,4.37,0,0
0.005384075800000001,-0.0063994329,-0.00043822756,-0.0006661204000000002,0.0038792352600000002,4.371,0,0
0.008477080000000001,-0.0053715229,-0.0008625219600000001,0.0017374696,0.00353935666,4.372,0,0
0.010485914,-0.0050088419,-0.0013035379599999999,0.0022644912000000005,0.00257085086,4.373,0,0
0.009060492,-0.0026592959999999994,-0.0014619406,0.0024186182,-0.00024285313999999978,4.374,0,0
0.004577252000000001,0.0033403440000000003,-0.0007405766000000002,0.00274872,-0.00244779114,4.375,0,0
-0.0002673459999999988,0.008557604,-3.4700599999999964e-05,0.002948616,-0.0031307004000000003,4.376,0,0
-0.004721104,0.011026264000000001,0.00019851499999999997,0.00338732,-0.0038878098,4.377,0,0
-0.007110776000000001,0.011385282,0.00028856899999999997,0.003531258,-0.003947186,4.378,0,0
-0.006366738,0.008403304000000002,0.000387568,0.002982322,-0.002339762,4.379,0,0
-0.0037798600000000003,0.00320262,4.575337999999998e-05,0.00182753,-0.000697708,4.38,0,0
-0.0012737459999999999,-0.000262848,-9.797642000000005e-05,0.0008746476,-5.63064e-05,4.381,0,0
0.00031615399999999997,-0.0015145780000000001,0.0006089219800000001,-0.0007254844000000001,0.0010583516,4.382,0,0
0.0008621160000000001,-0.0020938796,0.00135429398,-0.0020264384000000003,0.0018859876000000002,4.383,0,0
0.001037614,-0.0024939756,0.0018157375800000003,-0.001648785,0.0017100696000000002,4.384,0,0
0.001059218,-0.0018981776000000002,0.0022042002,-0.001273025,0.0018102276000000004,4.385,0,0
0.000698182,-0.0019401096000000004,0.0022587760000000005,-0.0016913906,0.0018067996000000002,4.386,0,0
0.0008184739999999999,-0.0035661736000000004,0.0014990937999999998,-0.0025392846000000004,0.0013040662,4.387,0,0
0.001284628,-0.0034669240000000006,0.0010056118,-0.0020804106,-0.00040704779999999985,4.388,0,0
0.0016218959999999998,-0.002048672,0.0008428998,-0.0027434020000000003,-0.00039343179999999997,4.389,0,0
0.0014535396,-0.0014800914000000004,0.0006117082000000002,-0.0015648060000000002,-0.0017016237999999998,4.39,0,0
0.0020570716,-0.0020436974,0.00022615620000000008,-0.00013350400000000065,-0.0015854799999999998,4.391,0,0
0.0032467136000000002,-0.0012805153999999998,0.0005800686000000001,-0.004574006,0.007136903400000001,4.392,0,0
0.0040076096,-0.0021661273999999996,0.0019889026,-0.008586382,0.015409569400000002,4.393,0,0
0.0053357176000000004,-0.006498205400000001,0.0021320406,-0.009216068000000001,0.018413195400000002,4.394,0,0
0.005291702200000001,-0.007968092,0.0006483282000000002,-0.010095804600000001,0.020422735400000003,4.395,0,0
0.0021539622000000007,-0.005712476,-0.0011659298000000003,-0.0081380306,0.016871976000000004,4.396,0,0
-0.0016293338,-0.002444628,-0.0034497400000000006,0.0020261694000000005,0.002364615999999999,4.397,0,0
-0.0050342498000000005,0.0027753979999999992,-0.0070130520000000005,0.0120030494,-0.012208604000000001,4.398,0,0
-0.009712437800000001,0.011504958,-0.009398904,0.0187286794,-0.023863744000000003,4.399,0,0
-0.013527268000000002,0.01896477,-0.009252719999999999,0.02428458,-0.03368092,4.4,0,0
-0.0147022,0.0237707,-0.007708842000000001,0.02529846,-0.03650490000000001,4.401,0,0
-0.014441666,0.0255271,-0.0052246820000000005,0.022137084000000005,-0.03376644,4.402,0,0
-0.012419098,0.022753224,-0.002330338,0.015931138000000004,-0.026847834000000004,4.403,0,0
-0.008817321999999999,0.017244561999999998,0.0011932519999999997,0.007757857999999999,-0.016223094000000004,4.404,0,0
-0.004162137999999999,0.008450922000000001,0.0046382839999999995,-0.0025755820000000016,-0.0018672139999999999,4.405,0,0
0.001569102,-0.0023047380000000006,0.007216122000000001,-0.012517982,0.012152506,4.406,0,0
0.007534948,-0.013100558000000002,0.008897562,-0.020534646000000004,0.023059126,4.407,0,0
0.01278824,-0.022297262,0.009781756,-0.02719486,0.030987900000000002,4.408,0,0
0.017182644,-0.029125680000000004,0.009085052000000001,-0.03134462,0.03395374,4.409,0,0
0.02013318,-0.03206726,0.0067700358,-0.0315338,0.03049522,4.41,0,0
0.0200218,-0.030591160000000006,0.0043862018000000004,-0.027534666000000003,0.02329016,4.411,0,0
0.016464227999999997,-0.026876880000000002,0.0019510938,-0.0206946454,0.014172350000000002,4.412,0,0
0.010118432,-0.020917940000000003,-0.0008127902000000002,-0.010868065400000002,0.00282373,4.413,0,0
0.002239632,-0.01238766,-0.0033233382,0.002029474600000001,-0.006905550000000002,4.414,0,0
-0.005317528,-0.0040913600000000005,-0.005035446000000001,0.014976474600000001,-0.013647430000000002,4.415,0,0
-0.009777614,0.0030044199999999994,-0.006380330000000001,0.025402340600000003,-0.01928385,4.416,0,0
-0.009812738,0.0126463,-0.007461194000000001,0.0323028,-0.022693500000000002,4.417,0,0
-0.008902502,0.02394006,-0.0071959400000000005,0.033494460000000004,-0.02234888,4.418,0,0
-0.008453602000000001,0.03199444,-0.005557065600000001,0.028513508000000003,-0.02033118,4.419,0,0
-0.007285542,0.034973580000000004,-0.0034526596000000005,0.019684152,-0.016609664,4.42,0,0
-0.006675278,0.032634826,-0.0009167236000000001,0.008381472,-0.009235244000000002,4.421,0,0
-0.006934012,0.023533365999999997,0.0021149944000000004,-0.0034829080000000003,0.00012593599999999837,4.422,0,0
-0.004565166000000001,0.009006206,0.0045564664000000005,-0.012819748,0.009436356,4.423,0,0
0.0017812140000000001,-0.005228994,0.0061216,-0.019440416000000002,0.018218776,4.424,0,0
0.008607614000000001,-0.015397294,0.007006676000000001,-0.023428400000000002,0.024991560000000003,4.425,0,0
0.012893056,-0.021123279999999998,0.006827436000000001,-0.0234521,0.027324000000000005,4.426,0,0
0.014423124000000002,-0.022227200000000003,0.005601408,-0.019663411999999998,0.025384920000000005,4.427,0,0
0.013694398,-0.019364772000000002,0.0036026879999999997,-0.01351755,0.020927818000000004,4.428,0,0
0.009791846,-0.015011652000000002,0.0010403460000000002,-0.005892209999999999,0.013856032,4.429,0,0
0.00435836,-0.009597070000000001,-0.00156222,0.0025159099999999997,0.004326152000000001,4.43,0,0
-0.0004803240000000003,-0.003208629999999999,-0.003872668,0.00993739,-0.005326308,4.431,0,0
-0.005142262,0.0029129900000000007,-0.006108074,0.015507862,-0.013817388000000002,4.432,0,0
-0.009632422000000002,0.008761722,-0.007649428,0.019220160000000003,-0.021077026,4.433,0,0
-0.01345227,0.014679122000000003,-0.0075732279999999996,0.02011928,-0.02531874,4.434,0,0
-0.016139924,0.01945824,-0.0062598233999999996,0.01793341,-0.024840080000000004,4.435,0,0
-0.01699948,0.020530440000000004,-0.0046356238,0.013444143200000003,-0.02104663,4.436,0,0
-0.015182216000000002,0.017768896600000004,-0.002105813799999999,0.007528585200000002,-0.014760104000000001,4.437,0,0
-0.010970176000000002,0.0123899266,0.0012530442000000003,0.0007299851999999999,-0.0057168440000000004,4.438,0,0
-0.00513058,0.004531926600000001,0.0036735502000000003,-0.0058992148,0.0034345559999999996,4.439,0,0
0.0011176800000000005,-0.004308393400000001,0.0051628916,-0.011349724800000002,0.010878875999999999,4.44,0,0
0.007287340000000001,-0.0115075134,0.006542216,-0.015549358000000001,0.017046946,4.441,0,0
0.013085656000000001,-0.016681570000000003,0.007128322,-0.01805946,0.020593420000000005,4.442,0,0
0.016534936,-0.019667380000000005,0.006190836000000001,-0.01831566,0.019595,4.443,0,0
0.01700546,-0.019519600000000005,0.004486734,-0.016517452000000002,0.015731676000000003,4.444,0,0
0.015691774000000002,-0.017724408,0.0025815180000000005,-0.013288788000000001,0.010584136000000003,4.445,0,0
0.0122579074,-0.013942966000000001,0.00023964000000000017,-0.008049082,0.003449516,4.446,0,0
0.0061759734000000005,-0.006921898000000001,-0.002408684,-0.0010936420000000006,-0.0038737639999999996,4.447,0,0
-0.00028868660000000044,0.0008426620000000005,-0.004337174,0.005605558,-0.009597964,4.448,0,0
-0.0055657066,0.008060402000000001,-0.005437934,0.01150099,-0.01424428,4.449,0,0
-0.0100206806,0.015074050000000002,-0.006466286000000001,0.016176566,-0.017806500000000003,4.45,0,0
-0.013204454000000001,0.019772348000000002,-0.006372852000000001,0.01757752,-0.01893024,4.451,0,0
-0.014269840000000002,0.020558220000000002,-0.004879989600000001,0.015422235999999999,-0.017357892,4.452,0,0
-0.013369416000000002,0.019106134,-0.0030631236000000003,0.011813684000000001,-0.013901798200000001,4.453,0,0
-0.010536226000000001,0.01519382,-0.0008311276000000003,0.00741927,-0.007874992200000002,4.454,0,0
-0.006806348,0.007368940000000001,0.0016970544,0.0020286120000000004,8.640780000000042e-05,4.455,0,0
-0.0038044886,-0.0018852399999999998,0.0037292404,-0.003179348,0.007387387800000001,4.456,0,0
-0.0005329145999999999,-0.00962126,0.005252392,-0.0071522040000000005,0.0132613198,4.457,0,0
0.0030567413999999997,-0.016107074,0.0060936340000000006,-0.010403572,0.017832226,4.458,0,0
0.005297535399999999,-0.021123720000000002,0.0057141940000000006,-0.012432958,0.019498599999999998,4.459,0,0
0.0073743374,-0.022429460000000002,0.004416102,-0.011944548,0.01802888,4.46,0,0
0.010873018,-0.019475424,0.002757384,-0.008785742,0.015633688,4.461,0,0
0.012651823999999999,-0.01371797,0.0005559259999999998,-0.0037595619999999993,0.012239042,4.462,0,0
0.01104285,-0.007341578,-0.0016616460000000001,0.0019131580000000007,0.006784272000000001,4.463,0,0
0.00856385,-0.0008640779999999999,-0.00282333,0.007346198000000001,0.0009033520000000001,4.464,0,0
0.004961166,0.006314242000000001,-0.0035123619999999998,0.011613906,-0.004718528,4.465,0,0
-0.0004586119999999995,0.012660006000000001,-0.004201522,0.01428038,-0.010747455999999999,4.466,0,0
-0.005133492,0.016170372,-0.004008228,0.014617360000000001,-0.01563017,4.467,0,0
-0.007464922000000001,0.01732152,-0.0031372064,0.012422596000000001,-0.01769488,4.468,0,0
-0.008796620000000002,0.01670886,-0.0024926744,0.008750012,-0.01739436,4.469,0,0
-0.008795266,0.013593366,-0.0014589105999999999,0.004568302000000001,-0.014823500000000002,4.47,0,0
-0.006658326599999999,0.008576632000000002,0.00011018340000000005,-0.0001665560000000002,-0.009323498000000001,4.471,0,0
-0.004040222600000001,0.002785638,0.0015539314000000003,-0.005019896,-0.002572458000000001,4.472,0,0
-0.0016749125999999997,-0.002197686,0.0025832358000000004,-0.008056292,0.0037175620000000006,4.473,0,0
0.0006728614000000002,-0.0055132259999999995,0.0033644158,-0.009985148000000001,0.009473522000000002,4.474,0,0
0.0029031674,-0.008417692,0.00390048,-0.011505978,0.013995782,4.475,0,0
0.00424791,-0.011592238,0.0035219174,-0.011975640000000001,0.015502,4.476,0,0
0.004695578000000001,-0.013470524000000001,0.0023425499999999997,-0.01177868,0.013455858000000001,4.477,0,0
0.005256701999999999,-0.01377296,0.0009354239999999998,-0.01140472,0.009803530000000001,4.478,0,0
0.0054874,-0.013961754,-0.0006289080000000001,-0.010066585999999999,0.0047260819999999995,4.479,0,0
0.0042639176,-0.011666843999999999,-0.00211776,-0.006877954,-0.0017895379999999998,4.48,0,0
0.0022013296000000003,-0.005676243999999999,-0.0028170434000000005,-0.002938594,-0.006959018,4.481,0,0
0.0012141326000000001,0.0005670559999999998,-0.0031210180000000006,0.0015814060000000003,-0.010171856,4.482,0,0
5.328320000000001e-05,0.006090896,-0.0034478460000000005,0.006721466000000001,-0.012409828,4.483,0,0
-0.0030118348,0.01175581,-0.0031650000000000003,0.011089812000000001,-0.012026888,4.484,0,0
-0.0053576084,0.01494138,-0.00228118248,0.01244924,-0.008812946,4.485,0,0
-0.0059229184,0.014626334,-0.0016560968799999999,0.01105464,-0.005723669999999999,4.486,0,0
-0.006950817400000001,0.013388500000000001,-0.0012035628800000002,0.008230062,-0.002714594,4.487,0,0
-0.006688488400000001,0.010571482,2.3037120000000066e-05,0.003910585999999999,0.001433828,4.488,0,0
-0.0016470884000000007,0.005420638,0.0012756151200000003,-0.0005598100000000006,0.004781836000000001,4.489,0,0
0.0039790115999999995,0.0002978579999999998,0.0019232256000000004,-0.003913586,0.006411834,4.49,0,0
0.0066579876,-0.004640636,0.0027089320000000003,-0.005468026000000001,0.008199078,4.491,0,0
0.0088989116,-0.010179522,0.0035759140000000003,-0.005683314,0.010337102,4.492,0,0
0.00903293,-0.013879184,0.003595976,-0.004762936000000001,0.010439374,4.493,0,0
0.005001688000000001,-0.014189606000000002,0.002845704,-0.00280023,0.008883288,4.494,0,0
0.0003740140000000002,-0.011500888,0.002003017,-0.0007278499999999998,0.007274402,4.495,0,0
-0.0024951220000000002,-0.005935448,0.000667975,0.001541012,0.004300138,4.496,0,0
-0.004751456,0.00045509200000000026,-0.000960151,0.004153288,-0.00030988200000000004,4.497,0,0
-0.006195556,0.005340732000000001,-0.001877391,0.006085938,-0.004482856,4.498,0,0
-0.006662218,0.008391816,-0.002690021,0.00661603,-0.00848105,4.499,0,0
-0.006236832,0.008716842000000002,-0.00349297,0.006259286000000001,-0.013249984,4.5,0,0
-0.0047066692,0.006832394000000001,-0.0030740682,0.004330046000000001,-0.016317940000000003,4.501,0,0
-0.0030938292000000003,0.005622994000000001,-0.0022050102,0.001300716,-0.01653744,4.502,0,0
-0.0014372052000000005,0.006140854,-0.0019172599999999998,-0.0010510800000000002,-0.015092842,4.503,0,0
9.709080000000001e-05,0.007753556,-0.0011852923999999998,-0.0025610100000000003,-0.011162278000000001,4.504,0,0
0.0007004587999999998,0.008301066000000001,0.00013712560000000003,-0.002699822,-0.003979678,4.505,0,0
0.0006716182000000001,0.0064620300000000006,0.0006845278,-0.0015862260000000003,0.003707682,4.506,0,0
0.0006574382000000001,0.00274993,0.0009369778000000001,-0.000677942,0.009491002,4.507,0,0
0.0008152422000000002,-0.0030132499999999994,0.0018243096000000003,-0.000869702,0.013969264000000002,4.508,0,0
0.0022708502000000005,-0.00935459,0.0026117640000000004,-0.00186232,0.01615476,4.509,0,0
0.004144388200000001,-0.012649268000000002,0.002511006,-0.0030087200000000003,0.014662398000000004,4.51,0,0
0.004775924000000001,-0.01224282,0.002206739,-0.004151342000000001,0.011831482,4.511,0,0
0.0049142560000000005,-0.010280362000000001,0.0018665698,-0.004329192000000001,0.008857162,4.512,0,0
0.004575822,-0.0068280758,0.0006631438000000001,-0.002946046,0.0043211560000000005,4.513,0,0
0.003054744,-0.0027715118,-0.00040477220000000003,-0.0010489039999999998,-0.00038587600000000006,4.514,0,0
0.0007949259999999999,-0.00016651179999999989,-0.0008632202000000001,0.000349184,-0.0038460939999999996,4.515,0,0
-0.0011864440000000005,0.0017938882,-0.0016665772,0.002066622,-0.007297218000000001,4.516,0,0
-0.003323752,0.0043507502,-0.002252316,0.004376034000000001,-0.009866438000000002,4.517,0,0
-0.004380448000000001,0.006039708,-0.0017274133999999998,0.005270614,-0.009579514,4.518,0,0
-0.003766060000000001,0.0056305118,-0.0013011297999999999,0.00493382,-0.007840765999999999,4.519,0,0
-0.0026368020000000006,0.005059015400000001,-0.001152949,0.0046335180000000005,-0.005823048999999999,4.52,0,0
-0.0007807620000000004,0.0043732154,-0.00015394699999999993,0.003192874,-0.0025608550000000003,4.521,0,0
0.001227362,0.0017597414000000003,0.0008216130000000001,-0.00011371599999999982,0.0007785370000000002,4.522,0,0
0.0018878816,-0.0010753806000000001,0.0009146454000000001,-0.003155386,0.0024112450000000002,4.523,0,0
0.0007866356000000001,-0.0024188244,0.0008849366000000001,-0.0051297420000000005,0.0032418710000000008,4.524,0,0
-0.0005276304,-0.0034561840000000006,0.0010293272,-0.007301002,0.004337510000000001,4.525,0,0
-0.0011420562000000003,-0.004356204000000001,0.0008229916,-0.008134762,0.004381188,4.526,0,0
-0.0007457562,-0.0038375100000000006,0.0004823238000000001,-0.006715241,0.00313332974,4.527,0,0
0.00021810419999999974,-0.0028103960000000006,0.00032048711000000004,-0.004840275800000001,0.0024208467400000004,4.528,0,0
0.0013632861999999999,-0.0024475300000000003,3.3366310000000014e-05,-0.003312334,0.0013132727400000002,4.529,0,0
0.0031266821999999996,-0.0021474840000000003,-0.0005476290900000001,-0.0013025612,-0.0014457792600000002,4.53,0,0
0.004412706000000001,-0.0019821680000000003,-0.00097657749,0.0005258368000000001,-0.00401324326,4.531,0,0
0.00390665,-0.0011224580000000007,-0.00121864949,0.0009560138,-0.005444613,4.532,0,0
0.0020187259999999998,0.0015780660000000001,-0.0015198038,0.0017000126,-0.00638098,4.533,0,0
-8.678600000000015e-05,0.004756356,-0.0014733358000000002,0.0030137868,-0.006311462,4.534,0,0
-0.002295634,0.006998508000000001,-0.0011618224,0.00369975,-0.004550106,4.535,0,0
-0.004482644000000001,0.008313494000000001,-0.0010502388,0.004384006,-0.0023106680000000005,4.536,0,0
-0.005224306000000001,0.008236776000000001,-0.0008362554000000001,0.005347232,-0.00012828999999999998,4.537,0,0
-0.0039749320000000005,0.006150954,-0.00010322740000000003,0.004928138,0.002544792,4.538,0,0
-0.001962362,0.0030852260000000004,0.0006340766000000001,0.0032911900000000003,0.00487655,4.539,0,0
-0.00026286200000000005,-1.6281999999999842e-05,0.0009493484000000002,0.001565804,0.005880228,4.54,0,0
0.0007761668000000001,-0.003017276,0.0014871468000000002,-0.0010544719999999999,0.005741586,4.541,0,0
0.0014686808,-0.005826968,0.0018647532,-0.003804432,0.0048775220000000005,4.542,0,0
0.0015806868,-0.007134020000000001,0.0011856512,-0.005115024,0.0029599580000000004,4.543,0,0
0.0010476728000000002,-0.005564526,0.0004763014000000001,-0.0045872904,0.0010091432000000004,4.544,0,0
0.0007818194000000001,-0.0034428080000000008,0.00043070080000000006,-0.0032583284,0.0004111852,4.545,0,0
0.0001628766,-0.0020043920000000002,0.00020938680000000005,-0.0010911044,0.00043624120000000004,4.546,0,0
-0.0013345473999999999,-0.0002612559999999998,-4.988800000000002e-05,0.0019483256000000003,0.0009596752000000001,4.547,0,0
-0.0027982934,0.000355698,0.00053204,0.0043034876,0.0017299852000000001,4.548,0,0
-0.0039676994,-0.001138952,0.0011521838,0.005548806,0.0012536920000000003,4.549,0,0
-0.004855494,-0.002069398,0.0010902911000000002,0.006210014,-0.00019268000000000009,4.55,0,0
-0.004920412,-0.0009059739999999998,0.0010830105,0.005912288,-0.00119909,4.551,0,0
-0.0041392140000000004,-4.9040000000000086e-05,0.0012640813000000001,0.003964825999999999,-0.002002522,4.552,0,0
-0.002561584,0.000846784,0.0010217717,0.00174596,-0.002989716,4.553,0,0
-0.000299942,0.003839828,0.0008725997,-0.00021452400000000012,-0.002428634,4.554,0,0
0.0012155720000000003,0.006367866,0.0015460398,-0.002223396,-0.00036122400000000005,4.555,0,0
0.002384608,0.006106517999999999,0.0019721884000000003,-0.0034515120000000003,0.0011418880000000002,4.556,0,0
0.004051610000000001,0.005370881399999999,0.0021269204,-0.0035085320000000004,0.002091564,4.557,0,0
0.00471531,0.004995316799999999,0.0026023200000000004,-0.003024838,0.003557602,4.558,0,0
0.004503406000000001,0.0029243688,0.0024849552000000006,-0.0025491548000000004,0.004688954,4.559,0,0
0.004652178,0.00020463479999999993,0.0016515368000000006,-0.0018304648,0.004227010000000001,4.56,0,0
0.004711033999999999,-0.0015723352000000003,0.0008647268000000004,-0.000967121,0.003664342,4.561,0,0
0.004108308,-0.0037725486,5.2932800000000165e-05,-0.00034866500000000006,0.0032866638000000003,4.562,0,0
0.00399345,-0.006757068,-0.0008813672,-6.815459999999996e-05,0.0016158898,4.563,0,0
0.003943592,-0.00912074,-0.0013748664,-2.426119999999995e-05,-0.0003711202,4.564,0,0
0.00276136,-0.009774138000000002,-0.0013690619999999999,-0.00028253920000000007,-0.0018032202000000004,4.565,0,0
0.0021965386,-0.009327974,-0.00134772,-0.0011676310000000001,-0.0037038362000000003,4.566,0,0
0.0028709746000000003,-0.0077171620000000005,-0.0016413140000000003,-0.002007241,-0.005486472,4.567,0,0
0.0026647426,-0.004423362,-0.001587482,-0.0024365954,-0.005513144,4.568,0,0
-0.0004912013999999998,-0.0006362479999999996,-0.0011287192,-0.0027730580000000006,-0.0047462212,4.569,0,0
-0.0043121274,0.0032816640000000005,-0.0012414052000000002,-0.0018079460000000004,-0.0039475632,4.57,0,0
-0.0057733540000000005,0.007192566,-0.0015920752,-0.00021899600000000006,-0.0017303072,4.571,0,0
-0.006705314,0.009500036000000002,-0.0015240352,0.0003037738,0.0011635848000000001,4.572,0,0
-0.007443388600000001,0.009456604,-0.0018335972000000002,0.00069677,0.0027556468,4.573,0,0
-0.004756794000000001,0.008250690000000001,-0.0024950780000000004,0.0012607427999999999,0.003933514,4.574,0,0
0.00011991999999999992,0.0053836134,-0.0023241284,0.0013690728,0.005350284,4.575,0,0
0.0015919746000000001,0.0014792833999999998,-0.0017636004,0.0018736848000000003,0.005665482,4.576,0,0
0.0007540066000000002,-0.0007420285999999998,-0.0011781423999999998,0.002859309,0.004919782,4.577,0,0
0.0009242512000000001,-0.0010856834,-0.00024519439999999993,0.0030528668000000003,0.004336864,4.578,0,0
0.0009814386,-0.0007833174,0.0004988076,0.0029445070000000003,0.0033123072,4.579,0,0
0.0010704546,-0.00019893279999999992,0.0004906120000000001,0.002748729,0.0012555732,4.58,0,0
0.001639724,0.00030396519999999997,0.0004489002000000001,0.0015850632000000001,-0.00043598279999999996,4.581,0,0
0.0018743470000000002,0.0002595671999999998,0.0004983926,0.0001267372000000001,-0.0017158268000000002,4.582,0,0
0.0012306209999999999,0.00017995399999999977,-0.00012492140000000003,-0.0007389748,-0.0037166328000000004,4.583,0,0
0.00010376100000000007,0.00017912199999999998,-0.0003496454,-0.0013968778,-0.005773846,4.584,0,0
-0.001148827,0.00034237800000000006,0.00013579260000000002,-0.0026173498,-0.006551334,4.585,0,0
-0.002431621,0.0007156900000000002,0.00040938840000000003,-0.0037867800000000004,-0.007056856,4.586,0,0
-0.002877574,0.000724728,0.000569416,-0.00444729,-0.007318004,4.587,0,0
-0.002184216,-0.0012707719999999999,0.001049891,-0.005076784,-0.0057808836,4.588,0,0
-0.000858658,-0.005122766,0.0012641150000000001,-0.005343532000000001,-0.0036785742000000005,4.589,0,0
0.00084464,-0.00791537,0.001097497,-0.004792584,-0.0020705534000000003,4.59,0,0
0.0021881720000000004,-0.008508122,0.0012110390000000001,-0.003170502,3.791259999999996e-05,4.591,0,0
0.0023309360000000005,-0.007520872,0.0010431966,-0.0010998800000000001,0.0023145166,4.592,0,0
0.0011292860000000006,-0.004576324,0.0005279716000000001,0.0008763040000000001,0.0031947601999999997,4.593,0,0
-0.0007996659999999998,0.0006689959999999998,2.722960000000002e-05,0.003192236,0.0041585088,4.594,0,0
-0.002038693442,0.005178816,-0.0003028138,0.005496022,0.006333008,4.595,0,0
-0.0013707634419999999,0.006894810000000001,-0.0007862084,0.0066343339999999995,0.007098046,4.596,0,0
0.0007372605580000002,0.007603098,-0.001140848,0.006891524,0.006196822,4.597,0,0
0.0028971825580000003,0.007587618,-0.0009238794000000002,0.00682861,0.0055381648,4.598,0,0
0.0046832585579999995,0.00567134,-0.0009880914,0.0052888716,0.0037761468,4.599,0,0
0.005162432000000001,0.0029229520000000004,-0.001232498,0.0028455596000000003,0.0002666808000000003,4.6,0,0
0.004226262000000001,0.0007094779999999999,-0.0008913726000000001,0.0007087676000000001,-0.0021209792000000003,4.601,0,0
0.0027365740000000003,-0.0018985680000000002,-0.0003856526,-0.0010663044,-0.0029567772,4.602,0,0
0.0019238080000000002,-0.00444715,-0.00015362160000000012,-0.0020649564,-0.004051006000000001,4.603,0,0
0.001942562,-0.005642998000000001,0.00043966640000000004,-0.0027045940000000003,-0.004613828,4.604,0,0
0.000447142,-0.005441916000000001,0.0009414382,-0.0036133680000000005,-0.004100956,4.605,0,0
-0.002169334,-0.00357535,0.0009243814000000001,-0.004278798,-0.0043753460000000004,4.606,0,0
-0.003729942,-0.0012698379999999997,0.0007009590000000001,-0.0037343556000000006,-0.004921562000000001,4.607,0,0
-0.0040679644000000004,9.310400000000016e-05,0.00031208140000000016,-0.0026040816000000005,-0.003937077200000001,4.608,0,0
-0.0041681636,0.0002051659999999999,-0.00016149659999999995,-0.0011677136000000003,-0.0023271212,4.609,0,0
-0.0038914896000000004,-0.00017747800000000012,-0.0005849043999999999,0.0009996044,-0.0009955332000000001,4.61,0,0
-0.0031247496,-0.00036995400000000014,-0.0006895928,0.0030916104,0.0011006668,4.611,0,0
-0.0036111656,-0.0006675419999999999,-0.00046549240000000005,0.0038753280000000004,0.0031012648,4.612,0,0
-0.0052515492,-0.00013362599999999997,-0.00029602359999999996,0.0031630928,0.0035016680000000003,4.613,0,0
-0.005091434,0.00138309,-0.0002957456,0.0024473964,0.0032934068000000003,4.614,0,0
-0.001842874,0.0017818016,-0.00025320160000000003,0.0013829144,0.002781449,4.615,0,0
0.0021832460000000002,0.00044127960000000014,-0.0007635832,-0.0003731956,0.001248251,4.616,0,0
0.004734138,-0.0001737484000000001,-0.0014332352,-0.0018344536,-0.000807613,4.617,0,0
0.005763406,0.00011924159999999995,-0.0011537052,-0.0028744824000000004,-0.0016987730000000002,4.618,0,0
0.004902355999999999,0.00014235959999999988,-0.0007007612,-0.003917212,-0.0018995652,4.619,0,0
0.0015942700000000005,0.000888244,-0.0005598320000000001,-0.004434534,-0.0028874054,4.62,0,0
-0.0022394400000000005,0.002271772,5.562680000000003e-05,-0.003591584,-0.0032210954,4.621,0,0
-0.0037332040000000004,0.0029039440000000003,0.0007407868000000001,-0.0027815780000000003,-0.0027471214,4.622,0,0
-0.0032439014,0.0023649184000000003,0.0004573726,-0.002222672,-0.0035055114000000004,4.623,0,0
-0.0023921014000000003,0.001482765,5.88599999999976e-07,-0.0009469964000000001,-0.003951574,4.624,0,0
-0.0008464054000000004,2.786500000000018e-05,0.00030790539999999995,0.00013346560000000005,-0.002511658,4.625,0,0
0.0008565866000000001,-0.0023943849999999997,0.00042883259999999996,0.0001692612000000001,-0.001065108,4.626,0,0
0.0013616726,-0.004150265,0.0001272734,0.0008299772,0.0003651819999999999,4.627,0,0
0.0010848540000000001,-0.0047546374,0.00045634679999999995,0.0023624112,0.00292835,4.628,0,0
0.0007366974,-0.005142312,0.0013071808,0.0034166356000000005,0.0049105400000000006,4.629,0,0
-0.00032942660000000006,-0.0036288499999999994,0.0014273608,0.0043511216000000005,0.00502405,4.63,0,0
-0.0013754866,6.573200000000042e-05,0.0011440072400000002,0.00477324,0.004993954,4.631,0,0
-0.0008784985999999999,0.0021125740000000003,0.00117668342,0.004103899,0.005038407999999999,4.632,0,0
0.0002157614,0.0026351832000000006,0.00093525822,0.002985127,0.0039488736,4.633,0,0
0.0002064882,0.004674263200000001,0.00054690222,0.002060997,0.0022021856000000004,4.634,0,0
3.479419999999995e-05,0.006125515200000001,0.00027216482,0.0012545070000000002,0.0012960396000000001,4.635,0,0
0.00023930619999999996,0.005020577199999999,-0.00015225361999999994,0.001036901,0.0005966656000000001,4.636,0,0
-0.0005327578000000001,0.003974363200000001,-0.00042388859999999997,0.001483298,-0.0008958284000000001,4.637,0,0
-0.0016327798,0.0032087619999999996,-0.00017601139999999995,0.001708964,-0.0013154899999999999,4.638,0,0
-0.0013541760000000001,0.0002427499999999997,-0.00013362539999999998,0.0014617168,-0.0009332136000000002,4.639,0,0
0.00011944599999999983,-0.003293728,-0.0002872232,0.0011282222,-0.0014486336000000002,4.64,0,0
0.001595384,-0.004542642,-3.715999999999999e-05,0.0007562617999999999,-0.0019792456,4.641,0,0
0.003691046,-0.00519554,0.00012765940000000002,-0.00025939619999999997,-0.0016348576000000002,4.642,0,0
0.00595974,-0.006616744000000001,-0.00016746919999999997,-0.0012560562,-0.0019887576,4.643,0,0
0.007404388,-0.007871314,-0.0004684048,-0.001867057,-0.002564096,4.644,0,0
0.007051664000000001,-0.007489666000000001,-0.00022113960000000007,-0.0027741584000000002,-0.0016515734,4.645,0,0
0.003922818,-0.0038748499999999996,0.0002513532,-0.003725674,-0.0012584646000000001,4.646,0,0
-0.00011355600000000077,0.0017689699999999995,0.00042947700000000005,-0.004051844000000001,-0.0016051486,4.647,0,0
-0.0033406620000000003,0.006444890000000001,0.0002321976,-0.003901412,-0.0010411366000000002,4.648,0,0
-0.006222364000000001,0.009475276000000001,-6.138679999999992e-05,-0.003600130000000001,-0.0005161454,4.649,0,0
-0.008347378,0.010468975200000001,-0.00034633479999999996,-0.0023311440000000003,-0.0006343176,4.65,0,0
-0.006800022000000001,0.007484008800000001,-0.0007324868000000001,-0.00027489400000000014,0.0001914736000000001,4.651,0,0
-0.0032264200000000007,0.0021892068000000002,-0.0007958937400000001,0.00146772,0.0019052256000000002,4.652,0,0
-0.001394144,-0.0014661292000000001,-0.00040906074,0.0028500440000000004,0.0028591776000000003,4.653,0,0
0.000109682,-0.0024076792,0.00011103326000000001,0.0036869480000000002,0.0035065244,4.654,0,0
0.002128248,-0.0023428976000000002,0.00078178326,0.0031637636,0.004394358,4.655,0,0
0.0025698974,-0.0024238402,0.00122502926,0.0018613356000000002,0.003993308,4.656,0,0
0.0013197328,-0.0018074262,0.0011864890000000002,0.0008195456000000002,0.002364118,4.657,0,0
0.0003023528,-0.0005557630000000001,0.001115707,-0.0006968284000000001,0.0011426760000000002,4.658,0,0
-0.0004155072000000001,0.000640461,0.00093395402,-0.0023527744000000003,4.3756000000000047e-05,4.659,0,0
-0.0018468052,0.0022534041999999997,0.00035335042000000005,-0.003132578,-0.001799996,4.66,0,0
-0.0026770806000000003,0.0036813212,-0.00025927558,-0.0034673160000000002,-0.002591274,4.661,0,0
-0.001354092,0.0034592732,-0.00034565178,-0.0034380022000000004,-0.001267154,4.662,0,0
0.00014478199999999955,0.0017956520000000002,-0.00038856278,-0.0028224856,-0.00046983600000000006,4.663,0,0
0.0008125779999999998,-0.0009706680000000003,-0.0004410488,-0.0018477698000000005,-0.0001085178000000001,4.664,0,0
0.00226527,-0.004894502,9.55568e-05,-0.0011638366000000001,0.0013971622,4.665,0,0
0.003570728,-0.008456350000000001,0.0005524168000000001,-0.0009377126,0.0018936390000000001,4.666,0,0
0.0037498339999999996,-0.009012378,0.0004829344,-0.000576525,0.0006889909999999999,4.667,0,0
0.004210294,-0.0064857840000000005,0.00047449440000000003,0.00014150239999999998,0.001066955,4.668,0,0
0.003708948,-0.0030131180000000013,0.00046829399999999996,0.0008021126000000001,0.0025442968,4.669,0,0
0.00141873,0.001046188,-5.817200000000013e-06,0.0012604854000000001,0.0021244774,4.67,0,0
-0.001081268,0.005326868,-0.0003764842,0.001722832,0.0012458825999999998,4.671,0,0
-0.004230264,0.00808572,-0.0005958236000000001,0.0015934996000000002,0.0007402466000000001,4.672,0,0
-0.007129750000000001,0.00873184,-0.0010840856,0.0012420816000000001,-0.0008600654000000001,4.673,0,0
-0.006791469200000001,0.007877282,-0.0012482602000000002,0.0013453736000000002,-0.0025961834000000003,4.674,0,0
-0.0026769072,0.005843216,-0.000970231,0.0014975296,-0.0026077502000000003,4.675,0,0
0.0019086368000000003,0.0037463900000000005,-0.0006769449999999999,0.001748865,-0.0016118298,4.676,0,0
0.004376806800000001,0.002685014,-9.124999999999997e-05,0.002181222,-0.0009457758000000001,4.677,0,0
0.0056324714,0.0010910720000000002,0.000839574,0.002171686,-0.00010337280000000001,4.678,0,0
0.005687760600000001,-0.0013269420000000002,0.0009357052,0.0014608214,0.0004276412,4.679,0,0
0.0029070426000000005,-0.0032441620000000005,1.1397199999999973e-05,0.0009352288000000001,0.00022843399999999996,4.68,0,0
-0.0004575134,-0.0058250360000000004,-0.00024691180000000005,0.0003274388000000001,0.0006609796000000001,4.681,0,0
-0.0008156914,-0.009769588000000001,-0.00021919880000000007,-0.00047412320000000003,0.0012609376000000002,4.682,0,0
0.0002094480000000001,-0.012454566,-0.0008324296000000002,-0.0007521199999999999,0.0008083386,4.683,0,0
0.000511458,-0.011865116000000002,-0.0008171300000000001,-0.0006626728,6.272859999999995e-05,4.684,0,0
0.0017741480000000001,-0.010337190000000001,-0.00010344260000000007,-0.0005814133999999999,0.0002781484,4.685,0,0
0.0032183840000000003,-0.00851937,0.0002405194,-0.0004638026,1.2942399999999919e-05,4.686,0,0
0.0012713499999999999,-0.004361762000000001,0.00024616540000000004,0.00013469739999999998,-0.0011352176000000002,4.687,0,0
-0.0022659539999999997,0.0001492119999999999,0.0003522184000000001,0.00030788340000000003,-0.0011757996000000001,4.688,0,0
-0.004339314,0.0029383580000000003,-6.672239999999988e-05,-0.0007176952,-0.0012348536,4.689,0,0
-0.0054999540000000005,0.005932932,-0.0011423938,-0.0016664680000000002,-0.002929142,4.69,0,0
-0.005410128,0.009356772,-0.0018430818,-0.0020090648,-0.004401864,4.691,0,0
-0.0028525639999999997,0.010524444,-0.0020256574,-0.0027726768,-0.0044364439999999995,4.692,0,0
0.000559264,0.010365742,-0.0019175052000000004,-0.0029512724,-0.004555124000000001,4.693,0,0
0.0025377859999999998,0.01003264,-0.0012734228,-0.0024265524000000004,-0.0043970400000000005,4.694,0,0
0.0022785039999999998,0.007815901,-0.00022449600000000003,-0.0029774104,-0.003255718,4.695,0,0
-0.00024254600000000038,0.004125787,0.00040621060000000004,-0.0036634784,-0.002564938,4.696,0,0
-0.0028412380000000003,0.0009042970000000001,0.0006783702,-0.0032087118,-0.0018829646000000002,4.697,0,0
-0.0038983360000000005,-0.0008490166000000001,0.0010069698000000002,-0.0017921554000000003,4.3059400000000376e-05,4.698,0,0
-0.003925228,-0.0013144946,0.0010536904,0.0007629846000000002,0.0024647074,4.699,0,0
-0.00299422,-0.0003695336000000002,0.0010256356000000002,0.0037809466,0.0042503594000000006,4.7,0,0
-0.00020279800000000013,0.0012452364,0.0009352058000000001,0.0047071606,0.0053410634,4.701,0,0
0.002811,0.0018252804,0.0008639178000000001,0.003267804000000001,0.005215098,4.702,0,0
0.003938304,0.0006527059999999996,0.0007944018,0.0007850700000000003,0.0023028320000000007,4.703,0,0
0.003960056,-0.0011947480000000003,0.000786398,-0.00209076,-0.001110308,4.704,0,0
0.0035075758000000005,-0.002838266,0.0011007080000000002,-0.003930802,-0.002225754,4.705,0,0
0.0023171722000000002,-0.004460302,0.0011684358,-0.0028995279999999997,-0.00252529,4.706,0,0
0.0006340322000000002,-0.005121220000000001,0.0006723397999999999,0.0003298120000000003,-0.0021691536,4.707,0,0
-0.0007347318,-0.00427342,-4.3370200000000054e-05,0.002777092,-0.00014198759999999987,4.708,0,0
-0.0012590318000000001,-0.0029049538,-0.0005355394,0.004330274,0.0018349644000000003,4.709,0,0
-0.0010777972,-0.0015784278,-0.001061358,0.005535018000000001,0.0018811464000000001,4.71,0,0
-0.0015523436,0.0007529382000000002,-0.0014640826000000002,0.005223694,0.00162503778,4.711,0,0
-0.0015982055999999999,0.0028570562000000002,-0.0013469716,0.0036825920000000006,0.0021506873800000003,4.712,0,0
-0.0006296136,0.0032732312000000006,-0.00091063288,0.002609908,0.00210285138,4.713,0,0
0.00011359040000000014,0.0030467420000000003,-0.0006757920799999999,0.001581704,0.0018327853800000002,4.714,0,0
0.0015156020000000002,0.0015655440000000003,-0.00043139347999999995,-0.0003114160000000001,0.00204789738,4.715,0,0
0.003241706,-0.0017509520000000005,0.00012902852,-0.0016981420000000001,0.0021269288000000004,4.716,0,0
0.004044178,-0.004341322,0.00047686352,-0.002087661,0.001440634,4.717,0,0
0.0036473183660000004,-0.0039147850000000005,0.00048222554,-0.0020979510000000002,0.001373488,4.718,0,0
0.002565358366,-0.0025658040000000005,0.00020831073999999993,-0.001388237,0.0018669619999999998,4.719,0,0
0.00044358236599999993,-0.0013728680000000002,-0.00048642126000000006,0.0001414589999999998,0.001484146,4.72,0,0
-0.0015247016340000001,0.0008172120000000001,-0.0011195932600000002,0.001323805,0.0014667412,4.721,0,0
-0.002214003634,0.0023946316,-0.0011666102600000003,0.001960036,0.00152674506,4.722,0,0
-0.002881166,0.0020385299199999997,-0.0014122190000000001,0.002337762,0.00034078706000000014,4.723,0,0
-0.0031498620000000002,0.00135536792,-0.001590757,0.002305254,-0.00125295094,4.724,0,0
-0.0023075120000000003,0.0015058919200000003,-0.0010162146,0.00226086,-0.0017936869400000002,4.725,0,0
-0.0014867468800000003,0.0013651893200000002,-0.0007537226000000001,0.002309236,-0.0021756289400000003,4.726,0,0
-0.00168859088,0.0009435297200000004,-0.0009206876,0.0019897352,-0.0026682460000000004,4.727,0,0
-0.00161202288,0.00039441339999999995,-0.00022873160000000002,0.0009449712,-0.0016624680000000003,4.728,0,0
-0.00170007288,-0.0008365186000000001,0.0007947064,-0.0005664768000000001,6.864199999999984e-05,4.729,0,0
-0.00294117088,-0.0020369026,0.001195864,-0.0019942308000000003,0.000877154,4.73,0,0
-0.002955824,-0.00271675,0.0019517380000000002,-0.0033219228,0.001495266,4.731,0,0
-0.0006784060000000001,-0.00259795,0.002875222,-0.00448463,0.0026752399999999997,4.732,0,0
0.0018390560000000004,-0.0017134719999999997,0.0028126340000000005,-0.004766444,0.002773086,4.733,0,0
0.0036208160000000002,-0.0007571580000000002,0.0025966300000000004,-0.004166968,0.0017423696000000001,4.734,0,0
0.004387034000000001,5.612979999999998e-05,0.002643438,-0.0033080181999999994,0.0012960110200000003,4.735,0,0
0.002701126,0.0010005758,0.0020045976,-0.0022088638,0.0007635670200000001,4.736,0,0
-0.00157626,0.0013159883999999998,0.0009400148,-0.0006423338000000002,-0.0009242329800000001,4.737,0,0
-0.006350090000000001,0.0006150404,0.0004315064,0.0008904522,-0.0024093709800000005,4.738,0,0
-0.009097492,-0.0008234016000000001,4.543720000000002e-05,0.0014451034,-0.00380486458,4.739,0,0
-0.00783039,-0.0023395954,-0.0006952288,0.0014695042,-0.005664758,4.74,0,0
-0.0024980619999999997,-0.0030029254,-0.0008407126000000001,0.0016123878000000001,-0.006899332,4.741,0,0
0.0035407980000000004,-0.0026375120000000003,-0.0005795742000000001,0.0009473262000000001,-0.007009502000000001,4.742,0,0
0.008512098000000001,-0.001379632,-0.0007607098000000001,-0.0003936738,-0.007027233999999999,4.743,0,0
0.012195406000000002,0.0005722039999999998,-0.0007839016,-0.001301503,-0.006641477999999999,4.744,0,0
0.012256560000000001,0.00258813,-7.663560000000002e-05,-0.0022636496,-0.004685655800000001,4.745,0,0
0.009007638,0.00311132,0.0004295926,-0.0035588636,-0.0029269898000000003,4.746,0,0
0.005517902,0.003418642,0.0006890350000000001,-0.004478616,-0.0017216864,4.747,0,0
0.0028361360000000004,0.0037756120000000002,0.001461619,-0.005118716000000001,0.0003131316,4.748,0,0
0.0006558080000000001,0.002565588,0.001909216,-0.005231448,0.0028828756000000002,4.749,0,0
-0.0008808179999999999,0.0007710959999999998,0.0018820040000000003,-0.0038386180000000002,0.0045663374,4.75,0,0
-0.002198922,-0.0010505179999999999,0.001942822,-0.001363284,0.0056435094,4.751,0,0
-0.0039130580000000005,-0.0036314620000000002,0.0016533832,0.000926456,0.0064432660000000004,4.752,0,0
-0.005104576,-0.006121142,0.0008225572000000001,0.003375574,0.006002456000000001,4.753,0,0
-0.0054039940000000005,-0.006235610000000001,-9.861280000000004e-05,0.005914022,0.0046044574,4.754,0,0
-0.004598726000000001,-0.0050016008,-0.0007139288,0.006719738000000001,0.0031500974000000003,4.755,0,0
-0.0031256499999999998,-0.0029117028,-0.0013915588,0.006288212000000001,0.0018262146000000003,4.756,0,0
-0.002353726,0.00042947519999999976,-0.0018256680000000001,0.006191422000000001,0.0003132746,4.757,0,0
-0.001715018,0.0035436931999999997,-0.00146188986,0.005558178,-0.0008883154000000001,4.758,0,0
-0.0007860060000000001,0.0055646132000000004,-0.00111237786,0.004324052000000001,-0.0016259448,4.759,0,0
-0.000108054,0.0063608020000000005,-0.00091354406,0.0038191200000000005,-0.0025617088,4.76,0,0
0.0002405240000000001,0.006237100000000001,-0.00048165606,0.0033581280000000006,-0.002964336,4.761,0,0
0.0011099713999999999,0.005159786000000001,-0.00018944166000000006,0.0019908440000000003,-0.002002292,4.762,0,0
0.0013244474000000004,0.0034407506,-0.0004263258,0.0005299440000000001,-0.0009904360000000001,4.763,0,0
0.00038027540000000015,0.0016128386,-0.00034293560000000004,-0.0008122359999999998,-1.5858000000000105e-05,4.764,0,0
-0.0006489125999999998,0.00014945660000000016,0.00021991460000000002,-0.002457454,0.001441378,4.765,0,0
-0.0013460024,-0.0017222194,0.00019226540000000006,-0.003557046,0.002339992,4.766,0,0
-0.00034983780000000003,-0.0045757714,-0.00013079299999999998,-0.003623574,0.0024888080000000003,4.767,0,0
0.0012517262000000002,-0.006441166,2.3212000000000102e-05,-0.003279586,0.003033094,4.768,0,0
0.0013630921999999998,-0.006857586000000001,5.499180000000006e-05,-0.0028287480000000003,0.003400662,4.769,0,0
0.0001325502,-0.006383640599999999,-0.0008734562000000001,-0.0023467460000000002,0.0023511834000000003,4.77,0,0
-0.0013128480000000004,-0.003705744599999999,-0.001714919,-0.002353022,0.0015260014,4.771,0,0
-0.0027439440000000003,0.0003389694000000001,-0.0016079210000000002,-0.0027757420000000003,0.0008640460000000001,4.772,0,0
-0.003782854,0.0032579694000000005,-0.0015885826000000003,-0.0025702800000000003,-0.001089652,4.773,0,0
-0.0038838060000000005,0.0051186914,-0.0020241746000000003,-0.001793152,-0.003028958,4.774,0,0
-0.0026700252000000004,0.006208162000000001,-0.0019549226,-0.0008939500000000001,-0.0036650194000000004,4.775,0,0
-0.0011565412000000001,0.005815410000000001,-0.0013496416,0.00096532,-0.0043242974,4.776,0,0
-0.0010658972000000002,0.005110626,-0.0010817496000000001,0.0035580280000000004,-0.004810816,4.777,0,0
-0.000856009,0.004716764,-0.0006416589999999999,0.004856568,-0.0033238440000000003,4.778,0,0
0.00041776300000000003,0.003822484,0.0004144670000000001,0.004455834400000001,-0.0015218279999999998,4.779,0,0
0.0012586542,0.002352516,0.0010668010000000003,0.0031560584000000004,-0.00043044600000000013,4.78,0,0
0.0015570382,-0.00022209799999999978,0.0014440060000000003,0.0007890864000000004,0.001300904,4.781,0,0
0.0024761742000000003,-0.0038632680000000004,0.0017008700000000004,-0.0020871156000000003,0.003024634,4.782,0,0
0.00305922,-0.006745532,0.0014820532000000004,-0.0037846216,0.003144032,4.783,0,0
0.002900542,-0.007576508,0.0010053472,-0.004113942,0.00281848,4.784,0,0
0.0029257160000000005,-0.0069708128,0.0004758652,-0.00382308,0.003372662,4.785,0,0
0.002735248,-0.005397124400000001,-7.764079999999997e-05,-0.0027082818199999996,0.003517566,4.786,0,0
0.002642684,-0.0027462512,-0.0006777728,-0.00087013382,0.0032226040000000004,4.787,0,0
0.003123882,0.00018411480000000004,-0.0010336116,0.00030519018000000004,0.003418106,4.788,0,0
0.0034499920000000002,0.0013861968,-0.0011251972,0.0006096481800000001,0.002908856,4.789,0,0
0.003815886,0.0009189816,-0.0010824752000000001,0.00158350618,0.001213222,4.79,0,0
0.00454113,0.0008399671999999999,-0.0009302142,0.00242385,-0.000789106,4.791,0,0
0.004316752,0.0009838958,-0.0002987602000000001,0.0022743000000000004,-0.002518456,4.792,0,0
0.003751402,0.00010184980000000001,0.00011717740000000002,0.0030237840000000003,-0.0034536880000000003,4.793,0,0
0.0033362939999999996,-0.00042354579999999995,0.00031702460000000005,0.004221944,-0.003476082,4.794,0,0
0.0024620280000000002,5.8085000000000024e-05,0.0011455526,0.0034459520000000004,-0.0024322512,4.795,0,0
0.0016457840000000002,-6.873000000000014e-06,0.0015749836,0.0014071880000000004,-0.0011041172,4.796,0,0
0.000581756,0.00043985319999999994,0.0014367332000000002,-0.0005294220000000001,-0.00043179920000000003,4.797,0,0
-0.0016472079999999998,0.0019577972,0.0014169812000000002,-0.0029099620000000003,0.00026999480000000013,4.798,0,0
-0.005121498,0.0034037028,0.0013042916000000002,-0.00467283,0.0012438388000000002,4.799,0,0
-0.00837195,0.00409343,0.0004152916000000002,-0.0043603368000000005,0.0011669434,4.8,0,0
-0.009927708,0.003721748000000001,-0.0005947264,-0.0027678328,0.0010341422000000001,4.801,0,0
-0.0093538948,0.0016753260000000004,-0.0008348404,-0.0011648668,0.0019218861999999999,4.802,0,0
-0.0065406788,-0.002311358,-0.0010199310000000002,0.0001114582,0.0014898902,4.803,0,0
-0.0023997848000000006,-0.0058733200000000005,-0.0011835794000000003,0.0011266742,0.0003304642000000001,4.804,0,0
-0.00015944679999999988,-0.005850038000000001,-0.0007755072,0.001433225,0.0002018090000000001,4.805,0,0
0.0007377012000000002,-0.0029394740000000005,-0.00017487480000000005,0.001298007,-9.995999999999963e-06,4.806,0,0
0.002062034,0.00012616399999999936,-0.00023820480000000003,0.001970851,-0.000790775,4.807,0,0
0.000760996,0.003969464,-0.000203467,0.0028278260000000003,-0.0014676390000000002,4.808,0,0
-0.001287234,0.006762344,0.00018930340000000001,0.0027411068000000004,-0.001845187,4.809,0,0
-0.000247238,0.0058580046,-0.0002501628,0.0023751212,-0.0025890692,4.81,0,0
0.000651256,0.0041431546,-0.0003662712,0.0012893792,-0.0030714469999999997,4.811,0,0
0.00033823200000000005,0.0033185466000000005,7.718520000000003e-05,-0.0008077128000000002,-0.002224098,4.812,0,0
0.0020329500000000004,0.0023879046,8.7835e-05,-0.0026115388000000003,-0.000936084,4.813,0,0
0.0033788760000000003,0.0024405286,0.000133595,-0.0034267776000000004,0.00030279600000000014,4.814,0,0
0.0026658540000000005,0.00318216,0.000642537,-0.0036323600000000003,0.002190262,4.815,0,0
0.0017788620000000004,0.00208297,0.0008572126,-0.003471408,0.0038583960000000005,4.816,0,0
0.00019878600000000006,4.085800000000017e-05,0.0006108878,-0.0029385400000000003,0.00384073,4.817,0,0
-0.0010900530000000001,-0.002030466,0.0007842288000000002,-0.0020392216,0.003952730000000001,4.818,0,0
-0.0003433290000000001,-0.0048213579999999995,0.0008762828,-0.0007636016000000001,0.004294442,4.819,0,0
0.0011850749999999998,-0.00679317,0.0009289188000000001,0.0005011323999999999,0.0030190714,4.82,0,0
0.0025861589999999998,-0.006879074000000001,0.0010247126,0.0018536904,0.0014978633999999996,4.821,0,0
0.004276379,-0.006532792,0.0011019888,0.0026517984,0.0001707834,4.822,0,0
0.004030715799999999,-0.005566766,0.0011302788,0.0026585332,-0.0019394846000000002,4.823,0,0
0.0011915517999999997,-0.0030823860000000003,0.0007431718,0.0023060152,-0.0043631206,4.824,0,0
-0.0018831642000000004,-0.0006820799999999996,0.00036736220000000005,0.0015231836000000002,-0.005698758,4.825,0,0
-0.0052221002,0.0013102880000000004,-1.0717200000000027e-05,0.0007328424000000002,-0.00659646,4.826,0,0
-0.0088309242,0.0038461280000000007,-0.0006297466,0.00022646840000000002,-0.007559744,4.827,0,0
-0.010185638,0.005924264000000001,-0.0010330194,-0.0002583348,-0.006562186,4.828,0,0
-0.008259219200000001,0.005546499400000001,-0.0010430431999999999,-0.000688447,-0.003891590000000001,4.829,0,0
-0.0042287591999999995,0.0031674934000000005,-0.0011835856,-0.0008435394,-0.0012160980000000003,4.83,0,0
0.0007442808000000002,0.0011467314000000004,-0.001091298,-0.0010693722,0.001985426,4.831,0,0
0.0045081848,-0.0002473353999999996,-0.000789342,-0.0008757972000000001,0.0055784580000000005,4.832,0,0
0.0062985148,-0.0021521854,-0.0009821832,-0.0004667675999999999,0.0070355420000000005,4.833,0,0
0.0061412707000000006,-0.0034398208,-0.0014534104000000002,-0.0005802493999999999,0.006077796000000001,4.834,0,0
0.0037688727,-0.0039133188,-0.0017027143999999998,-0.0011093053999999998,0.0047945974,4.835,0,0
0.0017834987,-0.0055356808000000006,-0.001843988,-0.0019788334000000003,0.0025500474,4.836,0,0
0.0017108387,-0.006717054000000001,-0.0016671578000000001,-0.0032377504000000003,-0.0009012806000000001,4.837,0,0
0.0021199206999999998,-0.006076549200000001,-0.0011046738,-0.004827678,-0.0036376086000000003,4.838,0,0
0.002908588,-0.005069076400000001,-0.0005038978,-0.00579906,-0.0053144986,4.839,0,0
0.0026581300000000003,-0.0021632744000000008,3.695659999999999e-05,-0.005165673200000001,-0.006576692,4.84,0,0
-0.00012845599999999988,0.0034344456000000006,0.00039584320000000007,-0.0025454752,-0.006795402000000001,4.841,0,0
-0.002540886,0.0073544396,0.0006176096000000001,0.0009958467999999997,-0.004937034000000001,4.842,0,0
-0.0033575754000000004,0.0083640408,0.0006695156000000001,0.0046532008,-0.002353862,4.843,0,0
-0.0041198624,0.009220174000000001,0.0011486515999999999,0.0077853148,0.00012050199999999987,4.844,0,0
-0.0043359984,0.009241342,0.0018184731999999998,0.009143918,0.003050744,4.845,0,0
-0.0026424684000000004,0.006338398000000001,0.0023059906,0.008693684,0.005229148,4.846,0,0
9.269960000000011e-05,0.0023063320000000003,0.00265894,0.00646082506,0.005713552,4.847,0,0
0.0024356050000000004,-0.000622596,0.002516608,0.00331756506,0.0059503740000000005,4.848,0,0
0.003977942,-0.002871446,0.0021481938,0.0003667570600000003,0.0065681360000000005,4.849,0,0
0.0048731394,-0.004515058,0.0016920038,-0.0022581029400000003,0.005911000000000001,4.85,0,0
0.004524441400000001,-0.0048013858,0.0011368936600000001,-0.00408023294,0.00474319,4.851,0,0
0.0019180894000000006,-0.0035994564,0.0005062618600000001,-0.0041833328,0.004632604,4.852,0,0
-0.0020102246,-0.0017256889999999999,-0.00037204614000000005,-0.0028581028000000002,0.004088838,4.853,0,0
-0.0053234326000000005,0.00016960700000000006,-0.00146775994,-0.0008559567999999997,0.0025550892,4.854,0,0
-0.00664922,0.00036066500000000003,-0.00225191594,0.0008642712000000001,0.0013252791999999998,4.855,0,0
-0.006244902,-0.0011764632,-0.0028513678,0.0012677372000000002,0.0001987451999999997,4.856,0,0
-0.00427449,-0.0022973186,-0.0031800780000000002,0.0013989054000000001,-0.0019687848,4.857,0,0
-0.0006482260000000002,-0.003507016,-0.0025414130000000006,0.0014752494000000004,-0.0039598888,4.858,0,0
0.0036435,-0.005322564,-0.0017616096000000003,0.00051929956,-0.004691616,4.859,0,0
0.006732668000000001,-0.006040954000000001,-0.0013069328000000003,-0.00021751444,-0.0058634640000000005,4.86,0,0
0.007764956000000001,-0.0046480098,-0.0004074668000000001,-0.00018213644000000004,-0.00661645,4.861,0,0
0.006312248,-0.0012797378000000007,0.00032296319999999996,-0.00082809584,-0.005416500000000001,4.862,0,0
0.0021493979999999994,0.0037860681999999997,0.00038692779999999996,-0.0015002138400000001,-0.004242148,4.863,0,0
-0.002153068,0.0081279922,0.00040476140000000004,-0.001862816,-0.0033390136000000003,4.864,0,0
-0.004377802,0.0100937502,0.0005397068,-0.002190836,-0.0011512476,4.865,0,0
-0.004746674,0.0099667528,0.000418133,-0.00218649,0.0008986924000000001,4.866,0,0
-0.00348144,0.0067117668,7.4144e-05,-0.00204798,0.0014151364000000001,4.867,0,0
-0.00010862199999999984,0.0014483467999999997,0.00015759940000000002,-0.0018116038000000002,0.0019224224000000002,4.868,0,0
0.0029886240000000005,-0.0028472072,0.00047096440000000007,-0.0011912958,0.00247157,4.869,0,0
0.0038253500000000004,-0.0046549572,0.0006949962000000001,4.062219999999999e-05,0.0017771180000000003,4.87,0,0
0.0035293427600000004,-0.0037781860000000002,0.0007695040000000001,0.0013445162,0.0008730340000000001,4.871,0,0
0.00271470476,-0.001610378,0.0007641799999999999,0.0027871422000000003,0.00048732680000000006,4.872,0,0
0.0012647987600000001,0.0009548080000000006,0.0005290771999999999,0.00390853,-0.0006952111999999999,4.873,0,0
-0.00127223724,0.004003102,-4.2504800000000014e-05,0.004617270000000001,-0.0026132772,4.874,0,0
-0.00483399524,0.005801538,-0.0004557672,0.00459979,-0.0035499012000000003,4.875,0,0
-0.008242654,0.0043423920000000005,-0.0009582792000000001,0.0037517366,-0.0043311852,4.876,0,0
-0.009265866000000001,0.00096503,-0.0013750462,0.0029535598,-0.005493446,4.877,0,0
-0.007535248000000001,-0.0027017560000000005,-0.0011184578,0.0016676978000000002,-0.0048043376,4.878,0,0
-0.0050338299999999996,-0.005415550000000001,-0.00040153180000000006,-0.00023009620000000023,-0.0027820236,4.879,0,0
-0.00215058,-0.005112766000000001,0.00033163059999999996,-0.0015523862000000003,-0.0010681775999999998,4.88,0,0
0.0024372200000000004,-0.002905032000000001,0.0013524446,-0.0022578948,0.0011513423999999998,4.881,0,0
0.006699122,-0.000965736,0.0023493346,-0.003323022,0.0040532304,4.882,0,0
0.007035322,0.0009358799999999999,0.0023201366,-0.003743302,0.00582721,4.883,0,0
0.0054270379999999995,0.0019036209999999997,0.0020869480000000004,-0.0033515000000000003,0.006298876,4.884,0,0
0.0053772763999999995,0.00011526899999999998,0.001813618,-0.003074908,0.006926154,4.885,0,0
0.0044770344,-0.0023332810000000004,0.0008119600000000001,-0.0026221974,0.00666012,4.886,0,0
0.0014968622,-0.0032398130000000002,-0.000279814,-0.0018840818000000002,0.004594514000000001,4.887,0,0
0.0015835622000000002,-0.003457115,-0.0006063906,-0.0015018738000000002,0.002166322,4.888,0,0
0.0046593842,-0.00363623,-0.0005526725999999999,-0.0019393198,-0.00042367199999999994,4.889,0,0
0.0056897478000000005,-0.0031946535999999998,-0.0009287181999999999,-0.0023748738000000003,-0.004158912,4.89,0,0
0.005236548000000001,-0.0013913815999999997,-0.0008505722,-0.0021392664,-0.007300088,4.891,0,0
0.0042903642000000014,0.0008536364,-5.587419999999999e-05,-0.0018271004,-0.008240506,4.892,0,0
0.00046685420000000056,0.0023389544,0.00042843380000000004,-0.0006660504000000002,-0.008359270000000002,4.893,0,0
-0.0042935938,0.0032199024000000003,0.0002936482,0.0016302736,-0.007533706000000001,4.894,0,0
-0.0068063538,0.0029953960000000004,0.00047976180000000005,0.0022790124,-0.005217977800000001,4.895,0,0
-0.0075998279999999994,0.001192568,0.0009425758,0.0012856384,-0.0027140918,4.896,0,0
-0.006974916,-0.0008841160000000002,0.0005756276,0.0004575508,-0.0006096817999999998,4.897,0,0
-0.005467710000000001,-0.0024579920000000004,0.0003801686,-0.0008688772000000002,0.0020906642,4.898,0,0
-0.004336192000000001,-0.0030066408,0.0007128328000000001,-0.0025868612000000003,0.0048415282,4.899,0,0
-0.0030617200000000004,-0.0021575268,0.00036156479999999993,-0.0029894440000000004,0.006379188000000001,4.9,0,0
-0.0009311760000000004,-0.0009962152000000002,-0.0003056972000000001,-0.002367846,0.00706365,4.901,0,0
0.0016452479999999998,-0.0005842552000000002,-0.00044296100000000007,-0.001946962,0.0070782499999999995,4.902,0,0
0.004202462,-6.225720000000009e-05,-0.0009702380000000001,-0.001009932,0.006158302000000001,4.903,0,0
0.0061481980000000006,0.0014924436,-0.001661502,0.0010193900000000002,0.004871060000000001,4.904,0,0
0.006458652400000001,0.0030545955999999996,-0.001313,0.00344706,0.004643172000000001,4.905,0,0
0.0045326864,0.004080462,-0.0010713558000000002,0.00556844,0.004539230000000001,4.906,0,0
0.0013214924000000002,0.005283426,-0.0012446878,0.007219606000000001,0.0032384980000000002,4.907,0,0
-0.0026868076,0.005778022,-0.0010764798,0.007830072,0.0018459520000000003,4.908,0,0
-0.0058537136,0.0038738239999999997,-0.0011238738,0.007064934,0.0007412219999999999,4.909,0,0
-0.006366780000000001,0.001049096,-0.0016829618,0.00542317,-0.0015287380000000002,4.91,0,0
-0.004895126,-0.001264562,-0.0017471289999999998,0.003137234,-0.0037721279999999996,4.911,0,0
-0.0025353220000000004,-0.0035815360000000006,-0.001090111,0.0005437739999999997,-0.0042036600000000006,4.912,0,0
-0.0003009759999999996,-0.0054145800000000004,-0.0003040289999999998,-0.0021967040000000003,-0.0048745080000000005,4.913,0,0
0.0011061299999999999,-0.006437348000000001,0.0008304050000000001,-0.005039176,-0.005946678,4.914,0,0
0.0018292350000000002,-0.0074513520000000005,0.0020109510000000004,-0.007187328000000001,-0.005232674,4.915,0,0
0.0018979930000000002,-0.008038392000000002,0.0027611940000000007,-0.007443778,-0.0033378080000000003,4.916,0,0
0.001816859,-0.007510222,0.002965808,-0.005848114000000001,-0.0018141659999999999,4.917,0,0
0.003176287,-0.0058547156,0.002792994,-0.003758194,0.000597872,4.918,0,0
0.004889123,-0.0035742715999999997,0.0021327316,-0.0010512120000000002,0.003361712,4.919,0,0
0.005503606000000001,-0.0014170196,0.0011246096000000001,0.002500418,0.00446079,4.92,0,0
0.005071890000000001,0.0019478844000000001,0.00041071840000000005,0.0048872460000000005,0.004698504000000001,4.921,0,0
0.0029097660000000003,0.006271366400000001,-6.5929999999999824e-06,0.0049755419999999995,0.004602706,4.922,0,0
-0.0008696080000000004,0.009597834000000001,-0.000506911,0.0045428508,0.002903068,4.923,0,0
-0.0037406920000000003,0.012188844,-0.0011130226,0.0042071388,-1.5256000000000384e-05,4.924,0,0
-0.004762560000000001,0.014160724000000003,-0.0010571404,0.0026956268,-0.0018913000000000003,4.925,0,0
-0.005000374200000001,0.013851924000000002,-0.0012139552000000001,0.0012870508,-0.003321042,4.926,0,0
-0.004383598200000001,0.012168374000000001,-0.0017127018000000001,0.0010273728000000002,-0.0046980500000000005,4.927,0,0
-0.0033417641999999997,0.009497886,-0.0014629996600000002,0.0006959240000000001,-0.0039789436,4.928,0,0
-0.0031266402,0.00401809,-0.00094562736,0.0002156966,-0.0015970175999999998,4.929,0,0
-0.0043996182,-0.00204653,-0.00056729636,0.0004550906,0.00017264840000000032,4.93,0,0
-0.005519764000000001,-0.0071675739999999995,-0.00011811895999999989,0.0004514766,0.0021335744,4.931,0,0
-0.0051546508000000005,-0.012110164,0.0005778410400000001,-0.0006604594000000001,0.0045483284,4.932,0,0
-0.002828300799999999,-0.015603896,0.0008957449000000001,-0.0019345874000000003,0.0049449540000000005,4.933,0,0
0.0005941152000000002,-0.015102012,0.0007768032000000001,-0.0032309060000000004,0.0038169860000000005,4.934,0,0
0.005468481200000001,-0.0115573216,0.0006269842000000001,-0.004997988,0.002670294,4.935,0,0
0.011055363200000001,-0.007731666200000001,0.0007560528,-0.006743846,0.000566962,4.936,0,0
0.012286764,-0.002835238200000001,0.000399971,-0.007025928000000001,-0.0026305300000000003,4.937,0,0
0.009190856,0.0028375418,-0.00042740300000000003,-0.006077006,-0.004668212000000001,4.938,0,0
0.004749358,0.0051993698,-0.0008050716,-0.0046075656,-0.0052608180000000004,4.939,0,0
-0.0010519619999999996,0.0040389094,-0.0014124558,-0.0017668296000000001,-0.005591570000000001,4.94,0,0
-0.008070362000000001,0.0039957288,-0.0019281358000000001,0.0017635864,-0.0049931540000000005,4.941,0,0
-0.011345574,0.0042228348,-0.0016625732000000004,0.0041642604,-0.0033219764,4.942,0,0
-0.008916706,0.0034443748,-0.0010194154000000002,0.006186356400000001,-0.0019634390000000004,4.943,0,0
-0.0052581780000000005,0.005127638800000001,-0.0006426368000000001,0.007595378000000001,-0.0009458610000000003,4.944,0,0
-0.0015623819999999993,0.0081556248,0.0001633612,0.00635876,0.000709693,4.945,0,0
0.0036459180000000006,0.008382462,0.0009383131999999999,0.0042229156,0.001738309,4.946,0,0
0.008230848,0.006112355999999999,0.0009581094,0.0026892876000000005,0.0017210883999999999,4.947,0,0
0.009539898,0.0022849519999999994,0.0013228896,0.0004959956000000003,0.002191897,4.948,0,0
0.00954725,-0.0028284280000000005,0.001771389,-0.0017890664,0.003014163,4.949,0,0
0.007832284,-0.006218222000000001,0.0016561992,-0.0021316594000000003,0.0032236370000000006,4.95,0,0
0.0037753680000000007,-0.007555188000000001,0.0014741172,-0.0016297870000000002,0.003419987,4.951,0,0
0.00020595400000000016,-0.007631704000000001,0.0013352830000000003,-0.0015039564,0.00442757,4.952,0,0
-0.002021306,-0.006182020000000002,0.0005295670000000001,-0.0008919044,0.004870831999999999,4.953,0,0
-0.0031673426000000003,-0.004363418,6.116980000000005e-05,-0.0001467136,0.0038769114,4.954,0,0
-0.0030257826000000005,-0.00394591,9.345840000000001e-05,5.186200000000008e-06,0.0025758394,4.955,0,0
-0.0020225846,-0.006213836,-0.0003416368,0.00023361820000000007,0.0013689954,4.956,0,0
-0.0017446026000000002,-0.008861368000000001,-0.0008268536,0.0012840956,-0.0003265326000000001,4.957,0,0
-0.0026174326000000005,-0.008850748000000002,-0.0009330476000000001,0.0020761016,-0.0019215885999999999,4.958,0,0
-0.0035604680000000002,-0.007197472000000001,-0.0009259438000000001,0.002249425,-0.002629368,4.959,0,0
-0.003623776,-0.005405982,-0.0013215606,0.0020511634,-0.003066382,4.96,0,0
-0.004145948,-0.0004299639999999997,-0.0012831234000000003,0.0009434314,-0.0031919699999999997,4.961,0,0
-0.004582012000000001,0.005827096,-0.0005394194000000001,-0.0008323066,-0.0020291439999999992,4.962,0,0
-0.002353018,0.008048206,-0.00012189500000000007,-0.0022712966,-0.0006549519999999998,4.963,0,0
0.0015041540000000004,0.009161008,-0.00013111140000000008,-0.0029483248,-0.00011191599999999987,4.964,0,0
0.0039981520000000005,0.012291788000000001,2.330899999999995e-05,-0.00346591,0.000941044,4.965,0,0
0.004447204000000001,0.015379970000000001,-2.1974800000000046e-05,-0.0041737119999999996,0.001762692,4.966,0,0
0.004837122000000002,0.016325990000000002,-0.0002938488,-0.004254482,0.0009494139999999999,4.967,0,0
0.0038142260000000013,0.016276794,-3.910920000000002e-05,-0.004221412,-6.622600000000007e-05,4.968,0,0
-0.00012242999999999954,0.014548960000000001,0.00020353639999999998,-0.004827994,-0.0003492540000000001,4.969,0,0
-0.003868158,0.009619668,5.210400000000003e-05,-0.0045886220000000005,-0.001361654,4.97,0,0
-0.004496320000000001,0.002504628000000001,0.00027676860000000003,-0.0032700356000000003,-0.00236174,4.971,0,0
-0.0036076596000000007,-0.004515972,0.0009767606000000001,-0.0014920056,-0.0017579100000000003,4.972,0,0
-0.0035897616000000005,-0.008953406,0.0010980686,0.0015651123999999997,-0.0010258280000000003,4.973,0,0
-0.0036904176000000007,-0.010951894000000002,0.0007680488000000002,0.005387222400000001,-0.0006483060000000002,4.974,0,0
-0.003183289600000001,-0.011370980000000001,0.0007964568000000001,0.0074151564,-5.1312848000000046e-05,4.975,0,0
-0.0010417696000000003,-0.01188582,0.0006750586800000001,0.0072203245999999995,-0.0002156348480000001,4.976,0,0
0.0018532080000000003,-0.012006600000000001,-0.00028863131999999994,0.005434436599999999,-0.002015218848,4.977,0,0
0.00354317,-0.01150646,-0.00075633172,0.0016909125999999993,-0.003370258848,4.978,0,0
0.004498064,-0.011502348,8.909627999999995e-05,-0.0026391754000000003,-0.0033406837280000002,4.979,0,0
0.004399016,-0.007977452,0.0008905462800000001,-0.005038013400000001,-0.00318138768,4.98,0,0
0.002058748000000001,0.00010580800000000064,0.0014101755999999998,-0.005216810000000001,-0.0019041596799999998,4.981,0,0
-0.0008700450000000001,0.006458688000000001,0.0017739533999999997,-0.004574384000000001,0.0007802543199999999,4.982,0,0
-0.0017790089999999998,0.008927192000000002,0.0016289817999999997,-0.002620002,0.0029639123200000004,4.983,0,0
-0.001166657,0.009816632000000002,0.0010755199999999997,0.0007214279999999998,0.004513935200000001,4.984,0,0
0.00047189900000000007,0.007142256000000002,0.00048130999999999993,0.0026526399999999995,0.005815610000000001,4.985,0,0
0.0016791870000000002,0.0012322240000000005,-0.000293694,0.0027712134,0.005023794000000001,4.986,0,0
0.0006155040000000001,-0.002303064,-0.0006115978,0.0029349569999999998,0.0021866439999999997,4.987,0,0
-0.0006799339999999999,-0.0018888820000000001,-0.00034236380000000004,0.0018650910000000001,-0.0007844999999999998,4.988,0,0
-0.0007168139999999999,-0.0003653119999999999,-0.0005668028000000001,-0.0009920789999999999,-0.004045366,4.989,0,0
-0.0007186660000000002,0.0010614740000000002,-0.0010908868,-0.0024402470000000004,-0.007631272,4.99,0,0
-0.0008325214,0.0031001960000000004,-0.0014437248000000002,-0.0016173904000000004,-0.008847754,4.991,0,0
-0.00036761939999999994,0.0047675980000000005,-0.0015653248000000004,-0.00016548799999999988,-0.007195673,4.992,0,0
-0.0005210494000000001,0.00482513,-0.0019111388000000002,0.0022426320000000005,-0.0053219554,4.993,0,0
-0.0015825574000000002,0.004683494,-0.0020038200000000003,0.004676566,-0.0036911348000000007,4.994,0,0
-0.0021056038,0.004251752,-0.001188442,0.004612594,-0.0012277948000000002,4.995,0,0
-0.0013771603999999998,0.001584654,-0.00024325200000000006,0.0026243080000000005,0.0009683532,4.996,0,0
-0.00023994240000000007,-0.00225618,0.00030257000000000005,0.0004749060000000001,0.0019041602,4.997,0,0
0.0012141056000000002,-0.005099570000000001,0.00083628,-0.0017993080000000003,0.0035891186000000003,4.998,0,0
0.0033414356,-0.007449532000000001,0.001331626,-0.003283488,0.006032506000000001,4.999,0,0
0.00487688,-0.009866378,0.0010297540000000001,-0.0023451540000000003,0.0073704420000000005,5.0,0,0
0.00501803,-0.009886016000000001,0.0005386858000000001,-0.00013259999999999997,0.007967214,5.001,0,0
0.004011436,-0.00778051,0.0002598174,0.001083238,0.00841525,5.002,0,0
0.0030504737999999996,-0.006115232,-0.0006402366000000001,0.0014957508,0.0070015120000000005,5.003,0,0
0.0017426253999999997,-0.00409326,-0.0014711826000000001,0.0020562348,0.0041012,5.004,0,0
-0.0005950225999999999,-0.0006637679999999997,-0.0015984468000000002,0.0018171768,0.0019486340000000003,5.005,0,0
-0.0024793626,0.0025433300000000003,-0.0015640394000000003,0.0012674268000000002,-0.00046689599999999996,5.006,0,0
-0.0032922806,0.004315836000000001,-0.0017034790000000001,0.0019524028000000003,-0.003329202,5.007,0,0
-0.0038655724000000004,0.005470656000000001,-0.0016703650000000003,0.0030950700000000005,-0.0049174760000000005,5.008,0,0
-0.0040513104,0.006173482000000001,-0.0012452504,0.003495302,-0.005193518000000001,5.009,0,0
-0.0037350104,0.0061899120000000005,-0.001215126,0.0036128280000000002,-0.005587158000000002,5.01,0,0
-0.0034867564000000003,0.005749914,-0.0012668240000000002,0.0031486706,-0.005281814000000001,5.011,0,0
-0.0025822704,0.004765976000000001,-0.0005989860000000001,0.0010209786,-0.003481912,5.012,0,0
-0.0014405504,0.00270964,0.00021494279999999998,-0.0015278214,-0.0021826114600000004,5.013,0,0
-0.0006932239999999999,-0.0003873600000000002,0.000451426,-0.0038373114,-0.00162135546,5.014,0,0
0.0003833300000000002,-0.0051306220000000005,0.0009425598,-0.0059769794000000005,-0.00024975346,5.015,0,0
0.0015438780000000003,-0.009876176000000002,0.0012576278,-0.007345476,0.0008990045400000001,5.016,0,0
0.0022085480000000003,-0.009661602000000002,0.00040184579999999996,-0.007776854,0.0002525725400000001,5.017,0,0
0.002320048,-0.004928792000000001,-0.000193157,-0.007664894,-0.0002199879999999999,5.018,0,0
0.002147978,0.00040458799999999913,-0.00039846239999999995,-0.007106506,-1.240319999999999e-05,5.019,0,0
0.0016657369999999998,0.005989207999999999,-0.0008170914000000001,-0.0055004906000000004,-0.0006435192,5.02,0,0
0.000654393,0.010542506,-0.00097784488,-0.0029020286000000003,-0.0010674334000000001,5.021,0,0
-0.0005353509999999999,0.010321504,-0.00049737988,0.0006507394000000001,0.00013733259999999998,5.022,0,0
-0.001914779,0.0066544268,-9.994788e-05,0.0044470814000000004,0.0015266265999999999,5.023,0,0
-0.003305355,0.0039061948,-2.7319479999999993e-05,0.0076143214,0.0018144898,5.024,0,0
-0.00367491,0.0024364748,0.00046704752000000004,0.009163448000000001,0.0018290087999999999,5.025,0,0
-0.002418254,0.0013107092,0.0010720398000000002,0.008532596000000002,0.001662915,5.026,0,0
-0.00031375399999999986,0.0012746732,0.0012873168,0.006829514,0.0006815323999999998,5.027,0,0
0.001869088,0.0020407464,0.0018326348,0.004602606,-4.471560000000001e-05,5.028,0,0
0.0035531720000000003,0.0013445824000000001,0.002810428,0.0018687219999999997,0.0008443984,5.029,0,0
0.00379779,-0.0009388536,0.003197546,-0.0004504619999999999,0.0019553274,5.03,0,0
0.002342072,-0.002995186,0.0034483120000000003,-0.001788254,0.0028746734,5.031,0,0
-0.0001551879999999998,-0.005702596,0.0035315780000000005,-0.0031054160000000006,0.004307016,5.032,0,0
-0.00194544,-0.009937592,0.0028619388,-0.004017046,0.005149748,5.033,0,0
-0.0021855579999999998,-0.013485356,0.0017005928000000002,-0.003944882,0.004329798,5.034,0,0
0.00016012000000000057,-0.014616500000000001,0.0007433346,-0.0033323320000000003,0.0034571930000000003,5.035,0,0
0.0042180460000000005,-0.01330783,-0.00024365300000000003,-0.0023948462,0.0031195489999999997,5.036,0,0
0.006838462000000001,-0.008164109999999999,-0.001369245,-0.0013372388,0.001362013,5.037,0,0
0.0072783302000000005,0.0007114700000000005,-0.0016995238,-3.3048000000000365e-06,-1.4092999999999907e-05,5.038,0,0
0.0061372562,0.00861951,-0.0018692738000000001,0.0014848712,-9.32289999999999e-05,5.039,0,0
0.0027235461999999986,0.013972550000000002,-0.0025928216,0.0024411612,-0.001348106,5.04,0,0
-0.0020209438,0.01720448,-0.0032204,0.0029656414,-0.0032119180000000002,5.041,0,0
-0.0044115078000000005,0.015527084,-0.002927552,0.0034308900000000007,-0.003726106,5.042,0,0
-0.0052630540000000005,0.010042486000000002,-0.002673588,0.0030114860000000003,-0.004513498,5.043,0,0
-0.006049422000000001,0.0058160289999999995,-0.0025550660000000004,0.0019819907999999997,-0.005681228000000001,5.044,0,0
-0.005390778,0.002725931,-0.0015934425999999998,0.0007024548000000001,-0.0045853646,5.045,0,0
-0.00402174,-0.0005854269999999998,-0.00042847459999999997,-0.0010045832,-0.0026878186,5.046,0,0
-0.0042777100000000005,-0.0017327694,0.0004340114,-0.0024763092,-0.0014143186,5.047,0,0
-0.005236668,-0.0016323315999999999,0.0012792234,-0.0032466051999999997,0.0005113714000000001,5.048,0,0
-0.004239734,-0.0024622066,0.0022207434000000004,-0.0033140496,0.0030076694000000003,5.049,0,0
-0.002223564,-0.0035712326000000003,0.002551502,-0.0028575150000000006,0.004199868000000001,5.05,0,0
-0.0004048700000000001,-0.0042927626000000005,0.00236387,-0.0024607170000000003,0.003997134,5.051,0,0
0.0028770840000000002,-0.0060080402,0.0021480406,-0.002454337,0.003985660000000001,5.052,0,0
0.007504914000000001,-0.008643040000000001,0.001595614,-0.0028963490000000003,0.0029936722000000002,5.053,0,0
0.009416784000000001,-0.009362632000000001,0.0007775602000000001,-0.0038184153999999996,3.960420000000001e-05,5.054,0,0
0.0080769134,-0.008458011999999999,0.00019905379999999995,-0.0045691659999999995,-0.0025366038000000004,5.055,0,0
0.006504273200000001,-0.007308570000000001,-0.00019500960000000002,-0.004340456,-0.0037404758000000003,5.056,0,0
0.0042088208000000005,-0.004228764000000001,-0.0009234462,-0.0022718680000000002,-0.0048303498000000005,5.057,0,0
0.0004144388000000001,0.002294136,-0.0015165755999999998,0.0012937880000000001,-0.0047409948,5.058,0,0
-0.0020335151999999997,0.00855064,-0.0017381578000000002,0.004495598000000001,-0.0029376108000000005,5.059,0,0
-0.0023422482000000004,0.011747024,-0.0020893834,0.006279014,-0.0019034287999999998,5.06,0,0
-0.002028934,0.013286004,-0.0020940152,0.0070878880000000005,-0.0017460928,5.061,0,0
-0.0011319956000000002,0.011503522,-0.0015824252,0.0057656202,-0.0009753572,5.062,0,0
0.00040429240000000013,0.005886014,-0.0008922086000000001,0.0024566342,-0.0005728844,5.063,0,0
0.0013917490200000002,0.001668948,-5.117659999999999e-05,-0.0002981378,-5.4714400000000114e-05,5.064,0,0
0.0011762186199999998,0.00032804199999999985,0.0010120834000000001,-0.0019405198000000002,0.0025934675999999997,5.065,0,0
0.0003736306200000001,-0.0017155020000000007,0.0018689786,-0.0023855904,0.0055633096,5.066,0,0
-0.00049225118,-0.002974796000000001,0.002065144,-0.0015822026,0.00691296,5.067,0,0
-0.0010752699800000002,-0.0031593080000000004,0.0019952334,-0.0002511966000000002,0.007905364,5.068,0,0
-0.0015715046000000002,-0.0066499820000000005,0.0018270734000000004,0.0005239397999999999,0.008335824,5.069,0,0
-0.0012883284000000002,-0.012124916,0.0011233528,0.0013229632,0.0067596620000000005,5.07,0,0
-0.0007638032,-0.015650166,0.0004104926000000001,0.0014765924,0.0044594842,5.071,0,0
-0.0012861674,-0.018228920000000003,0.0004538652000000001,0.000741327,0.0030563230000000005,5.072,0,0
-0.0025293066000000005,-0.0194834,0.00027158520000000004,2.2281000000000053e-05,0.001301257,5.073,0,0
-0.0033696786000000003,-0.016150806000000004,-0.0004658968,-0.00041791540000000007,-0.0010805629999999999,5.074,0,0
-0.0036644908000000006,-0.006960606,-0.0005471402000000001,-0.0006252482,-0.002738431,5.075,0,0
-0.00336218,0.004481254,-0.000518538,-0.0015024888,-0.0039186572,5.076,0,0
-0.0026353948000000004,0.013824074,-0.001226442,-0.0014175456,-0.00463253,5.077,0,0
-0.0016020968000000002,0.020204774,-0.0012832828,-0.0014207686,-0.004672428,5.078,0,0
0.0014272332,0.020241871999999998,-0.000867147,-0.0015030046,-0.0032005200000000005,5.079,0,0
0.0031235512,0.0153583968,-0.0003058389999999999,-0.0022565152,-0.0023382278,5.08,0,0
0.0034767352000000004,0.007752628800000002,-0.00019533579999999996,-0.0012800232000000002,-0.0054632838,5.081,0,0
0.002732426,0.0025735467999999997,-0.0017692097999999997,0.004855725,-0.0113656578,5.082,0,0
-0.0028802200000000006,0.0072526868,-0.0036963350000000002,0.011048254,-0.0177345978,5.083,0,0
-0.009516744,0.0157482748,-0.0048255288,0.015491542,-0.0236236978,5.084,0,0
-0.013331336000000001,0.02033031,-0.0056978968,0.019148776000000003,-0.02613506,5.085,0,0
-0.015709900000000002,0.022196594,-0.005126856,0.019173497000000005,-0.02079659,5.086,0,0
-0.014354166000000002,0.020608582,-0.0013337160000000002,0.011306309000000002,-0.00956999,5.087,0,0
-0.006566686,0.009041841999999998,0.0034714639999999996,0.0004911089999999991,0.00412983,5.088,0,0
0.0013324540000000003,-0.0061785979999999996,0.007505956000000001,-0.009377631,0.01790111,5.089,0,0
0.008186814,-0.017216298,0.010584784,-0.018510651000000003,0.029274889999999998,5.09,0,0
0.015280330000000002,-0.025080654,0.01215618,-0.024922788000000005,0.0369608,5.091,0,0
0.01974244,-0.03014156,0.011578738,-0.028246360000000005,0.039363600000000006,5.092,0,0
0.02146042,-0.031625600000000004,0.0089879986,-0.027020860000000004,0.0368131,5.093,0,0
0.020135348,-0.028751220000000004,0.005736814599999999,-0.022521996000000002,0.030171526,5.094,0,0
0.016010977,-0.02441716,0.0020013526,-0.015211924000000002,0.019900624,5.095,0,0
0.009396091,-0.018147766,-0.0021724654000000003,-0.005650304,0.006427064000000001,5.096,0,0
0.0018684509999999997,-0.009631962,-0.0053265434000000006,0.0037501960000000003,-0.007740456000000001,5.097,0,0
-0.004811589,-0.0017577020000000003,-0.007410578000000001,0.012030296,-0.020762075999999997,5.098,0,0
-0.009862257000000001,0.005513738,-0.009046394000000001,0.018716012,-0.031962942,5.099,0,0
-0.013275486000000001,0.012324638,-0.009353284,0.023113,-0.03894958,5.1,0,0
-0.014805560000000002,0.016548203999999997,-0.008433704,0.02424742,-0.039897300000000004,5.101,0,0
-0.0148237,0.019320780000000003,-0.006867974000000001,0.021828466,-0.03557552,5.102,0,0
-0.01373999,0.022854,-0.0044633780000000005,0.016889126,-0.027079633999999998,5.103,0,0
-0.010224530400000001,0.0231578,-0.0010631440000000005,0.009696195999999999,-0.014512533999999997,5.104,0,0
-0.004843870399999999,0.0183267946,0.0019670720000000003,0.00021029599999999957,-0.00029493400000000017,5.105,0,0
0.0009154696000000006,0.012437472599999997,0.004375110000000001,-0.008817264000000002,0.012654346,5.106,0,0
0.006575329600000001,0.004768772599999999,0.006662038,-0.014937190000000003,0.023768926000000003,5.107,0,0
0.0118263396,-0.006630607400000001,0.007615814000000001,-0.018767650000000004,0.03211378,5.108,0,0
0.0144718,-0.016020367400000003,0.006769616000000001,-0.02024188,0.035161660000000004,5.109,0,0
0.013704082000000001,-0.019805982,0.005238401020000001,-0.017945936,0.0330881,5.11,0,0
0.011590494,-0.020800759999999998,0.0033086850200000004,-0.01336325638,0.027356248,5.111,0,0
0.0088202,-0.019389932,0.0002941850200000001,-0.0078051983799999995,0.017508701999999998,5.112,0,0
0.004709827999999999,-0.013436916000000002,-0.0029149369800000003,-0.0010406183800000003,0.005013762000000002,5.113,0,0
-0.00016351199999999977,-0.0045346959999999995,-0.00538957898,0.0058240216200000005,-0.007326858,5.114,0,0
-0.004683454,0.004786224,-0.00711871,0.011572957620000001,-0.018231618,5.115,0,0
-0.009103146,0.014430964000000001,-0.008067608,0.015797958,-0.026732026000000002,5.116,0,0
-0.012222872,0.022931716000000005,-0.0077901640000000005,0.01820928,-0.03095418,5.117,0,0
-0.0128682,0.027358040000000004,-0.0059686906,0.01837642,-0.02965966,5.118,0,0
-0.011288114,0.026714920000000003,-0.0030229765999999995,0.016122878,-0.02437825,5.119,0,0
-0.007757832000000001,0.021668738000000003,0.00022932340000000038,0.011397608,-0.016284411999999998,5.12,0,0
-0.0026964460000000003,0.012291438000000002,0.0035360074,0.004650348,-0.005493892,5.121,0,0
0.002397354,0.0006216979999999995,0.0061680294,-0.0025466520000000004,0.005012628000000001,5.122,0,0
0.004890748,-0.009611402,0.007483092,-0.009277592000000001,0.012789908000000003,5.123,0,0
0.005205724000000001,-0.017513302,0.007927728,-0.014702510000000002,0.018744518,5.124,0,0
0.004681145200000001,-0.02267928,0.0068774280000000005,-0.017001600000000002,0.02266958,5.125,0,0
0.002910668000000001,-0.0237944,0.004443506000000001,-0.016224548000000002,0.02274372,5.126,0,0
0.0006282728000000001,-0.021783680000000007,0.0020006340000000003,-0.013296108000000004,0.019694376,5.127,0,0
0.0009542667999999999,-0.01892498,-0.00039436799999999976,-0.008614702000000002,0.014757936,5.128,0,0
0.0047917048,-0.015225648000000001,-0.003495496,-0.0024988820000000004,0.007276996000000001,5.129,0,0
0.007351521600000001,-0.010304855,-0.005983464000000001,0.0035558979999999996,-0.0017353440000000006,5.13,0,0
0.0063281668,-0.004841115,-0.006955072,0.007978566,-0.009993284000000002,5.131,0,0
0.004044882,0.0010193050000000003,-0.007455407999999999,0.010842426,-0.0165257,5.132,0,0
-0.0001519659999999999,0.007768785,-0.007512036,0.01203184,-0.02138622,5.133,0,0
-0.006947806000000001,0.015600513,-0.0066494300000000004,0.011312746,-0.02293026,5.134,0,0
-0.011479846,0.02220416,-0.004835443600000001,0.0085924972,-0.02080928,5.135,0,0
-0.011271008,0.025999260000000003,-0.0027621996,0.0046920111999999995,-0.017042022,5.136,0,0
-0.00888732,0.02634032,-0.0005081876,0.0004173232000000001,-0.01108756,5.137,0,0
-0.005413582000000002,0.021681235400000002,0.0019661364,-0.0041175768,-0.0031364800000000005,5.138,0,0
-0.001321764,0.013274903400000003,0.004203856400000001,-0.0075913228,0.0049875,5.139,0,0
0.0026759740000000002,0.0039274434,0.005803614,-0.008667784,0.01272782,5.14,0,0
0.0058380820000000005,-0.0055413966,0.006330594,-0.008904818,0.019186442,5.141,0,0
0.008707034,-0.014633636600000003,0.005897930000000001,-0.00962463,0.02226218,5.142,0,0
0.011733416,-0.020391572,0.004810122000000001,-0.009515830000000001,0.0217555,5.143,0,0
0.012819098000000001,-0.021939840000000002,0.003261857200000001,-0.008606912000000001,0.018684102,5.144,0,0
0.01091406,-0.020616798000000002,0.0012103992,-0.007235480000000001,0.0131576158,5.145,0,0
0.006716959999999999,-0.016237888000000002,-0.0009416368,-0.0033413200000000005,0.006453177800000001,5.146,0,0
0.00100198,-0.009449914,-0.0025286268000000002,0.0031670799999999996,0.00043926779999999997,5.147,0,0
-0.005347920000000001,-0.0018076440000000002,-0.0035547048000000004,0.0097154,-0.0044710922,5.148,0,0
-0.009677620000000001,0.005352436,-0.004358876,0.015321122,-0.0090887542,5.149,0,0
-0.010271626,0.011240294,-0.0044056040000000005,0.01901986,-0.012962188,5.15,0,0
-0.008838097999999999,0.014826943999999998,-0.0032902520000000005,0.01916916,-0.014740969999999999,5.151,0,0
-0.007656942,0.016175290000000002,-0.001989704,0.015867008000000002,-0.01498912,5.152,0,0
-0.006082224,0.015196992000000003,-0.0009305540000000003,0.010589272,-0.013825472,5.153,0,0
-0.0035830709999999997,0.011288321200000001,0.000709164,0.003657972,-0.00956588,5.154,0,0
-0.0019848009999999996,0.0057283912,0.0024436120000000004,-0.004208267999999999,-0.0037077200000000007,5.155,0,0
-0.00047792299999999967,-9.186280000000012e-05,0.0033172500000000003,-0.010397348,0.0013724200000000005,5.156,0,0
0.0022071750000000005,-0.0047692428,0.0040707700000000005,-0.013811436,0.006548160000000001,5.157,0,0
0.005008455,-0.0084413348,0.004996236,-0.014955260000000001,0.011464432000000002,5.158,0,0
0.00624391,-0.011523384000000001,0.004994318,-0.013840052,0.013820940000000002,5.159,0,0
0.0061596459999999995,-0.012959074000000001,0.0038558784000000007,-0.010984624,0.013531354,5.16,0,0
0.005794508,-0.012435290000000002,0.0027421924,-0.0076531740000000004,0.011886380000000002,5.161,0,0
0.004450871999999999,-0.010561572000000002,0.0012874984,-0.003914146,0.008300644000000001,5.162,0,0
0.002201298,-0.0071486740000000016,-0.0009253735999999999,0.00012061200000000041,0.002720684,5.163,0,0
1.2523999999999977e-05,-0.0023177280000000007,-0.0024997396,0.003489134,-0.0029858360000000004,5.164,0,0
-0.002624708,0.003008452,-0.00306764,0.006629486,-0.00812419,5.165,0,0
-0.005993256000000001,0.008672002000000002,-0.003725722,0.009476756,-0.012741416000000002,5.166,0,0
-0.008690234000000002,0.013286044,-0.003985652,0.010269170000000001,-0.015410580000000004,5.167,0,0
-0.009966702000000001,0.015332726000000001,-0.003266162,0.008982014,-0.01568208,5.168,0,0
-0.009726578,0.014787850000000003,-0.0024773182,0.0063877579999999995,-0.014637440000000002,5.169,0,0
-0.007319956000000001,0.011680210000000002,-0.0012725862,0.0026622239999999995,-0.0113301866,5.17,0,0
-0.0025826599999999996,0.005166150000000001,0.0006955338,-0.0016807460000000003,-0.0054131986,5.171,0,0
0.0023198000000000003,-0.0034608100000000004,0.0024458798,-0.005397588,0.0005726414000000006,5.172,0,0
0.006352564000000001,-0.01179195,0.0034168018000000004,-0.00812521,0.005719941400000001,5.173,0,0
0.009140926,-0.018985560000000002,0.0040165800000000005,-0.009671904,0.010706201400000002,5.174,0,0
0.008677924000000002,-0.02221688,0.00406849,-0.009810698000000001,0.014013248000000002,5.175,0,0
0.005315482000000001,-0.019308638,0.0031221002,-0.008964862,0.014215540000000002,5.176,0,0
0.001898232,-0.012646978000000001,0.0017402862000000002,-0.006464454,0.012551152000000001,5.177,0,0
-0.0005260420000000002,-0.004755258,0.0005300182000000002,-0.00312565,0.010336314000000001,5.178,0,0
-0.0023063160000000005,0.004275982,-0.0007872077999999999,0.00020227400000000012,0.006984226720000001,5.179,0,0
-0.0024267618000000006,0.011308462000000002,-0.0021277658,0.0037598620000000005,0.0024693247200000008,5.18,0,0
-0.0019065338000000002,0.01329138,-0.0029483700000000005,0.006974036000000001,-0.00147106328,5.181,0,0
-0.0020912358,0.01291334,-0.00331795,0.008943848,-0.004461655280000001,5.182,0,0
-0.0027406438000000003,0.012731858,-0.00331808,0.010266964000000002,-0.007361837280000001,5.183,0,0
-0.0038075058000000004,0.012036478,-0.002794588,0.01117742,-0.009088414000000001,5.184,0,0
-0.004456132000000001,0.010169836000000002,-0.0021096016,0.010416128,-0.008652128,5.185,0,0
-0.0036393464000000005,0.008651878,-0.0013098310000000002,0.008434658,-0.007445284000000001,5.186,0,0
-0.0017315564000000001,0.007358802,-5.0737000000000026e-05,0.005084638,-0.005252252,5.187,0,0
0.0006054956,0.0036980819999999997,0.001146543,-0.00012184200000000004,-0.001512094,5.188,0,0
0.0033233516,-0.0018095380000000003,0.002046383,-0.005908882000000001,0.00140003,5.189,0,0
0.0058182636,-0.006879336,0.0026537426000000004,-0.01080103,0.0032469760000000004,5.19,0,0
0.008075536000000001,-0.012038417999999999,0.003175748,-0.01434848,0.005502028000000001,5.191,0,0
0.00943105,-0.017208762000000002,0.003416,-0.01564778,0.0069622880000000005,5.192,0,0
0.009487594,-0.0200218,0.003099974,-0.013572586000000001,0.0070589,5.193,0,0
0.009338456,-0.0207157,0.0025988416000000004,-0.008934706,0.0074029000000000005,5.194,0,0
0.00802193,-0.018826792000000002,0.0019152050000000003,-0.003573478000000001,0.007246834,5.195,0,0
0.004239532000000001,-0.010803612,0.0007127790000000002,0.0011591800000000005,0.004992994000000001,5.196,0,0
-0.00036717999999999994,0.0012820479999999992,-0.0007604389999999999,0.004675236,0.0018063299999999994,5.197,0,0
-0.004373094000000001,0.011731228,-0.002003947,0.006868044000000001,-0.0021262600000000005,5.198,0,0
-0.007853788,0.019077148,-0.0034241106000000004,0.00771633,-0.0067534199999999996,5.199,0,0
-0.00984318,0.02279722,-0.004183708,0.007680520000000001,-0.010105884,5.2,0,0
-0.009094694000000002,0.02078998,-0.0037377632000000004,0.007868134,-0.010512274,5.201,0,0
-0.00667951,0.014693354,-0.0030896328000000004,0.0075190280000000005,-0.008958257200000002,5.202,0,0
-0.0043315204,0.00959338,-0.002066077,0.006215678200000001,-0.006739536400000001,5.203,0,0
-0.0023787884000000003,0.006749454,-0.00019542300000000002,0.0045035428,-0.0023102484000000006,5.204,0,0
-0.0006187664,0.0037631759999999996,0.0015167590000000003,0.0021144568,0.0030621716,5.205,0,0
0.0007886656,0.00033882400000000016,0.0022796782000000003,-0.0004661591999999999,0.0062245136,5.206,0,0
0.0019374536,-0.0024797200000000004,0.0027667478000000002,-0.0028514092,0.007700876800000001,5.207,0,0
0.003204564,-0.005547646,0.0032662200000000002,-0.0051374214,0.009428464000000001,5.208,0,0
0.0036477460000000003,-0.00821582,0.0028154370000000005,-0.007055490000000001,0.009329500000000001,5.209,0,0
0.0034285686,-0.008660396,0.0014819350000000002,-0.007978474,0.006425896600000001,5.21,0,0
0.0035314306000000005,-0.008148232,0.0005640950000000002,-0.008207246,0.0040047166,5.211,0,0
0.0035888806000000007,-0.007706346,-0.00025352899999999984,-0.0068765810000000005,0.0019468225999999997,5.212,0,0
0.0028053826,-0.005930690000000001,-0.001271207,-0.003344097,-0.0010305514000000003,5.213,0,0
0.0017439582000000002,-0.0035250432,-0.0015483352,0.0011465610000000006,-0.0031058594000000004,5.214,0,0
0.0008366496,-0.0027894452,-0.0013053872000000002,0.005920473000000001,-0.0033435240000000005,5.215,0,0
-0.0011085404000000004,-0.0029460192000000003,-0.0014399612,0.009843289000000002,-0.0043296720000000006,5.216,0,0
-0.003727098400000001,-0.0018762504000000002,-0.0012448912,0.01164529,-0.005631194000000001,5.217,0,0
-0.004998926400000001,-0.00034631440000000005,-0.0006786912,0.011180092,-0.0051849700000000006,5.218,0,0
-0.004449504000000001,0.00042164480000000015,-0.0006044520000000001,0.008804688000000001,-0.004939008,5.219,0,0
-0.002636860000000001,0.0014212388000000003,-0.00036314259999999993,0.004928012000000001,-0.0047771586,5.22,0,0
0.0007788679999999994,0.0028064988,0.0004590954,0.0009424840000000002,-0.0027203226,5.221,0,0
0.0037207560000000004,0.0037764760000000004,0.0010236914,-0.0022886779999999997,0.00021531740000000027,5.222,0,0
0.0037679359999999995,0.004681004000000001,0.0010009034,-0.00462309,0.0024544814000000002,5.223,0,0
0.0020448679999999996,0.005022162,0.0011253404,-0.0059503640000000005,0.0042168594,5.224,0,0
0.00027815800000000003,0.0035270320000000003,0.000789777,-0.006822432000000001,0.0054708660000000004,5.225,0,0
-0.0012277319999999998,0.0004994340000000004,-0.00020629499999999995,-0.007029530000000001,0.005283016000000001,5.226,0,0
-0.0011793660000000003,-0.003422628000000001,-0.0008418606,-0.0060174880000000005,0.0040908294,5.227,0,0
0.0006047680000000001,-0.008672788,-0.0010826282,-0.004420318,0.0031580074,5.228,0,0
0.0019622323,-0.013841452,-0.0012572360000000001,-0.0019353480000000004,0.0022608054000000004,5.229,0,0
0.0016281242999999998,-0.015342700000000003,-0.001180852,0.0011762500000000002,0.0009553984000000001,5.23,0,0
-0.0009659257000000003,-0.013191894,-0.0008687440000000001,0.003190122,-0.00010188760000000004,5.231,0,0
-0.0049442637,-0.008307206,-0.0011940143999999999,0.004107014,-0.0012062210000000004,5.232,0,0
-0.0089232717,0.0005943340000000002,-0.0018564227999999998,0.0036220040000000003,-0.0035001630000000006,5.233,0,0
-0.009857424,0.010508354000000001,-0.0023760160000000003,0.0018373599999999997,-0.005616101,5.234,0,0
-0.006791696,0.015950894,-0.0025690600000000006,-0.00015932600000000016,-0.00623472,5.235,0,0
-0.0028608900000000005,0.017583810000000002,-0.0024540475999999998,-0.001343996,-0.0059501214,5.236,0,0
0.0009727300000000006,0.016752442,-0.0021040322,-0.0017317940000000003,-0.0040096534,5.237,0,0
0.005047650000000001,0.011151562000000002,-0.0010704262000000003,-0.0020262400000000003,-0.00036154339999999946,5.238,0,0
0.007191827999999999,0.004511792000000001,-0.0001327562,-0.002640768,0.0023723926000000003,5.239,0,0
0.006196486,0.0014437260000000004,0.00035801448000000007,-0.0033930640000000003,0.0030957618,5.24,0,0
0.0049916480000000004,-0.000756404,0.0007200920800000001,-0.0036135019999999998,0.0033510714,5.241,0,0
0.004277250000000001,-0.0033251720000000004,0.0011099026800000002,-0.003823656,0.0030469834,5.242,0,0
0.002596946,-0.0042368300000000005,0.00130359268,-0.00323241,0.0017275214,5.243,0,0
0.0011275980000000003,-0.004903498000000001,0.0013059126799999999,-0.0018924739999999997,0.0010422894,5.244,0,0
0.0008386020000000001,-0.006342250000000001,0.0013633586,-0.0006184068000000001,0.0012418334,5.245,0,0
-1.7366399999999916e-05,-0.00588201,0.0011101802,0.0006920732,0.0008574152000000001,5.246,0,0
-0.0016301484000000002,-0.003549878,0.0007769249999999999,0.0016271812000000002,8.777720000000005e-05,5.247,0,0
-0.0021986904,-0.0010685720000000003,0.0003007206,0.0021661152,-0.0007056848000000001,5.248,0,0
-0.0028402704,0.00206952,-6.900120000000003e-05,0.0026721692000000003,-0.0020847968,5.249,0,0
-0.0039785884,0.00526275,-0.00010211699999999998,0.003634056,-0.003616306,5.25,0,0
-0.0039991893999999995,0.006321036,0.0001711594,0.004462616000000001,-0.003866904,5.251,0,0
-0.0030194794,0.00471842,0.0008746266000000001,0.004803064,-0.003287532,5.252,0,0
-0.0021774774,0.0018872980000000004,0.001481075,0.004875988,-0.0031526139999999998,5.253,0,0
-0.0018571194,-0.001748464,0.0020712268,0.0043464,-0.00172307,5.254,0,0
-0.0011140114000000002,-0.006090656,0.002522222,0.0025611279999999998,0.0006347799999999999,5.255,0,0
0.0006145119999999998,-0.008299836,0.002633562,-0.00021632599999999997,0.0014711540000000001,5.256,0,0
0.003173162,-0.006642038,0.002188581,-0.002829158,0.0012616732,5.257,0,0
0.005917346,-0.003641009999999999,0.0013738594000000002,-0.004902512,0.0012857812000000002,5.258,0,0
0.008056802,-0.0009240139999999993,0.0008152693999999999,-0.006039010000000001,0.0005274931999999999,5.259,0,0
0.008205028000000001,0.0025636300000000003,1.416140000000003e-05,-0.005747386000000001,-0.0009829908,5.26,0,0
0.006042498,0.004831920000000001,-0.0007640746,-0.004545066,-0.0009064768,5.261,0,0
0.00311253,0.0027699260000000007,-0.0011444876,-0.0024630480000000002,-0.00018505400000000014,5.262,0,0
0.00040941999999999975,-0.0008942900000000001,-0.0014558840000000002,1.5338000000000157e-05,5.113100000000005e-05,5.263,0,0
-0.0006951600000000001,-0.0020453898,-0.0014611840000000001,0.0018440740000000002,0.000257145,5.264,0,0
-0.00025337600000000004,-0.0017094978,-0.0008936059999999999,0.0029832120000000003,-0.00018836299999999988,5.265,0,0
0.0002883142000000002,-0.0012375317999999995,-0.0004019428000000001,0.0033928350000000003,-0.002019687,5.266,0,0
-0.0003514598,0.0014712482000000006,-8.158380000000005e-05,0.0036448590000000003,-0.0036401930000000003,5.267,0,0
-0.0015919618,0.0049094382,0.000396124,0.003483433,-0.0035049820000000002,5.268,0,0
-0.0032845338000000003,0.0052094514000000005,0.00011973399999999998,0.0026253447999999998,-0.00319956852,5.269,0,0
-0.0056808658000000005,0.0039196172,-0.000382936,0.0022067268,-0.00200090252,5.27,0,0
-0.006650662000000001,0.0028970526,-0.00031216400000000003,0.0022796018,0.00075505548,5.271,0,0
-0.0065344420000000005,0.0007688965999999999,-0.0003350808,0.0015964958000000001,0.00279135548,5.272,0,0
-0.006562139999999999,-0.0015406334,-0.00048289639999999994,0.0005851096000000001,0.00335383748,5.273,0,0
-0.006713162,-0.0025050788,-0.00035014040000000006,0.0005292152,0.0037266280000000005,5.274,0,0
-0.006434456000000001,-0.0035798686,-0.00012228240000000003,0.0005762852,0.004164786,5.275,0,0
-0.006054380000000001,-0.00466832,-0.0005416936000000001,0.00016146139999999998,0.003335584000000001,5.276,0,0
-0.004467158,-0.004404158,-0.0008673938000000001,-0.0003319906000000001,0.0019672141999999997,5.277,0,0
0.000451772,-0.003474563,-0.0004777780000000001,-0.0010193244,0.0014495110000000001,5.278,0,0
0.006333558,-0.002193233,-0.00032780400000000006,-0.0017741938000000001,0.0011202864,5.279,0,0
0.009965922,0.0001336089999999998,-0.000329604,-0.0020706646,0.00013160639999999996,5.28,0,0
0.011044622,0.0017917749999999998,8.50602e-05,-0.0018415634,-0.0005666336000000001,5.281,0,0
0.010158177999999999,0.0011629149999999998,0.00047627180000000006,-0.0014431773999999998,-0.0008790158000000001,5.282,0,0
0.0059128040000000015,-0.0005480259999999999,0.0003494762,-0.0008173218,-0.0020975006,5.283,0,0
0.00033237399999999986,-0.002721654,0.00038909,-0.00020146480000000002,-0.0031345740000000006,5.284,0,0
-0.002956006,-0.004153110000000001,0.00030107379999999996,0.00013526999999999997,-0.0030938680000000005,5.285,0,0
-0.004400358,-0.0024329140000000004,-0.0004629464000000001,0.0004122266,-0.0030529822,5.286,0,0
-0.004125056,0.001481328,-0.0008358400000000001,0.0005186736000000001,-0.0024468076,5.287,0,0
-0.002218008,0.004154304,-0.0006596724000000001,0.000404314,-0.0006772076000000002,5.288,0,0
-0.0002200259999999999,0.005334584000000001,-0.0005592802000000001,-0.0003842809999999999,0.00030559012,5.289,0,0
0.0008571260000000002,0.00497185,-0.0002186960000000001,-0.001587659,0.00011453211999999993,5.29,0,0
0.002017193,0.0029173016,0.0005499878,-0.002143077,0.00041066151999999997,5.291,0,0
0.003356009,0.0016746736,0.0005411758,-0.0018086359999999998,0.00088328292,5.292,0,0
0.003236773,0.0026141256000000003,5.52378e-05,-0.00047919999999999994,0.0006597429200000001,5.293,0,0
0.001887529,0.0047091696,-0.00020260479999999997,0.001343178,0.0012957572000000003,5.294,0,0
0.0006550849999999999,0.004902655600000001,-0.0007407568,0.0018429520000000001,0.0022707772000000004,5.295,0,0
-0.000503142,0.0022884840000000004,-0.0010398526000000002,0.00029114000000000006,0.0012078640000000003,5.296,0,0
-0.001699093,-0.0014004680000000002,-0.0010360886,-0.002010606,-0.0005496779999999998,5.297,0,0
-0.002199061,-0.005090944000000001,-0.0009342638000000001,-0.0042346580000000005,-0.0014558799999999997,5.298,0,0
-0.0018062834000000005,-0.007830318000000001,-0.000660806,-0.0053451346,-0.0021888607999999998,5.299,0,0
-0.00040169140000000006,-0.007682706,-0.0003311364,-0.0042181366,-0.0025737726,5.3,0,0
0.0014000345999999999,-0.004933346,9.673359999999996e-05,-0.0016940506000000005,-0.0009815925999999999,5.301,0,0
0.0022683056,-0.0021135039999999996,0.00039815900000000003,0.0009338613999999999,0.0012335953999999998,5.302,0,0
0.0023662736,0.001357432,0.0005489582000000001,0.0034538954000000004,0.0021927054,5.303,0,0
0.0019504060000000002,0.005029004,0.0008270930000000001,0.004947766,0.0031616682000000004,5.304,0,0
0.0004954460000000003,0.006751846,0.0011436274,0.005017316000000001,0.00410631,5.305,0,0
-0.001734012,0.00676171,0.0013816154000000002,0.005445026,0.003956088,5.306,0,0
-0.0037356900000000003,0.005513631999999999,0.0016375180000000001,0.005484485999999999,0.0036614160000000002,5.307,0,0
-0.004893256,0.0026668639999999997,0.001711159,0.0034092939999999993,0.003958064000000001,5.308,0,0
-0.0052292680000000005,-0.00026067799999999986,0.001334526,0.0010559139999999996,0.0030417118000000006,5.309,0,0
-0.0045531880000000005,-0.0012280499999999998,0.0006620059999999999,-0.0005735580000000006,0.0014123998000000002,5.31,0,0
-0.00343608,-0.0009083460000000001,0.00018644999999999998,-0.0023611100000000005,0.0012331058000000002,5.311,0,0
-0.0028221500000000003,-0.00010982199999999982,0.00014633199999999997,-0.0031378776000000005,0.0014482418000000001,5.312,0,0
-0.0018253880000000003,0.00031873200000000006,4.340859999999997e-05,-0.0020145936000000005,0.0012645598000000002,5.313,0,0
-0.00017624799999999994,-0.001208616,-5.261900000000005e-05,-0.0007094076000000002,0.0017151840000000002,5.314,0,0
0.000994848,-0.004506708,0.0003543134,0.0001353248200000001,0.0020288520000000003,5.315,0,0
0.0021447759999999997,-0.008120676,0.0005335782,0.00099199282,0.0005221480000000003,5.316,0,0
0.003618216,-0.010331370000000001,0.00030730620000000004,0.00105895962,-0.0019133660000000001,5.317,0,0
0.005146478,-0.011128108000000001,0.0007402206000000001,0.00026432962,-0.00339403,5.318,0,0
0.0057670080000000006,-0.010685958,0.0015244832000000002,-0.00035564438000000007,-0.00436679,5.319,0,0
0.004982347400000001,-0.007450200000000001,0.0016630568,-0.0007090748000000001,-0.004872518,5.32,0,0
0.0044955254,-0.003463870000000001,0.0017096900000000003,-0.0014146428,-0.003982498,5.321,0,0
0.0038215834,-0.0016401092000000006,0.0017759616000000002,-0.0018967980000000003,-0.003035384,5.322,0,0
0.0015034354000000002,-0.0005411492000000002,0.0008351556000000002,-0.0015654494,-0.0031428980000000003,5.323,0,0
-0.0001060619999999999,0.0017933628,-0.0006130064000000001,-0.0014012310000000002,-0.0035340580000000005,5.324,0,0
-3.431399999999867e-06,0.0044077248,-0.0011739804000000002,-0.0018961310000000001,-0.003932096,5.325,0,0
-0.0005534793999999999,0.006815434800000001,-0.0013116824000000003,-0.002397101,-0.004768846,5.326,0,0
-0.0013155474,0.009359300000000001,-0.0012850294000000002,-0.002740431,-0.004802872,5.327,0,0
-0.0014010454,0.011327976000000002,-0.0005828534000000002,-0.0032831776,-0.003403596,5.328,0,0
-0.00178584,0.011789654000000002,8.560519999999998e-05,-0.0033197940000000005,-0.0017256299999999997,5.329,0,0
-0.00282014,0.011545614,0.00021537719999999998,-0.00224222,-1.648399999999966e-05,5.33,0,0
-0.003714048,0.011415274000000001,6.386400000000017e-06,-0.0011986076,0.0023413220000000003,5.331,0,0
-0.003999242,0.009777926000000001,-0.00015229754,-0.0008345876000000001,0.004185614,5.332,0,0
-0.004142734,0.0077898180000000004,-0.00034679654000000003,-0.000377843,0.004251432,5.333,0,0
-0.004206488,0.006108428000000002,-0.00038634073999999996,0.0006747370000000001,0.004686638,5.334,0,0
-0.0031549052000000005,0.001911826,4.012726000000001e-05,0.0017659230000000002,0.006125992,5.335,0,0
-0.0011824232000000002,-0.0037178940000000002,0.00047983806,0.0029786786000000004,0.0064245100000000005,5.336,0,0
0.00047336679999999986,-0.006496438,0.0004398668,0.004541956600000001,0.006024296,5.337,0,0
0.0024521848000000003,-0.007596002000000001,0.00027209740000000004,0.005229904000000001,0.006092210000000001,5.338,0,0
0.0040094868,-0.008722116,0.0002281292,0.004684106,0.0050080364000000014,5.339,0,0
0.004245026000000001,-0.008129994,-4.5954600000000016e-05,0.004064760000000001,0.0026692564,5.34,0,0
0.003386322832,-0.00617628,-6.449059999999999e-05,0.0035448840000000003,0.0012562391999999998,5.341,0,0
0.0014014108320000002,-0.004206341600000001,0.00012861779999999998,0.0029631540000000004,0.0008260971999999999,5.342,0,0
-0.0008974411680000001,-0.0022801076,0.0001212656,0.0027282800000000005,-2.7196800000000058e-05,5.343,0,0
-0.001957338568,-0.0003484836000000003,0.0002338234,0.0015026400000000004,-0.0006379852,5.344,0,0
-0.001725756568,-0.00013553760000000002,0.00026578660000000005,-0.001112174,-0.0010811611999999998,5.345,0,0
-0.0013693654000000001,-0.0013248296,-0.0002235874,-0.003951906,-0.002832878,5.346,0,0
-0.00029374739999999994,-0.0027599240000000004,-0.0005384298,-0.00642467,-0.004767668,5.347,0,0
0.0017461826000000004,-0.00539349,-0.0005360388,-0.00864322,-0.005978782,5.348,0,0
0.003738312,-0.007659082000000001,-0.0009032848,-0.009600252,-0.0070523700000000005,5.349,0,0
0.0045911300000000006,-0.006248214,-0.0012526042000000001,-0.008015966,-0.006981650000000001,5.35,0,0
0.005152190000000001,-0.0035271160000000003,-0.0011843530000000002,-0.005640282,-0.004875870000000001,5.351,0,0
0.005775614,-0.0029429699999999996,-0.0009072086,-0.003084588,-0.002560846,5.352,0,0
0.0048312066,-0.002748144,-0.0006444196,0.001399548,0.00023810400000000048,5.353,0,0
0.0022660706,-0.001509238,-0.0005362396000000001,0.006866601999999999,0.0043359520000000006,5.354,0,0
-0.0012435573999999994,0.0003434079999999999,-0.0003232972,0.009826270000000002,0.0070687119999999996,5.355,0,0
-0.0048343434,0.0030559880000000004,-0.00016738100000000003,0.010492595999999998,0.007016957999999999,5.356,0,0
-0.007413765399999999,0.00697967,-0.0005361348,0.009904529600000002,0.005805977999999999,5.357,0,0
-0.0086681,0.010595878,-0.0006921682,0.0067000155999999995,0.003768211999999999,5.358,0,0
-0.008781512,0.011621539999999998,-0.0005339466000000001,0.0021220956000000003,0.00029978799999999983,5.359,0,0
-0.007481846,0.009481067999999999,-0.00031546480000000006,-0.0013598024,-0.0025691280000000004,5.36,0,0
-0.005508904,0.00633431,0.00022824580000000002,-0.0036000644,-0.0032739659999999997,5.361,0,0
-0.004162012,0.0036340300000000008,0.0006112888,-0.004761992,-0.0030143408,5.362,0,0
-0.0027471536,0.00167777,0.0006582145999999999,-0.004623406000000001,-0.0029055748000000005,5.363,0,0
5.479040000000001e-05,0.000553976,0.0009178238,-0.0034717757999999997,-0.0017257488000000003,5.364,0,0
0.0029274444,-0.0008151720000000001,0.0008205853999999999,-0.0012093017999999997,0.00046552919999999986,5.365,0,0
0.0046628104,-0.002338868,-2.6882600000000033e-05,0.0016731342,0.0020832972,5.366,0,0
0.006872788400000001,-0.003522144,-0.00029360660000000006,0.0040426742,0.003173932,5.367,0,0
0.009059058000000002,-0.0048523839999999995,-0.00051037,0.005249800200000001,0.0040814,5.368,0,0
0.009039258,-0.006334055999999999,-0.0011530348,0.005084665940000001,0.003574318,5.369,0,0
0.0070423726,-0.005576515999999999,-0.0013977626,0.00338250794,0.0016563239999999998,5.37,0,0
0.004823336600000001,-0.002983332,-0.0014211486,0.0009495199399999999,8.250600000000004e-05,5.371,0,0
0.0021538226000000008,-0.0008064079999999996,-0.0014536104,-0.00103759006,-0.0013656900000000001,5.372,0,0
-0.0016753834,0.0026341940000000003,-0.0016470888,-0.0019915940600000004,-0.002781322,5.373,0,0
-0.0049848714,0.0064006440000000005,-0.0019278368000000003,-0.0021250054000000003,-0.0035766080000000002,5.374,0,0
-0.00642638,0.0065103374,-0.0020289888,-0.0021632974,-0.004273174,5.375,0,0
-0.007260292,0.0036742474000000004,-0.0019479687999999998,-0.0018044854000000001,-0.00521151,5.376,0,0
-0.008387088,0.0007894734000000005,-0.0018881388,-0.0016942294000000001,-0.005686120000000001,5.377,0,0
-0.009076842,-0.0025269766,-0.0012982248,-0.0029825234,-0.0054890500000000005,5.378,0,0
-0.008970964000000001,-0.0060963266,-0.00033480780000000006,-0.005038048,-0.005138780000000001,5.379,0,0
-0.006174834,-0.0087017,0.00010114179999999997,-0.0063527079999999994,-0.0041526160000000005,5.38,0,0
-4.033999999999982e-06,-0.01010718,0.0003889624,-0.006644456000000001,-0.002396816,5.381,0,0
0.006751686000000001,-0.009733582000000001,0.0005951886,-0.005754892,-0.0005951179999999998,5.382,0,0
0.010886792,-0.007178794000000001,0.00034496759999999994,-0.0026557380000000004,0.001495484,5.383,0,0
0.011063498,-0.002540194,0.0003354142,0.0008067700000000005,0.003597676,5.384,0,0
0.00825654,0.0017247000000000002,0.0006871326,0.002958534,0.004612776,5.385,0,0
0.004201101600000001,0.00378498,0.0007061648,0.004265808,0.0039365395999999995,5.386,0,0
0.0013245876,0.004565294000000001,0.0006616508000000001,0.004436204,0.0027267076000000003,5.387,0,0
0.0009717256000000005,0.004748962,0.0011007778,0.003808994,0.0016989522000000002,5.388,0,0
0.0024247456000000005,0.0055273019999999996,0.0013238562,0.003602038,0.00016861400000000004,5.389,0,0
0.0036118308000000006,0.0078115879999999995,0.0008539210000000001,0.003911194,-0.000837168,5.39,0,0
0.0031709912,0.010405628,0.0005942554,0.0039450019999999995,-0.0004983176,5.391,0,0
0.0017334754000000003,0.010676999800000002,0.0005617388,0.0034323839999999997,0.0003866404000000001,5.392,0,0
0.0007610054000000001,0.0074492858,0.0002920146,0.0023708272000000003,0.0006081178000000001,5.393,0,0
0.0007245454,0.0013724057999999987,0.0001453846,0.0008459091999999998,0.0008596674000000001,5.394,0,0
0.0009846082,-0.006296754200000001,0.000222589244,-0.0010266608,0.0016625414000000002,5.395,0,0
0.0009502262,-0.011951514200000003,3.7116044000000056e-05,-0.0022194288,0.0019092774000000002,5.396,0,0
-0.00017133399999999987,-0.011187402,-1.5192755999999967e-05,-0.0025706428,0.0020039634000000002,5.397,0,0
-0.001858322,-0.006089810000000001,0.00017770344400000002,-0.003268744,0.0025803814000000002,5.398,0,0
-0.003995242,-0.0019402799999999993,0.000261845444,-0.003756346,0.0023387936000000007,5.399,0,0
-0.006657428,0.0022807500000000002,0.000679256,-0.0034590300000000005,0.0008259396000000001,5.4,0,0
-0.008429588,0.0065316820000000005,0.001397252,-0.0033124880000000006,1.185160000000021e-05,5.401,0,0
-0.008997826,0.006793228000000001,0.00178241,-0.0029491740000000006,-0.00023021839999999994,5.402,0,0
-0.008261592000000002,0.0040101320000000005,0.0014265862,-0.0019473818,-0.0012249984,5.403,0,0
-0.005465950000000001,0.0020416540000000004,0.0008500821999999999,-0.0013897178000000002,-0.0016365720000000002,5.404,0,0
-0.0017986120000000002,0.0005930600000000001,0.0002749287999999999,-0.0013053418,-0.00136176,5.405,0,0
0.001212632,-0.0016137859999999999,-0.0002589942000000001,-0.0008184306,-0.0024537720000000003,5.406,0,0
0.003328956,-0.0037050800000000004,-0.00041328020000000004,-7.232859999999996e-05,-0.004415068,5.407,0,0
0.003755716,-0.004945364,-8.245440000000001e-05,0.0008413232,-0.004882684,5.408,0,0
0.0028202618,-0.004987656,0.00026545160000000003,0.0028274831999999996,-0.003793384,5.409,0,0
0.0020484538,-0.0036141059999999997,0.00035508740000000005,0.005140677200000001,-0.0023314639999999997,5.41,0,0
0.0017487238,-0.0006157420000000003,0.0005040740000000001,0.005960156000000001,-3.451800000000009e-05,5.411,0,0
0.0014480518,0.003193416,0.00039462080000000004,0.004745142,0.00214987,5.412,0,0
0.0010772018,0.006517636,0.00034161680000000005,0.002343668,0.0023083860000000004,5.413,0,0
0.0007628967999999999,0.007833270000000002,0.0008663168000000001,-0.0003115259999999997,0.0021258540000000004,5.414,0,0
0.00031137199999999997,0.006969852,0.0013454004,-0.0021397020000000003,0.0027543080000000005,5.415,0,0
-0.000510326,0.004763000000000001,0.0013486798,-0.0024460080000000004,0.0029360840000000003,5.416,0,0
-0.0009947262,0.0016799559999999998,0.00125748964,-0.001050774,0.0036088500000000003,5.417,0,0
-0.0008073710000000001,-0.001158884,0.0008661700399999999,0.0014315719999999999,0.00498861,5.418,0,0
-0.0007214600000000002,-0.003069744,-0.00017131996000000008,0.002769928,0.0046433922,5.419,0,0
-0.0007800064,-0.003358732,-0.0013055719600000002,0.0025132999999999996,0.0025417122,5.42,0,0
-0.0004273428,-0.00288622,-0.0019170969600000001,0.0014013760000000002,0.0007165221999999999,5.421,0,0
-2.9962599999999956e-05,-0.0030006640000000005,-0.0020044438,-0.00025936800000000027,-0.0010553918000000002,5.422,0,0
0.00022922560000000007,-0.0030881580000000006,-0.0019975452,-0.0013868864,-0.0028238558000000004,5.423,0,0
0.0010768378,-0.002751434,-0.0017906482000000002,-0.0010777264,-0.0035304660000000003,5.424,0,0
0.002354999,-0.0030658580000000003,-0.0009637692,-0.0004506594,-0.00358843,5.425,0,0
0.0032685734,-0.004520378,-0.00021584419999999996,0.0002941786000000001,-0.004054902,5.426,0,0
0.0034967234000000003,-0.0050083440000000005,1.2619600000000024e-05,0.0014235366000000002,-0.0047517359999999995,5.427,0,0
0.0032979223999999997,-0.0038127360000000006,0.0006112426000000001,0.0012188106000000003,-0.004353636000000001,5.428,0,0
0.002435454,-0.0016731080000000002,0.0011864896000000002,0.00044818660000000004,-0.0036343820000000002,5.429,0,0
0.000598914,0.001847636,0.0014962326000000003,0.0010359996000000001,-0.00245536,5.43,0,0
-0.0009825300000000001,0.00529908,0.0020568876,0.0015547796,0.00034803199999999986,5.431,0,0
-0.000853754,0.0061335184,0.0022981780000000005,0.0010640684000000002,0.0031030600000000004,5.432,0,0
