bandpass 1,bandpass 2,bandpass 3,bandpass 4,bandpass 5,time,onset,mark
-0.0033549960000000007,0.0021404196,-0.0005062162,-0.001690126,0.00029323800000000014,6.412,0,0
-0.0038931900000000004,0.0014225516,-0.0010059762,-0.002196156,0.000867278,6.413,0,0
-0.0033156080000000007,-0.0004890764000000001,-0.0012491322,-0.002574408,0.002115044,6.414,0,0
-0.0010544764,-0.0030211764,-0.0008718112,-0.001842282,0.00440918,6.415,0,0
-0.0004261606,-0.0035371864,-0.0010171862,0.0001543880000000001,0.005579967999999999,6.416,0,0
0.0014192734000000001,-0.0037050380000000003,-0.001276343,0.0013773639999999998,0.006460826,6.417,0,0
0.0035438014,-0.003684838,-0.001279353,0.002553278,0.007266784000000001,6.418,0,0
0.0035818394,-0.0018356230000000002,-0.001560849,0.00374161,0.006662336000000001,6.419,0,0
0.0042414718,-0.002019117,-0.002083392,0.00349835,0.0051051408000000005,6.42,0,0
0.005174313999999999,-0.005736077000000001,-0.002019902,0.0024968177999999995,0.0029918828000000007,6.421,0,0
0.0035959328,-0.006541703,-0.0014397022,0.0022603038000000002,0.00011190680000000043,6.422,0,0
0.0012471207999999998,-0.002477035,-0.0005848162,0.0019377918000000002,-0.0029509732,6.423,0,0
0.0006807596000000002,0.0008613779999999999,0.0002779618000000001,0.0009075118,-0.0051544592,6.424,0,0
-0.00021974239999999985,0.00417501,0.0011150818,0.0005843092000000002,-0.006307086,6.425,0,0
-0.0021442004,0.00981163,0.0020884218000000003,-0.00029595059999999994,-0.007474792,6.426,0,0
-0.002114963,0.012488270000000001,0.00244193,-0.0023431245999999996,-0.007390408,6.427,0,0
-0.0006199970000000001,0.00911231,0.002189991,-0.0035991126,-0.005498262,6.428,0,0
-8.666779999999996e-05,0.004564516000000001,0.0018886769999999998,-0.0038659265999999998,-0.0033086120000000007,6.429,0,0
-0.0001359937999999999,0.0015729720000000002,0.00143362928,-0.00407366,-0.00032791400000000076,6.43,0,0
-0.00015895579999999996,-0.001482624,0.00114189928,-0.0031763902000000004,0.003714392,6.431,0,0
-0.0006345340000000001,-0.00391831,0.0012802092800000002,-0.0009342862000000001,0.0066721160000000005,6.432,0,0
-0.00116565,-0.004641470000000001,0.00150061428,0.0005933878,0.00780193,6.433,0,0
-0.0010592499999999999,-0.004560176000000001,0.0019131982800000003,0.0014793278,0.008347964,6.434,0,0
-0.00027491600000000016,-0.005281812,0.0021954360000000003,0.0025067618,0.007560168,6.435,0,0
0.0007317816,-0.006237452,0.001565018,0.0032322740000000003,0.0051771292,6.436,0,0
0.0016464516000000004,-0.007348596000000001,0.0006651600000000001,0.002955442,0.0029105012000000003,6.437,0,0
0.0025928276000000004,-0.008867656,3.380400000000018e-05,0.0024453686000000005,0.0011688532000000001,6.438,0,0
0.0024535876000000003,-0.007400169999999999,-0.00078093,0.0027250666,-0.0012850188,6.439,0,0
0.0011456836000000002,-0.0026387459999999995,-0.001281566,0.0027753886000000004,-0.0039133088,6.44,0,0
0.0007559219999999998,0.0016476900000000007,-0.0012458256,0.0023253806,-0.005260252,6.441,0,0
0.000655858,0.005924006000000001,-0.000831509,0.0024662206,-0.006352142,6.442,0,0
-0.001133902,0.010786166000000002,-0.00016660299999999987,0.0024798076,-0.007192568,6.443,0,0
-0.0028600120000000003,0.012263170000000002,0.0003453896000000001,0.0010482675999999996,-0.006193002,6.444,0,0
-0.0023109320000000004,0.009745876,0.00056316562,-0.0003281804,-0.0044493174000000005,6.445,0,0
-0.0015972000000000002,0.006334926000000001,0.0005853460200000001,-0.0011168484,-0.0029516120000000006,6.446,0,0
-0.0020590540000000003,0.0030469060000000003,0.00010526341999999997,-0.0023304424000000004,-0.0004658800000000001,6.447,0,0
-0.001947702,-1.0275999999999872e-05,-0.00069994658,-0.0030004660000000002,0.00197984,6.448,0,0
-0.0007267625999999999,-0.002440434,-0.00127771518,-0.002592806,0.003064242,6.449,0,0
-0.0002529406,-0.00429705,-0.0017128532000000001,-0.002564546,0.0037138754000000003,6.45,0,0
-0.00010378259999999995,-0.00571516,-0.0015776694000000002,-0.00266896,0.004525684,6.451,0,0
0.0018732034,-0.006969680000000001,-0.0010990916000000002,-0.0016832060000000005,0.004052822,6.452,0,0
0.0042247094,-0.00788108,-0.0006975082000000001,-0.0008861740000000001,0.002422084,6.453,0,0
0.005251738000000001,-0.008008962000000001,-9.938619999999999e-05,-0.00030052400000000015,0.0014777483999999998,6.454,0,0
0.005468108,-0.0067499840000000005,0.0007264118,0.001264272,0.00022352039999999998,6.455,0,0
0.004161796,-0.003188084000000001,0.0011723092,0.002605788,-0.0021457416000000003,6.456,0,0
0.0004611379999999998,0.001323476,0.0014698854,0.0027253620000000003,-0.004049371600000001,6.457,0,0
-0.0027721180000000005,0.0056278579999999995,0.0019009180000000001,0.0028300860000000003,-0.0047910056,6.458,0,0
-0.0041862240000000005,0.010024528,0.0016763548,0.0028499280000000007,-0.005752432000000001,6.459,0,0
-0.005417156,0.01308116,0.0009430888000000001,0.0013809260000000002,-0.005883010000000001,6.46,0,0
-0.005997092000000001,0.0119688766,0.00028785679999999996,-0.000633392,-0.003830342000000001,6.461,0,0
-0.00468058,0.007350516599999999,-0.00010379199999999996,-0.001781664,-0.001315402,6.462,0,0
-0.0027354220000000004,0.001995276599999999,-0.00026866999999999993,-0.0027380840000000004,0.0008049380000000002,6.463,0,0
-0.0021994796000000005,-0.0048466834,-5.14666e-05,-0.003908962,0.0034036580000000004,6.464,0,0
-0.0016643976000000002,-0.0113126434,3.356339999999999e-05,-0.004294914,0.005524052,6.465,0,0
0.00042100039999999996,-0.01358378,-0.0003078846,-0.0037487560000000007,0.005715444,6.466,0,0
0.0024067964000000002,-0.012361420000000001,-0.0005954918000000001,-0.0029985352000000006,0.00585582,6.467,0,0
0.0029140904000000004,-0.0100237728,-0.0007958402800000001,-0.0023078720000000003,0.006037586,6.468,0,0
0.003001714,-0.006519626800000001,-0.0006495764800000002,-0.0012550686,0.0044311532,6.469,0,0
0.0033551406,-0.0025073268,0.0001557955199999999,0.00028114740000000007,0.0024310352,6.47,0,0
0.0027739254,0.00022249919999999999,0.00135417752,0.0020720914,0.0011619732,6.471,0,0
0.0013499458000000002,0.0023547532000000003,0.00256755152,0.0043224226000000004,-0.0013771368,6.472,0,0
0.0006595058000000001,0.004301472000000001,0.0033790319999999997,0.006343295400000001,-0.0044858828,6.473,0,0
0.0004616286,0.0065380460000000005,0.003479576,0.007709764000000001,-0.005721348,6.474,0,0
-0.000240604,0.008451326,0.003242078,0.008471934,-0.006325782,6.475,0,0
-0.0003950802,0.009182592,0.0022434359999999997,0.007495594400000001,-0.007155082,6.476,0,0
-0.0003245886,0.008405521999999999,0.0004049619999999998,0.0044280964,-0.0062584879999999996,6.477,0,0
-0.0009286606000000001,0.0054928419999999995,-0.0011073559999999999,0.0012575964,-0.003730772,6.478,0,0
-0.00010646940000000001,0.0016266939999999997,-0.0023400720000000003,-0.0012778655999999998,-0.0018188540000000004,6.479,0,0
0.0017773866000000004,-0.0023210220000000003,-0.003261494,-0.0041884136,0.00020361200000000004,6.48,0,0
0.0025815480000000003,-0.005524196,-0.003282532,-0.006208684000000001,0.0027927280000000004,6.481,0,0
0.0032689940000000003,-0.0076433740000000005,-0.0030034320000000003,-0.007012569999999999,0.00415305,6.482,0,0
0.003672350400000001,-0.007605560000000001,-0.0023633278,-0.007866548000000001,0.004263346,6.483,0,0
0.0021454984,-0.005052060000000001,-0.0007315498000000002,-0.008401490000000001,0.004489910000000001,6.484,0,0
-7.887560000000016e-05,-0.0024473900000000002,0.0007793722,-0.00770503,0.004511442000000001,6.485,0,0
-0.0017146676000000002,-0.0005184664000000002,0.0016390521999999999,-0.0059948998,0.0032135842200000002,6.486,0,0
-0.003421967600000001,0.0014813456000000002,0.0021162764,-0.0044039783999999995,0.0017761322200000001,6.487,0,0
-0.004501262000000001,0.0023016952,0.0020207936,-0.0023861286,0.0006005642200000003,6.488,0,0
-0.003556308,0.0011163032000000002,0.0013999046,-8.94859999999993e-06,-0.00170460578,6.489,0,0
-0.0014972200000000005,0.0005785812,0.000397489,0.0011124974,-0.00434226178,6.49,0,0
0.00017199399999999986,0.0011927636,-0.000457347,0.0015426272,-0.005590024000000001,6.491,0,0
0.0012766201999999999,0.0020033316,-0.0008655512000000001,0.0024998138000000003,-0.005827732,6.492,0,0
0.0013612302000000002,0.003560888,-0.0010531106,0.002916882,-0.005742528000000001,6.493,0,0
-5.962780000000009e-05,0.004248928000000001,-0.0012465996000000001,0.0022460932000000003,-0.0041648972,6.494,0,0
-0.0019786518,0.003404664,-0.0014807280000000002,0.0025037012,-0.0013528992000000001,6.495,0,0
-0.0030481518,0.002081604,-0.0016017880000000003,0.0031611392,0.0011638388,6.496,0,0
-0.002805454,-5.0385999999999704e-05,-0.0012205608000000001,0.0028044552,0.0036697968000000006,6.497,0,0
-0.001576768,-0.002582454,-0.0010289722,0.0028632132,0.006254676800000001,6.498,0,0
1.7504000000000055e-05,-0.004046844,-0.0014477742000000003,0.003648564,0.00806096,6.499,0,0
0.001443134,-0.004151822,-0.0015410202,0.003421698,0.008417204000000001,6.5,0,0
0.0022124480000000005,-0.004407488,-0.0015851862,0.00216487,0.00824967,6.501,0,0
0.002377216,-0.004523768,-0.0016912354,0.0015561972000000001,0.007069598,6.502,0,0
0.002430068,-0.0036506380000000003,-0.0014931366000000001,0.0009383794,0.004323262,6.503,0,0
0.0027860460000000004,-0.0030115772,-0.0010332852,-3.2685999999999216e-06,0.0017904000000000002,6.504,0,0
0.002597022,-0.0018375672,-0.00034415320000000005,0.0002508654,-0.000711608,6.505,0,0
0.0012981859999999998,0.0011483948000000003,0.00012613650000000006,0.0013969434,-0.003612922,6.506,0,0
-1.5676000000000058e-05,0.0041547748,7.260250000000002e-05,0.0020323382,-0.005871822,6.507,0,0
-0.0012322500000000003,0.005292424800000001,-0.00020487290000000002,0.0022139050000000004,-0.00700582,6.508,0,0
-0.0026749800000000004,0.0067472980000000005,-0.0002595683,0.0019513530000000003,-0.007846584,6.509,0,0
-0.0032850540000000004,0.008612638,-0.00047842410000000017,0.0005835149999999999,-0.007626154,6.51,0,0
-0.0026607026000000002,0.00798542,-0.0006849192000000003,-0.0012989310000000001,-0.0057671908,6.511,0,0
-0.001975717,0.005756634,-0.0005433994000000001,-0.002784273,-0.0037534688000000005,6.512,0,0
-0.0012622526000000002,0.003725196000000001,-0.0006937974,-0.004111788,-0.0016698148000000002,6.513,0,0
-0.0005580788,0.0008434280000000007,-0.0011377374000000001,-0.005322800000000001,0.0009001512000000001,6.514,0,0
-0.00048523980000000005,-0.0034012340000000004,-0.0015226616,-0.00543124,0.0031351352000000003,6.515,0,0
-0.0004961752,-0.006335714000000001,-0.0015082268000000002,-0.0045830796000000005,0.004307158,6.516,0,0
-0.00013702900000000002,-0.00732348,-0.0011372006,-0.0041146836,0.005002084,6.517,0,0
5.533859999999998e-05,-0.007420084000000001,-0.0004673286,-0.0033168556000000007,0.005600760000000001,6.518,0,0
0.00014134880000000005,-0.0060599400000000015,0.0002200554,-0.0014485576000000003,0.005202128,6.519,0,0
0.0010320158000000001,-0.003615676000000001,0.0009836754,-0.0005119218,0.003994267399999999,6.52,0,0
0.0023679898000000003,-0.0023238449999999997,0.001617326,0.00027021779999999995,0.0031760934,6.521,0,0
0.0037211120000000004,-0.002634771,0.0013561282,0.0023253918000000003,0.0018836194,6.522,0,0
0.004710866,-0.002215883,0.0012134764,0.0041601858000000005,-0.00021187859999999997,6.523,0,0
0.005560098000000001,-0.0011408250000000003,0.0013810544,0.005236609800000001,-0.0016510006000000001,6.524,0,0
0.005646920000000001,2.6550999999999875e-05,0.0015483624,0.005563096,-0.0028493240000000003,6.525,0,0
0.003614902,0.002704318,0.0019061744000000002,0.004494426000000001,-0.0049656760000000005,6.526,0,0
0.0007652339999999998,0.0068655,0.0021589602,0.002401724,-0.005830450000000001,6.527,0,0
-0.0015555819999999998,0.009747756,0.001733446,0.00025149800000000006,-0.00467815368,6.528,0,0
-0.0035639159999999994,0.009685232,0.0010013280000000001,-0.001879248,-0.0038964228800000005,6.529,0,0
-0.005236396,0.007795474000000001,0.000683814,-0.003169992,-0.00258896888,6.53,0,0
-0.005568108,0.004640030000000001,0.00053781,-0.003440644,0.0003018811200000002,6.531,0,0
-0.004904854,0.0006524,0.00115859,-0.003176298,0.0026549891200000003,6.532,0,0
-0.0037332161999999998,-0.0034855,0.002329334,-0.0023790954,0.0038050348,6.533,0,0
-0.0024566381999999998,-0.006038208,0.003034504,-0.0017183074,0.005309068,6.534,0,0
-0.0009646001999999999,-0.006544536,0.0027277856,-0.0008283160000000001,0.006259572,6.535,0,0
0.0006197058000000001,-0.0059888132,0.0015712876000000004,0.0005282940000000001,0.00525153,6.536,0,0
0.0011651818,-0.004742959200000001,0.0001325816000000001,0.001299968,0.0037601900000000005,6.537,0,0
0.000701352,-0.0030632172,-0.000969866,0.0017097694,0.0022207220000000005,6.538,0,0
-0.001275234,-0.0009277672000000002,-0.001591926,0.0026838214000000004,-0.00074982,6.539,0,0
-0.0032966620000000006,0.0010947388,-0.0020072516,0.0036257320000000004,-0.004058602,6.54,0,0
-0.004290700000000001,0.0030913420000000004,-0.0018458636,0.0036326640000000003,-0.005939946,6.541,0,0
-0.005418286000000001,0.004840654,-0.0018579656000000003,0.0033277360000000004,-0.0075203959999999995,6.542,0,0
-0.00614456,0.006977958,-0.002599456,0.0027085862000000003,-0.00890983,6.543,0,0
-0.003842164000000001,0.009152782,-0.0034286860000000002,0.0009892861999999999,-0.008288258,6.544,0,0
-0.0004633160000000001,0.008681788,-0.003965766000000001,-0.0008260418000000002,-0.006172568099999999,6.545,0,0
0.0005793459999999997,0.005183582,-0.0041909880000000005,-0.0022492918000000003,-0.0040214881,6.546,0,0
0.001513984,0.0005391459999999995,-0.003978334,-0.0036685838000000007,-0.0008555060999999998,6.547,0,0
0.00141858,-0.0046486800000000005,-0.0027860420000000003,-0.003866476,0.0029156559000000004,6.548,0,0
-0.002023574,-0.009852080000000003,-0.0009366179999999997,-0.0026658540000000005,0.005591955900000001,6.549,0,0
-0.004897596000000001,-0.013267824000000003,0.0007244140000000002,-0.0020159062,0.007073538000000001,6.55,0,0
-0.0014590759999999997,-0.014055560000000003,0.00206913,-0.0017627742,0.007772988000000001,6.551,0,0
0.0056738299999999995,-0.011042651000000002,0.0028905800000000002,-0.0010013362,0.007458824000000001,6.552,0,0
0.011232084,-0.005723611000000002,0.0027840686,-0.0006437738,0.0055694336000000014,6.553,0,0
0.015156660000000002,-0.0012944330000000002,0.0022620886,-0.0006990358000000003,0.0034438676,6.554,0,0
0.016630396000000002,0.002056765,0.0017892446000000004,-6.984559999999995e-05,0.0015231256000000004,6.555,0,0
0.013147998000000001,0.0044993030000000005,0.0011774868,0.0014114684,-0.0009112124000000001,6.556,0,0
0.006040572,0.004481129800000001,0.0008632302000000001,0.0023911724,-0.0032856584000000005,6.557,0,0
0.0003298680000000001,0.0027668372,0.0008279496,0.002464084,-0.004777376,6.558,0,0
-0.0037069480000000003,0.0029272692,0.0008891876,0.0021755314,-0.006017952000000001,6.559,0,0
-0.006427208,0.0044272112,0.0010955116,0.0011026494,-0.006808644000000001,6.56,0,0
-0.00631094,0.004683385200000001,0.0012579414,-0.0006994785999999999,-0.005366225800000001,6.561,0,0
-0.004729798,0.0045398474,0.0012750690000000002,-0.0020932526,-0.0029345538000000006,6.562,0,0
-0.0030867038,0.004933192,0.001071322,-0.0031855726,-0.0004045778000000002,6.563,0,0
-0.0006818978,0.0034744740000000004,0.0005439640000000001,-0.004160896000000001,0.0028806162,6.564,0,0
0.0009021422,0.00017478199999999995,-0.000317304,-0.004031412,0.0058257382,6.565,0,0
-0.00015140980000000008,-0.0019792020000000002,-0.0008938860000000001,-0.0032688702,0.006731599999999999,6.566,0,0
-0.0017066618000000002,-0.0037997,-0.0009509064000000001,-0.0027957862000000003,0.006330657999999999,6.567,0,0
-0.002467632,-0.006697572000000001,-0.0007241856,-0.0017786506000000003,0.00612308,6.568,0,0
-0.002206912,-0.009623864,-0.0007167616000000001,0.0003163434,0.004703996,6.569,0,0
-0.0017174042000000004,-0.010737294,-0.0006769415999999999,0.0020553534000000004,0.0028167922000000003,6.57,0,0
-0.0009512542000000001,-0.0088158652,-0.00030989879999999997,0.0034644916000000003,0.0021069222,6.571,0,0
0.0005498198000000001,-0.0044516652,-0.00034323119999999995,0.0054680656000000005,0.0008723941999999997,6.572,0,0
0.0011423658,0.0008706148000000007,-0.0005732366000000001,0.007405531999999999,-0.0013572858000000002,6.573,0,0
2.55498000000002e-05,0.006367654800000001,8.110740000000005e-05,0.008222482,-0.0028990458000000005,6.574,0,0
-0.00047440199999999974,0.011576316800000002,0.0011366074000000001,0.007959906000000001,-0.004029274,6.575,0,0
-2.7407999999999816e-05,0.014219100000000002,0.0012005994,0.006949291999999999,-0.0054661300000000005,6.576,0,0
-0.0009188319999999996,0.013283778000000001,0.0012414087999999999,0.004857917999999999,-0.0054680860000000005,6.577,0,0
-0.0010569992,0.010559868,0.0014520721999999998,0.001829668,-0.00379923,6.578,0,0
0.0004895286000000001,0.006488748000000002,0.0009349847999999999,-0.0009009380000000001,-0.0017860439999999997,6.579,0,0
0.0018645386000000004,0.001816622000000001,0.0005544168,-0.002790868,0.000549512,6.58,0,0
0.0018048326000000003,-0.001472204,0.000614216,-0.004857506,0.0034289060000000002,6.581,0,0
0.0015438922000000003,-0.0037466739999999998,0.00044438059999999996,-0.005924442,0.005476428,6.582,0,0
0.0021599594,-0.0049274160000000004,4.3788799999999956e-05,-0.005665150000000001,0.005430968000000001,6.583,0,0
0.0022671876000000006,-0.005059532,-7.940980000000007e-05,-0.005963848000000001,0.004917452,6.584,0,0
0.0017435856000000002,-0.0055002160000000005,-0.00033724910000000006,-0.005730764,0.0041146360000000005,6.585,0,0
0.0003355936,-0.004887993,-0.0007533529000000001,-0.003768454,0.0017559939999999999,6.586,0,0
-0.0011843700000000001,-0.0031469669999999996,-0.0007273053000000001,-0.0018130680000000001,-0.00021311000000000008,6.587,0,0
-0.0018710000000000003,-0.0021202208,-0.0002134653,-0.00036348399999999953,-0.0009501900000000001,6.588,0,0
-0.0022615956,-0.0004486148,0.0002141307,0.0017525840000000002,-0.00256025,6.589,0,0
-0.0036724036,0.0024589632000000003,0.00041052600000000003,0.0034839800000000002,-0.004695218,6.59,0,0
-0.0047292836,0.0042666242,0.0010854238000000001,0.004113984,-0.0056488400000000005,6.591,0,0
-0.004159207600000001,0.0051364262,0.0016219280000000001,0.00501312,-0.00624191,6.592,0,0
-0.0038637472000000008,0.005778592000000001,0.0015361604,0.0056572540000000004,-0.0069940720000000005,6.593,0,0
-0.0032792476,0.0050655858,0.0013241818400000001,0.004728203,-0.006101137999999999,6.594,0,0
-0.0013363016,0.0025808818000000004,0.00094817684,0.003160455,-0.00382355,6.595,0,0
0.0010901424,-0.0011244502000000002,4.066840000000111e-06,0.0015670890000000002,-0.0021837754000000008,6.596,0,0
0.0024832844,-0.0045880622,-0.00114089116,-0.0009860150000000002,-0.00021238340000000015,6.597,0,0
0.0029020120000000003,-0.0069281442,-0.00198026956,-0.003418909,0.0028215666000000004,6.598,0,0
0.0025930116000000003,-0.007711868,-0.002559707,-0.004162732000000001,0.0051228526,6.599,0,0
0.0017206506,-0.006768284,-0.0026940420000000002,-0.004379846,0.0060182986,6.6,0,0
0.0012963248,-0.005274842,-0.002561958,-0.004745324,0.0068198600000000005,6.601,0,0
0.0005380284,-0.0038716040000000003,-0.0023494640000000003,-0.0044488060000000005,0.006651270000000001,6.602,0,0
-7.681800000000005e-06,-0.002436128,-0.00166876,-0.004037364,0.00425268,6.603,0,0
0.0007198226000000002,-0.0016657719999999998,-0.0003796620000000001,-0.003929884,0.0015454620000000005,6.604,0,0
0.0016797316000000003,-0.0012698152000000002,0.000896706,-0.0031069068000000003,-0.0007808839999999997,6.605,0,0
0.0022928754000000003,-0.00017298319999999989,0.001822416,-0.0016167388000000002,-0.003604834,6.606,0,0
0.0030774038,0.0012791807999999998,0.0024003054000000003,-0.0002433567999999999,-0.00647383,6.607,0,0
0.00359157,0.0023245488,0.00241798742,0.0008459692000000001,-0.007815596000000001,6.608,0,0
0.0021856740000000003,0.0036806628,0.0017786208200000003,0.0018993672000000002,-0.00846076,6.609,0,0
-6.144799999999997e-05,0.005367004,0.0009602710200000001,0.002321964,-0.008536122,6.61,0,0
-0.001714258,0.00533625,0.00020685122000000002,0.0022404400000000002,-0.006197052,6.611,0,0
-0.0029732260000000003,0.004260793,-0.00017016018000000002,0.0025020280000000003,-0.0025659839999999995,6.612,0,0
-0.003460066,0.0030900570000000002,-0.0003585734,0.0024895940000000004,0.0008999920000000001,6.613,0,0
-0.0027976362,0.000579247,-0.0009286228000000001,0.0015100900000000002,0.004640038000000001,6.614,0,0
-0.0022381082,-0.003114859,-0.0012480136,0.0005616900000000001,0.007939792000000001,6.615,0,0
-0.0022734202,-0.006991385,-0.0014023598,0.00013346459999999993,0.008821394,6.616,0,0
-0.0029468722,-0.010083774,-0.0018322078,-0.0009630934000000001,0.008546056,6.617,0,0
-0.005784032200000001,-0.011161879999999999,-0.0020569506,-0.0017398234000000003,0.008104692,6.618,0,0
-0.007903338000000001,-0.00981236,-0.0015290958,-0.0013776074,0.0059975868,6.619,0,0
-0.007807944000000001,-0.0071241279999999995,-0.0010383852,-0.0007235614000000001,0.0034409308000000003,6.62,0,0
-0.005015730000000001,-0.0040426822,-0.0005526411999999999,-0.00021153399999999998,0.0016205548000000002,6.621,0,0
0.0017739700000000001,-8.630020000000005e-05,0.0006417908,0.001360508,-0.0007782572000000001,6.622,0,0
0.007342530000000001,0.0052163798,0.0017558548,0.004021712,-0.0033972792000000005,6.623,0,0
0.009647430000000002,0.0093841398,0.0020789420000000003,0.005238846,-0.005284054,6.624,0,0
0.011757592000000002,0.0113362478,0.0018898978,0.005399466,-0.006618614,6.625,0,0
0.010600674000000001,0.012961257999999998,0.0018854454000000003,0.005610744,-0.00719249,6.626,0,0
0.004942312,0.012934086,0.0016338894000000003,0.004352529399999999,-0.00628811,6.627,0,0
0.0018473519999999998,0.00943573,0.0011770114,0.0013508553999999995,-0.004236206,6.628,0,0
0.0010875880000000002,0.005073348,0.0012161514,-0.0008244066000000001,-0.0020211180000000006,6.629,0,0
-0.00030397882,0.0020881520000000002,0.0016029516000000002,-0.0023092206,0.000433034,6.63,0,0
-0.00033369081999999996,-0.000497534,0.0016008854000000002,-0.0040408146,0.0029465740000000004,6.631,0,0
0.0004580131799999999,-0.0029251100000000003,0.0011441934,-0.0045968,0.004782080000000001,6.632,0,0
0.00145718118,-0.004869994000000001,0.00038650939999999997,-0.00449959,0.00538494,6.633,0,0
0.0022277271800000002,-0.006091896,-0.0007622306,-0.00453361,0.005739920000000001,6.634,0,0
0.001659706,-0.006236234,-0.0017042486000000002,-0.003882862,0.005743550000000001,6.635,0,0
0.00012124399999999995,-0.005184404,-0.002149728,-0.002886662,0.003991084000000001,6.636,0,0
-0.0013394420000000001,-0.0033686714,-0.002106866,-0.0026265140000000004,0.001785562,6.637,0,0
-0.0027463820000000003,-0.0014291733999999999,-0.0017648862,-0.0017953054000000002,0.00031783599999999983,6.638,0,0
-0.004129824000000001,0.0007733626,-0.0012102242000000003,0.00015908259999999994,-0.001669386,6.639,0,0
-0.004675222,0.0027733846,-0.0007495452,0.0013976046,-0.004313066,6.64,0,0
-0.004539546,0.0041004246,-0.000336254,0.0018498606000000003,-0.00559897,6.641,0,0
-0.004623826000000001,0.004944812,7.486600000000004e-05,0.0025976286,-0.006065142,6.642,0,0
-0.005146956,0.005108724,0.0004255992000000001,0.0029172360000000006,-0.006954856000000001,6.643,0,0
-0.00531312,0.0036010700000000005,0.0008608892000000001,0.00170363,-0.0062502799999999996,6.644,0,0
-0.005117328000000001,0.00046652399999999985,0.00083814728,0.0001486259999999999,-0.0035962500000000005,6.645,0,0
-0.005700798000000001,-0.002485754,0.0006934096000000001,-0.0007281820000000002,-0.0011105679999999997,6.646,0,0
-0.0057530820000000005,-0.00474222,0.0004904442,-0.002126192,0.0011956840000000002,6.647,0,0
-0.0038359340000000005,-0.006315808000000001,0.0001964406,-0.003849156,0.003554082,6.648,0,0
-0.0008785239999999999,-0.006020566,-0.0001162604,-0.004214516,0.00475603,6.649,0,0
0.002323878,-0.003961794,-0.00044005748,-0.003921,0.004943106000000001,6.65,0,0
0.006053486,-0.0020752379999999996,-0.0008867090000000001,-0.003849112,0.005278380000000001,6.651,0,0
0.009066784000000001,-0.0008395185,-0.0017246056,-0.0024625560000000003,0.005110402,6.652,0,0
0.009013652,0.0011369175,-0.002657825,-0.0002563560000000001,0.004003935,6.653,0,0
0.0071061182,0.0029393915,-0.0036148200000000004,0.001293794,0.0033191950000000005,6.654,0,0
0.0051974222,0.0029269935000000003,-0.0038832040000000003,0.0033359600000000002,0.0025772386,6.655,0,0
0.0036932022000000005,0.0027153721000000002,-0.0036006056000000004,0.005720956000000001,0.0006639005999999998,6.656,0,0
0.0029737362000000003,0.0031564466000000005,-0.0026230662,0.006783944000000001,-0.0015846234000000004,6.657,0,0
0.0037680262000000003,0.0026177006,-0.0007690582000000003,0.006764050000000001,-0.0028833084000000004,6.658,0,0
0.004696286,0.0017969666,0.0010967238,0.006432200000000001,-0.004140270400000001,6.659,0,0
0.002968422000000001,0.0034566806,0.0025226378,0.004733127,-0.005499072000000001,6.66,0,0
-0.00040449799999999966,0.006522244,0.0034295794000000004,0.0016744530000000002,-0.004967223400000001,6.661,0,0
-0.0033684399999999995,0.007476664,0.0035227260000000003,-0.0009387049999999997,-0.0034282054000000007,6.662,0,0
-0.006315302,0.005867612,0.0025601664,-0.002798897,-0.0022216671800000007,6.663,0,0
-0.008628193999999999,0.0021688919999999995,0.0015449176000000002,-0.004895293,-0.0006043931799999999,6.664,0,0
-0.007920092,-0.0040393980000000005,0.0005074121999999999,-0.006220214,0.0015039908200000002,6.665,0,0
-0.0054682664,-0.011218398000000001,-0.00044924540000000005,-0.005705710000000001,0.00251950022,6.666,0,0
-0.0037088455999999994,-0.01672954,-0.0007005275800000001,-0.0051393,0.00294767622,6.667,0,0
-0.0010623275999999994,-0.0200276,-0.00053019972,-0.004441186000000001,0.00401087,6.668,0,0
0.0031183104,-0.01932904,-0.0004386957200000001,-0.0020393220000000005,0.004087394,6.669,0,0
0.0057663484,-0.012858920000000003,-0.00033199252,0.000883126,0.0029028079999999998,6.67,0,0
0.005565954800000001,-0.004118160000000003,-0.00012971692,0.0030399620000000002,0.0016094540000000004,6.671,0,0
0.0036069839999999997,0.0037206999999999995,-0.0001457434,0.005565724,-0.0001452519999999998,6.672,0,0
0.00012326400000000053,0.011555260000000001,-0.00035578986,0.007492876000000001,-0.0028995799999999997,6.673,0,0
-0.004223360000000001,0.01729966,-0.00071728306,0.007061124000000001,-0.005464126,6.674,0,0
-0.006924144,0.016914242,-0.0007846140600000001,0.005902060000000001,-0.006873612,6.675,0,0
-0.0065072228,0.013758170000000002,-0.00061706986,0.0046104224000000004,-0.007667316,6.676,0,0
-0.0037284847999999996,0.011335922000000002,-0.0004892804000000001,0.0022027764,-0.007584452,6.677,0,0
0.0002086932000000001,0.00756665,-6.591220000000007e-05,-0.0002449936000000001,-0.005910494,6.678,0,0
0.0036096812,0.0032419380000000006,0.0006250478,-0.0015996956000000001,-0.0033020280000000003,6.679,0,0
0.005718641200000001,0.00058362,0.0009330454000000001,-0.0028872816000000004,-0.0006335420000000004,6.68,0,0
0.007015218,-0.001913508,0.0011418312000000001,-0.004366274000000001,0.002414834,6.681,0,0
0.007237206,-0.004318634,0.0014230304000000002,-0.00501879,0.00514683,6.682,0,0
0.0055326244,-0.004807336,0.0011732544,-0.0050375260000000005,0.006199658,6.683,0,0
0.0025690244000000006,-0.004577254,0.0005039084000000001,-0.005090376000000001,0.006443518,6.684,0,0
-0.0008271435999999998,-0.005060964,-0.000295462,-0.00464217,0.00625257,6.685,0,0
-0.0044176936000000005,-0.004601326,-0.0009839900000000001,-0.0032942756000000004,0.0046083716,6.686,0,0
-0.006159695600000001,-0.002273326,-0.0012310204000000001,-0.0020256454,0.0023315256,6.687,0,0
-0.005297652000000001,-0.0010396939999999999,-0.0007223724000000002,-0.0008938894000000003,0.0007639736,6.688,0,0
-0.003906762000000001,-0.000514262,0.0002744815999999998,0.0013449406000000002,-0.0009491883999999999,6.689,0,0
-0.002868658,0.0017777740000000002,0.0011681116,0.0032857146,-0.0032242524000000005,6.69,0,0
-0.0018760299999999999,0.002854162,0.0016922636,0.0039806702000000005,-0.004697580000000001,6.691,0,0
-0.001968012,0.0016423543199999998,0.001887606,0.004505392,-0.005243654,6.692,0,0
-0.003105666,0.00204795432,0.0014858608,0.0042156114,-0.005651428,6.693,0,0
-0.002646578,0.00290424232,0.0010615164,0.0025570394,-0.004946373800000001,6.694,0,0
0.0003228300000000001,0.0005533163199999999,0.0011233284,0.00031196140000000006,-0.0028666138000000003,6.695,0,0
0.0032503220000000004,-0.00223836968,0.0008216416,-0.0012886946000000002,-0.0009608858000000005,6.696,0,0
0.004685440000000001,-0.0024050696,0.00039960280000000004,-0.0024757446000000004,0.0014242742000000002,6.697,0,0
0.005876258,-0.0022690436,0.0002592702,-0.0034439080000000003,0.004503452200000001,6.698,0,0
0.006008378,-0.0031572976,-0.00020627140000000003,-0.0033039060000000006,0.0064417960000000005,6.699,0,0
0.004143821000000001,-0.0028792115999999998,-0.0007025522,-0.0023881494000000006,0.007284558,6.7,0,0
0.003124391,-0.0028468116000000005,-0.0005711306000000001,-0.00164261,0.008027762,6.701,0,0
0.002786475,-0.004376952,-0.00015703380000000005,-0.0004173199999999999,0.007641262000000001,6.702,0,0
0.0006781249999999997,-0.004718106,7.498199999999997e-05,0.001438618,0.0056481554,6.703,0,0
-0.0011287730000000004,-0.003609546,-9.066400000000007e-05,0.0021428160000000005,0.0036046334000000005,6.704,0,0
-0.0017515440000000003,-0.0019428639999999997,-0.0002548632000000001,0.0027467973999999997,0.0015783754000000005,6.705,0,0
-0.003428616,0.0013665420000000003,-0.0006776640000000001,0.004224698000000001,-0.0013947486000000001,6.706,0,0
-0.004578866000000001,0.004454400000000001,-0.0014370680000000001,0.0048520640000000006,-0.0042963886,6.707,0,0
-0.0034778,0.004649168,-0.0014293650000000001,0.004753716000000001,-0.005874772,6.708,0,0
-0.0025938542,0.004436622,-0.000680801,0.004375308600000001,-0.006968352000000001,6.709,0,0
-0.0023703642,0.005069584,-5.220299999999996e-05,0.0029276846,-0.007605494,6.71,0,0
-0.0017629542,0.0048021059999999996,0.00033053264,-0.00017582940000000053,-0.006264835999999999,6.711,0,0
-0.0011989802,0.003642384,0.0006882792400000001,-0.0035103234000000002,-0.003774056,6.712,0,0
-0.0006204822000000002,0.0027351301999999997,0.00023558424000000002,-0.0059344974000000005,-0.00185871,6.713,0,0
0.00018456399999999996,0.0013623421999999993,-0.00075157776,-0.007968290000000001,0.00014145400000000006,6.714,0,0
0.0011841640000000001,-0.0015609778000000006,-0.00139159776,-0.009287296,0.0017818419999999998,6.715,0,0
0.0020109140000000004,-0.0041134298,-0.0014792184000000002,-0.009283102,0.0020154074,6.716,0,0
0.002541638,-0.0052229698,-0.001229171,-0.008164532,0.001642632,6.717,0,0
0.0023144,-0.005828644000000001,-0.0008391682,-0.006437150200000001,0.0018732140000000002,6.718,0,0
0.001129138,-0.005631248000000001,-0.00017824800000000002,-0.0025705282000000004,0.002533568,6.719,0,0
0.0001650300000000001,-0.0042149399999999995,-4.3937999999999985e-05,0.0024648518000000004,0.0031251580000000003,6.72,0,0
-0.0002295738,-0.002941542,-2.3786000000000006e-05,0.006917099800000001,0.0044041626,6.721,0,0
-0.0006046690000000001,-0.0026181620000000003,-1.5662e-05,0.011128869800000002,0.0054191740000000006,6.722,0,0
-0.0007360766,-0.0013979640000000002,-0.00034900080000000003,0.013320378000000003,0.004425128,6.723,0,0
-0.0004942706,0.001065258,-0.0004597734,0.012411186000000003,0.002197948,6.724,0,0
-0.0001026826,0.002980356,-0.000271734,0.010203528000000002,0.0003595100000000003,6.725,0,0
0.0001901372,0.004826018,-0.0001015908,0.007746442000000001,-0.0020011659999999995,6.726,0,0
-0.00025552159999999997,0.0067980720000000005,-0.0003919584,0.003683406,-0.004044668,6.727,0,0
-0.000629418,0.0065026834000000006,-0.00018733640000000005,-0.00028032399999999976,-0.0036135399999999993,6.728,0,0
-0.00032097279999999994,0.004089519400000001,0.00031011200000000003,-0.002548116,-0.002305762,6.729,0,0
-0.0005916994,0.0025370884,0.0005550486,-0.004413122,-0.0008540039999999999,6.73,0,0
-0.0010611534,0.0009535656000000004,0.0008003604000000001,-0.005716618,0.002006066,6.731,0,0
8.312059999999999e-05,-0.0019811464,0.0008242923999999999,-0.0055956,0.004883674,6.732,0,0
0.0017895986,-0.0036894558,0.0007851898,-0.0045831100000000005,0.005926666,6.733,0,0
0.0029335334000000005,-0.0042523258,0.0007100478000000001,-0.004174528,0.006590684000000001,6.734,0,0
0.004827986,-0.006005404800000001,0.0008065218000000001,-0.003893008,0.00703863,6.735,0,0
0.007616606,-0.007948598000000001,0.0008623178000000001,-0.0029935058,0.005327915200000001,6.736,0,0
0.008967613999999999,-0.00774556,0.001087536,-0.0020344058,0.0027651232,6.737,0,0
0.0073765179999999994,-0.005501134,0.0011950604,-0.0009041058000000002,0.0011662132,6.738,0,0
0.004304638,-0.0025907679999999994,0.0012783524,0.0011322562,-0.0013262388000000003,6.739,0,0
0.00012754999999999928,0.0018830820000000005,0.0016601444000000003,0.0028752802,-0.0044671648,6.74,0,0
-0.004919070000000001,0.007755622,0.0015506164,0.0030311102,-0.005933784,6.741,0,0
-0.009099302000000002,0.011581548,0.0013374856,0.0028128158,-0.006820876000000001,6.742,0,0
-0.010419812000000002,0.011899072000000002,0.0009264438,0.0022193392000000004,-0.007908304000000001,6.743,0,0
-0.009120648,0.010148524400000001,-0.0002872742000000001,0.00023073720000000013,-0.007130946,6.744,0,0
-0.007062486000000001,0.0071182064,-0.0017041702000000001,-0.0016910928,-0.00449776,6.745,0,0
-0.004132308,0.0029573944000000005,-0.0025090262,-0.002317103,-0.002187818,6.746,0,0
-0.00043791999999999963,-0.0004592855999999998,-0.0031933680000000002,-0.0032312186000000003,0.0003748540000000001,6.747,0,0
0.0024187920000000003,-0.0028421336000000004,-0.0036165220000000005,-0.004333746,0.0037292460000000003,6.748,0,0
0.0029773738,-0.004617474,-0.0030031640000000004,-0.004282584000000001,0.0060500020000000005,6.749,0,0
0.0026377698,-0.005892764000000001,-0.0020644960000000003,-0.0038293660000000003,0.0067684480000000016,6.75,0,0
0.0021415882,-0.0070958060000000005,-0.0011059180000000002,-0.00365651,0.00723151,6.751,0,0
0.0004501648000000001,-0.0072220140000000006,0.00027425000000000013,-0.003033416,0.006878792,6.752,0,0
-0.0015594632000000001,-0.0057262958000000004,0.0014495820000000003,-0.00187733498,0.0045436339999999995,6.753,0,0
-0.0022918829999999998,-0.0033942458000000004,0.0018816722,-0.0012738019800000002,0.0018530900000000004,6.754,0,0
-0.002445769,-0.0010230098,0.0020505002000000003,-0.00055814358,-0.0008961179999999998,6.755,0,0
-0.0032771234000000004,0.0022143102000000002,0.0020809142,0.0009597364200000002,-0.004645076,6.756,0,0
-0.0038711580000000004,0.0049185262,0.0020446222000000003,0.00235951842,-0.008324096,6.757,0,0
-0.0035807320000000005,0.00559335,0.0020228802000000004,0.0032699434,-0.010236324,6.758,0,0
-0.002042728,0.006144940000000001,0.0016910478000000003,0.004513594400000001,-0.010880504000000003,6.759,0,0
-0.0003005980000000001,0.006550908,0.0012680752,0.005747534000000001,-0.010650300000000001,6.76,0,0
0.000989908,0.0045100800000000005,0.0008227730000000001,0.005422874,-0.00799504,6.761,0,0
0.0031361300000000004,0.0012202320000000003,0.0002450882,0.004832800000000001,-0.004304820000000001,6.762,0,0
0.005458386,-0.0014074860000000003,0.0001873482,0.004744254,-0.0014253460000000007,6.763,0,0
0.006608036000000001,-0.0050757300000000005,0.0005401674000000001,0.003391276000000001,0.0016476260000000001,6.764,0,0
0.007672754000000001,-0.009211326000000002,0.00042337920000000005,0.0012243280000000004,0.0043910040000000004,6.765,0,0
0.008365258,-0.010577640000000001,3.8641399999999985e-05,0.00011554400000000009,0.005261188,6.766,0,0
0.006164926000000001,-0.008354852000000001,-0.00028775180000000005,-0.000822646,0.005604102,6.767,0,0
0.00272471,-0.004779988000000001,-0.0006973664000000001,-0.002109168,0.00620302,6.768,0,0
-6.187999999999983e-05,-0.0012731040000000002,-0.0007129202000000001,-0.0019885082,0.005338374,6.769,0,0
-0.0033829920000000005,0.002024814,-0.0005143130000000001,-0.0012854220000000003,0.0033054700000000005,6.77,0,0
-0.005967318,0.0036890836000000003,-0.00023094140000000002,-0.00040579000000000017,0.0016853500000000002,6.771,0,0
-0.00606101,0.0029726418000000005,0.0002681606,0.00098037,-0.0006586860000000003,6.772,0,0
-0.00563485,0.0018870618000000005,0.00040083860000000003,0.001725824,-0.004072958000000001,6.773,0,0
-0.006020246,0.0024729578000000003,0.0004133404,0.0016208362,-0.006306632,6.774,0,0
-0.005469234,0.0040817598,0.0006418940000000001,0.001200948,-0.007686126000000001,6.775,0,0
-0.003757958,0.005997156200000001,0.0007804658000000001,0.00030948,-0.009141178000000002,6.776,0,0
-0.0008813480000000003,0.007426538000000001,0.0007833598,-0.001474388,-0.008773470000000002,6.777,0,0
0.0028862740000000003,0.007138256000000001,0.0009458224,-0.0027223840000000004,-0.006196552000000001,6.778,0,0
0.0055590480000000005,0.0056362520000000004,0.0009134086000000001,-0.002997294,-0.0033195580000000002,6.779,0,0
0.0064019106000000004,0.0035940464,0.00042143660000000006,-0.003221032,0.0005296279999999997,6.78,0,0
0.0053942546000000004,0.0009746164,-0.0004399288000000001,-0.0035740800000000003,0.005302796,6.781,0,0
0.0026604306000000003,-0.0018730836000000002,-0.0014727528000000002,-0.0031749100000000004,0.008840670000000002,6.782,0,0
-0.0005588594000000001,-0.0037804296000000003,-0.0020035988000000004,-0.002432558,0.010615212,6.783,0,0
-0.0030906534,-0.0047396396000000006,-0.0022523386,-0.0024704880000000003,0.011034054000000001,6.784,0,0
-0.005050508,-0.005828360000000001,-0.0019911376000000002,-0.0022630140000000003,0.010281786000000001,6.785,0,0
-0.004788840000000001,-0.006861730000000001,-0.0010954850000000002,-0.0017242724000000001,0.007354973,6.786,0,0
-0.0030694060000000002,-0.00694857,-0.000517141,-0.0014213738,0.0034237810000000007,6.787,0,0
-0.0031763760000000003,-0.005723062000000001,-0.00024301040000000002,-0.0009266458000000001,0.0004800910000000001,6.788,0,0
-0.0031758920000000005,-0.003924518000000001,-0.0003797978,0.0002851702,-0.002559481,6.789,0,0
-0.0008499000000000002,-0.0011815100000000002,-0.0008495328000000001,0.0019296402000000003,-0.005752605,6.79,0,0
0.001457374,0.0034938400000000002,-0.0011019314000000001,0.0031995006000000007,-0.0071508399999999995,6.791,0,0
0.0026035060000000002,0.008215152,-0.0010016712,0.004233424,-0.006996510000000001,6.792,0,0
0.0036824860000000004,0.010374650000000001,-0.0007778562000000001,0.004938318000000001,-0.00681887,6.793,0,0
0.00397193,0.009880574000000001,-0.000373652,0.004166201,-0.005577904,6.794,0,0
0.0037117619999999995,0.0076836100000000004,0.000161839,0.0023810570000000007,-0.0029194760000000003,6.795,1,1
0.0027675680000000006,0.004792865400000001,0.000336371,0.0008346289999999997,-0.00043197800000000007,6.796,0,0
0.001034224,0.0018165819999999997,0.0004403848,-0.0008184150000000001,0.0020351040000000003,6.797,0,0
0.0012154359999999999,-0.001142788,0.0003637978,-0.0024466870000000003,0.004930374000000001,6.798,0,0
0.0033187780000000005,-0.0029421240000000004,0.000322832,-0.002661462,0.00723294,6.799,0,0
0.00433558,-0.003351058,0.0003166018,-0.002132726,0.008086810000000002,6.8,0,0
0.0036919860000000004,-0.0042939674,0.00012802780000000001,-0.00177597,0.008413896,6.801,0,0
0.0022451140000000003,-0.005657456000000001,0.0001575498,-0.0007144160000000002,0.007887558000000001,6.802,0,0
0.0003246579999999998,-0.0061206640000000005,8.446399999999998e-05,0.0005074300000000001,0.0054462339999999995,6.803,0,0
-0.0010447498,-0.006938002,-2.8076860000000013e-05,0.0005848300000000002,0.00266629,6.804,0,0
-0.0018811538000000003,-0.008330346,0.00013361033999999999,0.00031634200000000006,0.00013184599999999992,6.805,0,0
-0.0011878878000000002,-0.008356688000000001,0.00063229234,0.0005018458000000001,-0.00306334,6.806,0,0
0.0005389662000000002,-0.005447881999999999,0.00100554634,5.656200000000083e-06,-0.006090862000000001,6.807,0,0
0.00020566620000000047,-0.0004550820000000003,0.0010519239400000001,-0.0006962355999999999,-0.007934498000000002,6.808,0,0
-0.0013894460000000001,0.003582374,0.0009834712,-0.0006595554000000001,-0.009275714,6.809,0,0
-0.003335544,0.0065902619999999995,0.0004080011999999999,-0.0008373934,-0.00994963,6.81,0,0
-0.006227496,0.008368526,-0.0006510168,-0.0018188672000000001,-0.008884424000000002,6.811,0,0
-0.0069216676000000005,0.005618334000000001,-0.0017010948000000003,-0.0024410616,-0.0065012989999999994,6.812,0,0
-0.0025564636,-0.0010754659999999997,-0.0022844712000000002,-0.0023525592000000002,-0.003717530999999999,6.813,0,0
0.0028837324000000005,-0.006426682,-0.002469672,-0.0022930636,-0.0004386269999999998,6.814,0,0
0.0053477504,-0.00766908,-0.0020428362,-0.0015433796,0.003361793,6.815,0,0
0.005108676400000001,-0.006952913999999999,-0.0008856122000000001,0.00018102039999999997,0.006353917000000001,6.816,0,0
0.002543330000000001,-0.005832082799999999,0.00013289379999999998,0.0013248744000000001,0.007742148000000001,6.817,0,0
-0.00267153,-0.0031051568000000007,0.0009490858,0.0017371838,0.008608368000000002,6.818,0,0
-0.00850385,0.0009902971999999999,0.0013282262000000001,0.002434726,0.008049572000000001,6.819,0,0
-0.009132118,0.0026711052,0.0008660584000000001,0.002910198,0.005519256000000001,6.82,0,0
-0.004872258000000001,0.0028989951999999998,0.0006044454,0.0034975680000000004,0.002852292,6.821,0,0
-0.0008203420000000002,0.004504808,0.0007521094000000001,0.004257624,0.0008047540000000002,6.822,0,0
0.0025469840000000004,0.006479474000000001,0.0005645684,0.00547619,-0.001587634,6.823,0,0
0.0053452460000000005,0.007045478000000001,0.0006963340000000001,0.006530604,-0.003041648,6.824,0,0
0.005336488,0.006714302,0.0009827009999999999,0.00635565,-0.0031941760000000004,6.825,0,0
0.0013337060000000003,0.006800626,0.0006342510000000001,0.0052776179999999995,-0.003961388,6.826,0,0
-0.0031352899999999998,0.006211122,0.0002635218,0.003503432,-0.004555056,6.827,0,0
-0.004175236,0.004656238000000001,4.6566000000000055e-06,0.0010532799999999998,-0.00416894,6.828,0,0
-0.003109972,0.00105594,-0.00024270680000000003,-0.002136984,-0.002478198000000001,6.829,0,0
-0.0020223519999999994,-0.0014074920000000002,-0.00014752740000000003,-0.0041054,-0.002338002,6.83,0,0
0.00039026800000000015,-0.005322240000000001,-8.6034e-05,-0.006809506,0.000862956,6.831,0,0
0.003655714,-0.006998586,0.00010215720000000006,-0.00778977,0.002891872,6.832,0,0
0.0041551620000000004,0.001500165999999999,0.0011443854,-0.0041697240000000005,-0.005574663999999999,6.833,0,0
0.002206988,0.010825826,0.0018668828,-0.0016357960000000006,-0.01359938,6.834,0,0
0.0008276654,0.015513615999999997,0.0021061424,-0.00154143,-0.016298352000000002,6.835,0,0
0.0005743154000000001,0.018713686,0.0023436254,-0.0015618100000000005,-0.01897094,6.836,0,0
0.0011682914,0.016391870000000003,0.0016080113999999998,-0.003692384000000001,-0.016010506,6.837,0,0
0.0024777754000000003,0.0026847899999999994,-3.287659999999992e-05,-0.009823404,-0.0011019060000000006,6.838,0,0
0.004134445400000001,-0.011152250000000002,-0.0017643986000000001,-0.013992880000000001,0.014332974000000002,6.839,0,0
0.0049700939999999996,-0.02113759,-0.0032421566000000006,-0.014964520000000002,0.026306854000000005,6.84,0,0
0.004965740000000001,-0.030140060000000003,-0.004116474,-0.013268112000000002,0.03505478,6.841,0,0
0.00472583,-0.034407480000000004,-0.004045642,-0.008018010000000002,0.036525600000000005,6.842,0,0
0.0032457392,-0.0334584,-0.0035119,-0.0018928499999999997,0.03330476,6.843,0,0
0.0013215832000000002,-0.027401458,-0.0022790019999999996,0.0048573900000000005,0.025148761600000003,6.844,0,0
-0.0004973328000000001,-0.018423578,-0.0005464819999999999,0.01166749,0.0130437216,6.845,0,0
-0.0029842468,-0.005349617999999998,0.0006304379999999999,0.017407422000000002,-0.0005975584000000008,6.846,0,0
-0.0058119388,0.010218502,0.0014752139999999999,0.02093242,-0.0130270584,6.847,0,0
-0.007810889999999999,0.023761142000000002,0.00222967,0.0225084,-0.024013278399999997,6.848,0,0
-0.008504122000000001,0.033498480000000004,0.00227533,0.022034440000000002,-0.03258288,6.849,0,0
-0.007876526,0.03865084,0.0018689094000000003,0.018687156000000003,-0.035752620000000006,6.85,0,0
-0.005869958399999999,0.038204999999999996,0.0015618546,0.012961898000000001,-0.0339944,6.851,0,0
-0.0033846524000000003,0.032326020000000004,0.0006949145999999998,0.005934626,-0.028513584,6.852,0,0
-0.00013340440000000008,0.022108156000000004,-0.0005647434000000001,-0.0017632940000000005,-0.019088890000000004,6.853,0,0
0.0034274816000000002,0.008101196000000001,-0.0016996514,-0.009472394,-0.006642150000000001,6.854,0,0
0.0061220116,-0.006372104,-0.0028769668,-0.01519873,0.00554721,6.855,0,0
0.007791234000000001,-0.018977743999999998,-0.0037306400000000003,-0.019158792,0.01618891,6.856,0,0
0.008402358,-0.030470844000000004,-0.003556518,-0.02141612,0.024883314,6.857,0,0
0.006487828000000001,-0.03733394,-0.002795431,-0.019919472,0.029502780000000003,6.858,0,0
0.0009608480000000007,-0.03607432,-0.002161293,-0.0154789902,0.0293217,6.859,0,0
-0.005419432,-0.030518228,-0.0011932962,-0.010063398200000002,0.025864240000000004,6.86,0,0
-0.010785442000000001,-0.022983618,-0.00019283020000000002,-0.0032042382000000004,0.0190905,6.861,0,0
-0.013444388000000002,-0.011758898,0.0003202738,0.0043890618,0.008813620000000001,6.862,0,0
-0.011559548000000001,0.0011390620000000014,0.0010204208,0.0100115138,-0.0018388400000000004,6.863,0,0
-0.005614888,0.011734062000000002,0.0022116208000000004,0.014190892,-0.01126974,6.864,0,0
0.0023121919999999994,0.02100325,0.00332703,0.01700782,-0.01986314,6.865,0,0
0.008470072,0.029242120000000003,0.004078052,0.0169274,-0.02552542,6.866,0,0
0.010236382799999999,0.03348752,0.0046662579999999995,0.014260508000000002,-0.02622796,6.867,0,0
0.008740924800000001,0.03262072,0.004541864,0.009702580000000002,-0.023210904,6.868,0,0
0.0060754722,0.027281500000000004,0.004012330000000001,0.004753937999999999,-0.017630164,6.869,0,0
0.0025834022000000003,0.018514642,0.0033512439999999998,-0.0007038920000000002,-0.008846264000000001,6.87,0,0
0.0009902482,0.007094061999999999,0.0021304754,-0.0065867519999999995,0.0009967360000000002,6.871,0,0
0.0020200574,-0.004730378,0.0009304334,-0.01102974,0.009870616,6.872,0,0
0.0031885294,-0.014714998000000002,-0.00027807660000000014,-0.013705572,0.01771846,6.873,0,0
0.003309574,-0.022124798000000005,-0.0011380666000000003,-0.01566023,0.0232738,6.874,0,0
0.0021225639999999995,-0.0257095,-0.0015125606000000002,-0.01558441,0.024801740000000003,6.875,0,0
0.0008594459999999995,-0.02540592,-0.00213225,-0.012330916,0.02290644,6.876,0,0
-0.0006788940000000001,-0.0229411,-0.0030015220000000004,-0.008112294,0.018871938,6.877,0,0
-0.002570658,-0.018613326,-0.0033860360000000003,-0.00275874,0.012026463999999999,6.878,0,0
-0.00385234,-0.01149328,-0.0033690000000000005,0.0033614599999999997,0.003404103999999999,6.879,0,0
-0.0048674519999999995,-0.0028539399999999993,-0.0031163580000000005,0.00815413,-0.005011735999999999,6.88,0,0
-0.00610299,0.005196940000000001,-0.0017646120000000005,0.011651976,-0.012839796,6.881,0,0
-0.005114772,0.01256858,0.00023740399999999987,0.013553514,-0.019531734000000002,6.882,0,0
-0.0019057899999999997,0.019567366000000003,0.0020531060000000003,0.012875022,-0.02305926,6.883,0,0
6.165400000000029e-05,0.02410706,0.0034398380000000006,0.010185592,-0.022453300000000002,6.884,0,0
0.001494422,0.023464040000000002,0.00428478,0.006849137999999999,-0.019210240000000003,6.885,0,0
0.00323523228,0.01954347,0.004217266000000001,0.002136762,-0.013707464600000004,6.886,0,0
0.00298953708,0.014479566,0.0032610554000000007,-0.003267938,-0.006217266600000001,6.887,0,0
0.00041127908,0.006936185999999999,0.0021139894000000003,-0.00781736,0.0011032334,6.888,0,0
-0.0005822139200000001,-0.0023630340000000004,0.0005996974000000002,-0.01171967,0.007321273400000001,6.889,0,0
0.00066390408,-0.010437834,-0.0011348286,-0.014365596000000001,0.012802273400000001,6.89,0,0
0.0012832858000000002,-0.016082444,-0.0021805086,-0.014625908000000002,0.016968378,6.891,0,0
0.001456019,-0.019886440000000002,-0.0024180580000000003,-0.012314422000000002,0.0180671,6.892,0,0
0.0021899170000000004,-0.021323040000000005,-0.0022997318,-0.008727122,0.016535732,6.893,0,0
0.0024334068,-0.019518088000000003,-0.0016007256000000003,-0.0038675340000000006,0.013421716000000002,6.894,0,0
0.0012064548000000003,-0.014639167600000001,-0.0005622136,0.0018793859999999998,0.008054756000000001,6.895,0,0
-0.00024243919999999996,-0.0082850396,0.00010338100000000002,0.006597334,0.001241456000000001,6.896,0,0
-0.0010613492,-0.0015632996,0.0007771910000000001,0.010318408000000001,-0.005247964,6.897,0,0
-0.001321678,0.005879380400000001,0.0015168388000000002,0.013347128000000002,-0.010713096,6.898,0,0
-0.0018304848,0.013902708400000002,0.0019123726,0.014281140000000003,-0.01538772,6.899,0,0
-0.0029756048,0.020344288000000002,0.0019329146,0.012499722000000003,-0.017507560000000002,6.9,0,0
-0.0031513288,0.022299940000000004,0.0018016634000000001,0.009675507600000001,-0.016517662,6.901,0,0
-0.0024491908,0.020681624000000006,0.0013449433999999998,0.0059271796000000005,-0.013679946,6.902,0,0
-0.001931696,0.015644430000000004,0.0002666834,0.0008168696000000004,-0.00865763,6.903,0,0
-0.0011651779999999998,0.006227910000000001,-0.0008992166000000001,-0.0039237304,-0.0020508699999999998,6.904,0,0
-0.000750222,-0.003777570000000001,-0.0015184506000000002,-0.006704638400000001,0.004199050000000001,6.905,0,0
-0.0012727740000000002,-0.01041413,-0.001870306,-0.008137208,0.009670252,6.906,0,0
-0.0015903612000000003,-0.015101834000000001,-0.00225979,-0.008960894,0.014912116,6.907,0,0
-0.0012676012000000002,-0.01853536,-0.0022507539999999998,-0.007857096000000001,0.017571740000000002,6.908,0,0
-7.280120000000001e-05,-0.0180994,-0.001994488,-0.005413924400000001,0.016831316,6.909,0,0
0.0027444448,-0.015639284,-0.0017009614,-0.0033401144000000005,0.014716398,6.91,0,0
0.005055362800000001,-0.012608028800000004,-0.0010598714000000001,-0.0008196044,0.010846865800000001,6.911,0,0
0.0047269320000000005,-0.006542048800000002,-0.0001444174,0.0022871856,0.0045026258,6.912,0,0
0.0036142518,0.0013632712000000002,0.0006159405999999999,0.0044027356,-0.0021661542,6.913,0,0
0.0027529698,0.0075243112000000015,0.0007852178,0.005776528,-0.0075641102,6.914,0,0
0.0009530885999999999,0.0124135552,0.0005015372000000001,0.006877050000000001,-0.012362992199999999,6.915,0,0
-0.0014756314,0.016349020000000002,5.31412e-05,0.0065598900000000005,-0.0159636,6.916,0,0
-0.0032710814,0.017103600000000004,-0.0006892628,0.004604460000000001,-0.01702994,6.917,0,0
-0.0053698072,0.015107352000000001,-0.0010496392,0.0027244780000000002,-0.015785800000000003,6.918,0,0
-0.0076797272,0.011873378200000001,-0.0010692114,0.0007402160000000004,-0.012989810000000001,6.919,0,0
-0.007978086,0.0079058882,-0.0013440014000000002,-0.00292679,-0.008734818000000002,6.92,0,0
-0.005794864,0.0028836482,-0.001278836,-0.006107836,-0.003175210000000001,6.921,0,0
-0.002113548,-0.0026774118000000005,-0.001220966,-0.007027726000000001,0.00260229,6.922,0,0
0.0013191880000000002,-0.0069684238,-0.0017981096000000002,-0.007350242,0.00736219,6.923,0,0
0.00364714,-0.00989365,-0.0020876006,-0.007333464,0.011338940000000002,6.924,0,0
0.0042468066,-0.01191614,-0.0014892984000000001,-0.00501674,0.013629608000000001,6.925,0,0
0.0035337688,-0.012143310000000001,-0.0009968078,-0.0017061259999999996,0.013015690000000002,6.926,0,0
0.0027663788,-0.010824080000000002,-0.0004507977999999999,0.0004961720000000001,0.011066502,6.927,0,0
0.0019750208000000003,-0.008132388,0.0007013882000000001,0.002422204,0.008317308,6.928,0,0
0.0016080228000000002,-0.0036595459999999996,0.0015668901999999999,0.00447688,0.003930294000000001,6.929,0,0
0.0019237602000000001,0.0009755939999999998,0.001851158,0.006051176000000001,-0.00018902999999999975,6.93,0,0
0.002294906,0.004405804000000001,0.002033038,0.007269482000000001,-0.00257617,6.931,0,0
0.0016915452,0.007168482000000001,0.002109146,0.008618828000000002,-0.005236688,6.932,0,0
0.0011221714,0.008871008,0.0018171648,0.008351058000000001,-0.00741014,6.933,0,0
0.000766053,0.008594354,0.0017220888000000001,0.006335431999999999,-0.00731589,6.934,0,0
1.7411e-05,0.0075919820000000015,0.0015239588,0.00392763,-0.00683337,6.935,0,0
-0.0005384950000000001,0.006898640000000001,0.0007748588,-3.9016000000000224e-05,-0.006212332000000001,6.936,0,0
-0.0005524720000000001,0.005178158,0.00029765019999999996,-0.005158656,-0.003919574,6.937,0,0
0.0003853298,0.0018883900000000002,-0.0002066066000000001,-0.008444478,-0.0011497459999999997,6.938,0,0
0.0012426862000000003,-0.001168224,-0.0009506506,-0.009845458000000001,0.000931376,6.939,0,0
0.0023150422000000003,-0.004813592,-0.0011791256,-0.010691802,0.0034918600000000003,6.94,0,0
0.0034384962000000006,-0.00943225,-0.0008153404,-0.009255164,0.006204292,6.941,0,0
0.0034503076000000003,-0.011501816,-0.0003602498,-0.005680232,0.007519090000000001,6.942,0,0
0.0025647972,-0.010476058,3.6635999999999762e-06,-0.002470274,0.007872872000000001,6.943,0,0
0.0018680272,-0.009487074,0.0001150476,0.000284732,0.007519422,6.944,0,0
0.0010332111400000001,-0.008156756,-0.0003902434,0.0032120960000000002,0.005429942,6.945,0,0
-0.0019763368600000004,-0.004483984000000002,-0.0011389706000000002,0.004972388,0.001794222,6.946,0,0
-0.005843216460000001,-0.0009635380000000001,-0.0014872304000000001,0.005409240000000001,-0.0018576240000000002,6.947,0,0
-0.008463472060000001,0.00037049399999999975,-0.0008627818000000001,0.005671824,-0.005132148,6.948,0,0
-0.00896425606,0.0011763884,0.0006323382,0.005820484,-0.008000716000000001,6.949,0,0
-0.006176362000000001,0.0023293744,0.0022787542,0.005452748,-0.008882106,6.95,0,0
-0.0005479619999999999,0.001998006,0.0035365242,0.0045777479999999995,-0.007579600400000001,6.951,0,0
0.004556468,0.001223754,0.0041452,0.0037325459999999998,-0.0052704924,6.952,0,0
0.007312224800000001,0.0020770280000000003,0.003872576,0.0025333487999999998,-0.0018137104000000006,6.953,0,0
0.008067728800000002,0.0025722836000000005,0.0025341848,0.0012406128,0.0027374695999999995,6.954,0,0
0.005331300600000001,0.0029927116,0.0010048788,6.518880000000004e-05,0.0062014795999999995,6.955,0,0
0.0011957226,0.004695118,-0.00023394520000000007,-0.0014985292,0.007881438000000001,6.956,0,0
-0.0004068534000000001,0.004550727200000001,-0.0011940312,-0.0030899852,0.008878292,6.957,0,0
-0.0003542408000000001,0.0016784492000000003,-0.0013746412,-0.003933872000000001,0.008625269999999999,6.958,0,0
-0.00045460480000000006,0.00025952920000000016,-0.0011505086,-0.00416534,0.006568416,6.959,0,0
-0.0009950526,-3.7638799999999834e-05,-0.0010217226,-0.0038502658,0.00475675,6.96,0,0
-0.0020656386,-0.0019716444,-0.0009452946,-0.0024289598000000003,0.00402058,6.961,0,0
-0.0038296526,-0.0022181040000000003,-0.0010552746,-0.0007915758000000001,0.001991264,6.962,0,0
-0.005026706,0.0008543720000000002,-0.00125464504,0.0006024602,-0.0004897780000000002,6.963,0,0
-0.004890538,0.004071984,-0.0010133284400000002,0.0014758762000000002,-0.002017606,6.964,0,0
-0.004910282,0.0064186,-0.00039452444000000024,0.0020352219999999997,-0.004286294,6.965,0,0
-0.004764886,0.008019333600000001,0.00014050176000000007,0.002378086,-0.0072920680000000005,6.966,0,0
-0.0029105518,0.007759658000000001,0.00050422916,0.0018083060000000002,-0.008582794000000001,6.967,0,0
-0.0012954418,0.005516408,0.0005666026,0.00118211,-0.008178366000000001,6.968,0,0
-0.0012818698,0.002176548,4.6258600000000045e-05,0.00031059400000000014,-0.007792882,6.969,0,0
0.0006592562,-0.0013745979999999999,-0.0007084874000000001,-0.0018940960000000003,-0.006542844000000001,6.97,0,0
0.004688424200000001,-0.0038364360000000004,-0.0007404079960000001,-0.003998524,-0.00410345,6.971,0,0
0.006824122,-0.0051473460000000006,-0.0005680639160000002,-0.004643338,-0.0021094162,6.972,0,0
0.007406088000000001,-0.005503218000000001,-0.0008069657160000002,-0.005330146000000001,-0.0006511101999999998,6.973,0,0
0.007763024,-0.005065652,-0.0008405837160000001,-0.0053994180000000004,0.0012269578,6.974,0,0
0.006845612000000001,-0.0049051680000000005,-0.000730991716,-0.0034556,0.0023891578,6.975,0,0
0.0046087564000000004,-0.004276686,-0.0008322247200000001,-0.0012637380000000004,0.0025450178000000004,6.976,0,0
0.0024812346,-0.0031594580000000004,-0.0008149876,0.00038295000000000007,0.003098822,6.977,0,0
0.0010046866,-0.0027095820000000003,-0.0005462454,0.002149662,0.002921012,6.978,0,0
-0.00045068739999999994,-0.00156165,-0.0003636034,0.0036672479999999997,0.0011517980000000003,6.979,0,0
-0.0010340676,0.00038574,-0.0003451914,0.003881176,-0.0002540139999999999,6.98,0,0
-0.0012190824,0.0019082599999999997,-0.000784238,0.003387552,-0.0013057659999999999,6.981,0,0
-0.0021390086,0.003940988,-0.0014792366,0.0031840500000000003,-0.003268088,6.982,0,0
-0.0029247066,0.0061439120000000005,-0.001886338,0.0020889700000000003,-0.005059734,6.983,0,0
-0.0035152066,0.006638400000000001,-0.0016433138,9.399799999999987e-05,-0.005481214000000001,6.984,0,0
-0.0046034783999999995,0.006352788,-0.0006666998,-0.0008364660000000001,-0.005449338000000001,6.985,0,0
-0.00511306,0.0055734619999999995,0.00043994019999999995,-0.001116538,-0.005260286,6.986,0,0
-0.003316976,0.00272761,0.0013749382,-0.0015868202000000001,-0.0033652760000000004,6.987,0,0
-0.0006899299999999998,-0.0012443999999999999,0.0020456602,-0.0010323722,-0.0006755919999999998,6.988,0,0
0.00149366,-0.003879648,0.002145244,0.0005578938000000001,0.001534756,6.989,0,0
0.0030703620000000005,-0.0049713824,0.0014517240000000002,0.0017480638,0.004089288,6.99,0,0
0.0040443580000000005,-0.0063681684,0.000687256,0.0026375438000000003,0.006462224,6.991,0,0
0.003910978000000001,-0.006883078399999999,0.0005136096000000001,0.003584508,0.006989076,6.992,0,0
0.0021139600000000002,-0.005651876399999999,0.0006895096,0.004029171999999999,0.006564940000000001,6.993,0,0
0.00017602799999999995,-0.0049644664,0.0010713416,0.0038117940000000003,0.006495506000000001,6.994,0,0
-0.002299296,-0.00427786,0.0014686675999999999,0.0031497378,0.005260272,6.995,0,0
-0.00480412,-0.0017569120000000002,0.0017591096000000002,0.0019929177999999997,0.003100882,6.996,0,0
-0.005065765999999999,0.0008319099999999999,0.001784565,0.0003464138000000002,0.0015499379999999998,6.997,0,0
-0.003997782,0.0020800542,0.0014918709999999999,-0.0008954682000000001,0.00021385199999999994,6.998,0,0
-0.00349329,0.0026289221999999998,0.001150353,-0.0017821022000000003,-0.001545626,6.999,0,0
-0.0016406904,0.0019319842,0.0009116500000000001,-0.0030976020000000005,-0.002830364,7.0,0,0
0.0015164676,0.0006257615999999998,0.00048407200000000005,-0.004105326,-0.0029150640000000006,7.001,0,0
0.0014187636,0.0007362616000000001,-0.00045654100000000003,-0.004297406,-0.0030090240000000003,7.002,0,0
-0.0007999504000000001,0.0025157274000000003,-0.001632541,-0.004755174,-0.0027697300000000006,7.003,0,0
-0.0015525844,0.0043213694,-0.0027426770000000002,-0.005256224,-0.0013003880000000004,7.004,0,0
-0.0016920840000000002,0.0047600234000000005,-0.0035519320000000003,-0.004615046,3.3540000000001173e-06,7.005,0,0
-0.001970228,0.004216032000000001,-0.003934674000000001,-0.0038757120000000003,0.0005222067999999999,7.006,0,0
-0.0013323200000000001,0.0025715060000000003,-0.0034882140000000003,-0.003880468,0.0013315348,7.007,0,0
-0.0003869619999999999,4.88199999999989e-06,-0.0021401680000000005,-0.0029116633,0.0022635168000000004,7.008,0,0
-9.853999999999896e-06,-0.0010563640000000002,-0.000866842,-0.0013032293,0.0022612888,7.009,0,0
0.0007371320000000002,-0.0008085560000000003,0.0002873360000000002,-0.0005349753000000001,0.0023471968,7.01,0,0
0.0012557760000000001,-0.0014071540000000003,0.0018231900000000001,0.0002579762999999999,0.003077666,7.011,0,0
0.001233338,-0.0017152159999999999,0.0026815460000000004,0.0013190503,0.0028914654,7.012,0,0
0.0019725240000000002,-0.0007353679999999999,0.0023692596000000005,0.0016665736,0.0018918874,7.013,0,0
0.0032308740000000003,-0.0008073240000000001,0.0021760056,0.0014225136000000002,0.00124393552,7.014,0,0
0.0033967600000000004,-0.0013704360000000003,0.0018896636000000002,0.0019854776,0.00014511351999999986,7.015,0,0
0.0025370500000000003,-0.0005296526,0.001029349,0.00293524,-0.00174723448,7.016,0,0
0.001934808,4.402539999999997e-05,0.000525497,0.003863056,-0.0022328738799999998,7.017,0,0
0.0014619340000000002,-0.0008365406000000001,0.0004556688,0.0050140060000000005,-0.0016232818800000002,7.018,0,0
0.0006324760000000002,-0.0024679466,0.0002747746,0.0051559660000000005,-0.00205171,7.019,0,0
-0.00038637200000000006,-0.0036782986,-1.2890800000000009e-05,0.0037941420000000003,-0.002008512,7.02,0,0
-0.0008421800000000001,-0.005283244,-0.00045194020000000003,0.0022211140000000006,-0.000594516,7.021,0,0
-0.0012178504000000003,-0.005234758000000001,-0.0013361062000000002,0.0008182980000000001,-0.00020578280000000006,7.022,0,0
-0.0015198024,-0.002188728,-0.0021881916,-0.001038386,-0.0006151980000000002,7.023,0,0
-0.0012995442,0.0007927400000000001,-0.0027169374,-0.0024412920000000003,6.605200000000004e-05,7.024,0,0
-0.0014887502000000001,0.003960802,-0.0030035700000000005,-0.002641074,0.0006624206,7.025,0,0
-0.0021282122,0.0076809040000000006,-0.002628782800000001,-0.0023256952,2.8134600000000014e-05,7.026,0,0
-0.0019587968,0.008556224000000001,-0.0014630348,-0.0024903212000000003,-0.00019748679999999997,7.027,0,0
-0.0006923848000000002,0.005368722000000001,-0.00013678280000000017,-0.0023383992,0.00047508840000000006,7.028,0,0
0.00023629500000000008,0.002953566000000001,0.0010075732,-0.0015410786,0.0003194326,7.029,0,0
0.001164001,0.0014716719999999998,0.0021203232000000004,-0.0014616085999999999,-9.737199999999998e-05,7.03,0,0
0.002036763,-0.0005252068000000001,0.0030142320000000004,-0.0017285194,-0.00022844199999999998,7.031,0,0
0.0020857606,-0.0008953398,0.0035792500000000004,-0.0012710676,-0.0012224178000000002,7.032,0,0
0.0010402486000000001,0.0001844482,0.003655442,-0.0007077756000000001,-0.0028200298,7.033,0,0
-0.0004205954,-4.999780000000003e-05,0.0030174216000000004,2.896379999999996e-05,-0.0034934700000000003,7.034,0,0
-0.0011071114000000002,-0.0026090538000000003,0.0018355316000000003,0.0019913658000000004,-0.003165188,7.035,0,0
-0.0022768654,-0.003910915,0.0003751936000000001,0.003906905800000001,-0.002322488,7.036,0,0
-0.0032974280000000003,-0.004980274000000001,-0.0009172084000000002,0.004597442,-0.0005586240000000002,7.037,0,0
-0.0028770738000000007,-0.006334470000000001,-0.0015151004000000003,0.0045335720000000005,0.001039564,7.038,0,0
-0.0014731338000000004,-0.004681808,-0.0015917960000000004,0.00408187,0.0016839306000000001,7.039,0,0
0.0010173782,-0.0014298720000000004,-0.0013894040000000003,0.0027317642000000003,0.0014668286000000003,7.04,0,0
0.0045146922,0.0006940020000000003,-0.0008444158000000001,0.0008426362000000002,0.0010265448000000002,7.041,0,0
0.0066764602000000004,0.003319842,-0.0006502178000000001,-0.00010309259999999998,0.0005047498000000001,7.042,0,0
0.006071870000000001,0.006664952,-0.0011185358,-0.00047864980000000005,-0.00010523779999999996,7.043,0,0
0.004892260000000001,0.007006404,-0.0012891934,-0.0007556726000000001,0.0006790936000000001,7.044,0,0
0.002996456,0.0057685074,-0.0008360734000000001,-0.0004486328,0.0020593016,7.045,0,0
0.00023234400000000016,0.0051756234,-0.0003574016000000001,0.00017720920000000002,0.0026160894,7.046,0,0
-0.0004834640000000002,0.0030778714000000004,0.0002206604,0.0003221782,0.0031628144,7.047,0,0
0.0008007760000000002,-0.0006007165999999997,0.0009486784,0.00015430339999999998,0.0037057860000000004,7.048,0,0
0.0018707600000000002,-0.0029708266000000004,0.0010123446,0.00016763439999999992,0.0029222448000000003,7.049,0,0
0.002424334,-0.004265894,0.0005328766,-0.00013881560000000005,0.0015674017999999998,7.05,0,0
0.002202692,-0.0073528299999999994,0.00029091039999999994,-0.0005611254000000001,0.0008489169999999999,7.051,0,0
0.000199072,-0.010062976000000001,7.47374e-05,-0.0005333696000000001,-0.00018666700000000003,7.052,0,0
-0.002822214,-0.008612463800000001,-0.00029988480000000005,-0.0003801752,-0.001493225,7.053,0,0
-0.0064195780000000004,-0.0051673038,-0.0003616816,-0.0008113514,-0.0021514258,7.054,0,0
-0.009156872,-0.001857019800000001,-0.00010269210000000003,-0.0014034174,-0.0027870788000000004,7.055,0,0
-0.007939688,0.0025842821999999994,-5.246129999999998e-05,-0.0019466696,-0.003999484,7.056,0,0
-0.0047668699999999994,0.007120896199999999,-0.0001804641,-0.0029308236,-0.004751258,7.057,0,0
-0.0018174920000000006,0.008435044000000001,-0.0002235683,-0.0036484700000000004,-0.004585276,7.058,0,0
0.002031362,0.007101570000000001,-0.0002209899,-0.00394015,-0.00451778,7.059,0,0
0.004863182000000001,0.005619544,-0.00031221980000000003,-0.0043553820000000005,-0.004319440000000001,7.06,0,0
0.004406962,0.003940522399999999,-0.0006026054,-0.004475148,-0.0028656124,7.061,0,0
0.0027583986000000002,0.0021602384000000002,-0.0006350936000000001,-0.003230814,-0.0006861904000000001,7.062,0,0
0.00209760028,7.19484000000002e-05,-0.0005158688000000001,-0.002022544,0.0011818736000000002,7.063,0,0
0.0014640982800000002,-0.0020351916,-0.0007616230000000001,-0.0011566965999999998,0.0030035216000000005,7.064,0,0
0.0006211106,-0.0034148516,-0.0009461606,0.0006240794000000001,0.0046188896,7.065,0,0
0.0003359028,-0.0035842820000000003,-0.0010872336000000002,0.0021042454,0.005188666000000001,7.066,0,0
1.32202e-05,-0.0028317300000000006,-0.0012571856,0.0028424254,0.005159986,7.067,0,0
-0.00091204948,-0.0009868960000000006,-0.000719436,0.0031610054000000003,0.004698112000000001,7.068,0,0
-0.00135814088,0.002290298,0.00048539199999999996,0.002909014,0.0032834544,7.069,0,0
-0.0008294032,0.003964258,0.0015193280000000001,0.0019915516,0.0019055624000000003,7.07,0,0
2.7238599999999946e-05,0.003430296,0.00218082,0.00133529444,0.0010575570000000002,7.071,0,0
0.0012416206000000001,0.0028283180000000007,0.0025895956000000003,0.00103626444,-0.0004325469999999998,7.072,0,0
0.0018880106,0.002087486,0.0024171076,0.00132051844,-0.001691649,7.073,0,0
0.00132979,-5.7607799999999994e-05,0.0017408504000000003,0.0024419464400000004,-0.0016269106,7.074,0,0
0.00028527199999999993,-0.0017805198,0.001033962,0.0034082928400000004,-0.0015594446,7.075,0,0
-0.0009579860000000001,-0.0016532658,0.0006208,0.003911204000000001,-0.0018988932,7.076,0,0
-0.0017297752,-0.0020349358,0.00041472420000000006,0.0030996664,-0.0016952232000000001,7.077,0,0
-0.0013060308,-0.0033973758000000005,1.702600000000001e-05,0.0018628244000000003,-0.0008964172000000002,7.078,0,0
-0.0004706542,-0.0038791880000000004,-0.0005385808,0.0013470564000000003,-0.0003349860000000001,7.079,0,0
-0.00011664000000000001,-0.0030353626,-0.0011234304,0.0005709426000000002,0.0006358359999999999,7.08,0,0
-0.0003714100000000001,-0.0031873706000000003,-0.0014025404,-0.0003994274,0.002236696,7.081,0,0
-0.0012712908,-0.0041144326000000005,-0.0016195042,-0.00030994279999999996,0.003466018,7.082,0,0
-0.0017574992000000003,-0.0043313525999999995,-0.001745126,3.126440000000002e-05,0.003987332,7.083,0,0
-0.0013116718000000002,-0.0049487566,-0.0015030500000000001,-0.00038916879999999996,0.0041296860000000005,7.084,0,0
0.0006381199999999998,-0.006128788,-0.001367192,-0.00017290899999999998,0.0035156102000000002,7.085,0,0
0.004433704,-0.006983670000000001,-0.0012434002,0.00039275420000000006,0.0015254642,7.086,0,0
0.007435714,-0.007320362,-0.0009168297999999998,0.00028674540000000006,-0.00013506780000000027,7.087,0,0
0.007134164,-0.006560088,-0.0003533157999999998,0.00032397360000000007,-0.0013761838,7.088,0,0
0.00338046,-0.003619923999999999,0.0001997342000000001,0.0002610264,-0.0031903018000000003,7.089,0,0
-0.002226634,0.0004488440000000012,0.0007477564000000001,-0.0003611516000000001,-0.004270202000000001,7.09,0,0
-0.008531314,0.004847632000000001,0.0011602046,-0.0005780696,-0.003877826,7.091,0,0
-0.012856034,0.009411152,0.0014396802,-0.0003573722000000001,-0.003775296,7.092,0,0
-0.011556244,0.011792894,0.0015926502000000002,-0.0008326076000000001,-0.003918886000000001,7.093,0,0
-0.005537344000000001,0.010406126,0.0019285722000000004,-0.0017539352,-0.0027239816000000005,7.094,0,0
0.00030481599999999985,0.007221796000000001,0.0024371840000000002,-0.0025609532000000004,-0.0017886988000000003,7.095,0,0
0.0034751704000000002,0.004322180000000002,0.0023814844000000003,-0.0035691604,-0.0013994048000000002,7.096,0,0
0.0044970344,0.0006814540000000002,0.0020808884,-0.004468112,-0.0002464088,7.097,0,0
0.0024177123999999995,-0.002145898,0.0016112142000000004,-0.004578544,0.0008017392000000001,7.098,0,0
-0.0020151776,-0.001612246,0.0008211046,-0.0034516578,0.0012316768,7.099,0,0
-0.0053893556,-0.0005624639999999999,-0.0001416834,-0.0023036324,0.0019208580000000001,7.1,0,0
-0.005850008000000001,-0.0007586099999999998,-0.0007254218,-0.00127494,0.002406272,7.101,0,0
-0.004868468000000001,0.000266476,-0.0011854318,0.00042107000000000006,0.001892269,7.102,0,0
-0.00207654,0.002057932,-0.0016440416,0.001398038,0.0008730589999999999,7.103,0,0
0.0023003300000000006,0.002728172,-0.0015162891599999999,0.0018972718000000001,-3.1083000000000055e-05,7.104,0,0
0.004742818,0.003868154,-0.0010489359599999998,0.0033161624000000002,-0.001191013,7.105,0,0
0.005813456000000001,0.005773207999999999,-0.0008616359599999999,0.004400454,-0.002859403,7.106,0,0
0.007084092000000001,0.006547058,-0.00072489596,0.003999356,-0.0038310500000000008,7.107,0,0
0.006512108000000001,0.0054403986,-0.00017052356,0.0036989680000000004,-0.004116884,7.108,0,0
0.003994882,0.0035220946,-0.00020175440000000003,0.00339079,-0.004819512000000001,7.109,0,0
0.003103694,0.0010830345999999999,-0.00038348160000000007,0.0018575146,-0.0045721320000000005,7.11,0,0
0.0031158680000000004,-0.0018955274000000003,-0.0002639364,0.00040831859999999995,-0.0026801439999999998,7.111,0,0
0.0022205040000000003,-0.0038447374,-0.0006014884,-0.0003248294000000001,-0.0011399359999999998,7.112,0,0
0.001114088,-0.004535043999999999,-0.0011040808000000002,-0.0012211914,0.0005787600000000001,7.113,0,0
4.2323999999999834e-05,-0.005030552000000001,-0.0014227228000000002,-0.0021472034000000004,0.0032580860000000003,7.114,0,0
-0.0005156660000000001,-0.005422388000000001,-0.0016646388000000002,-0.0024945420000000006,0.004743338000000001,7.115,0,0
-0.0009037439999999999,-0.004933186000000001,-0.0017692940000000002,-0.0020760586,0.0047626280000000005,7.116,0,0
-0.0010608852,-0.004528130000000001,-0.0014723600000000002,-0.0017610360000000001,0.005191734,7.117,0,0
-0.0007856072,-0.004117130000000001,-0.0012053084000000001,-0.001739506,0.005123520000000001,7.118,0,0
-0.0004321872,-0.0023355220000000005,-0.0010451928000000002,-0.0009535838000000002,0.0037677518,7.119,0,0
-0.0007783452,-0.00020345400000000005,-0.0010418088000000002,-0.00013358580000000003,0.0029924718,7.12,0,0
-0.0017287232000000002,0.000785194976,-0.000931837,-0.0003334592,0.0026522198000000006,7.121,0,0
-0.002620824,0.000986800976,-0.0004463886,-0.000238235,0.0009599897999999999,7.122,0,0
-0.0031366159999999996,0.0009929169759999997,0.0001552957999999999,0.0006464670000000001,-0.0013231962000000003,7.123,0,0
-0.0032074219999999997,-3.4656624000000015e-05,0.0009237322,0.0003230238000000001,-0.0026841040000000005,7.124,0,0
-0.0036040300000000003,-0.0008596486240000003,0.0016195002000000001,-0.00021115219999999997,-0.0038081460000000005,7.125,0,0
-0.0026315979999999997,0.0001398383999999999,0.0023125424,-0.00015498020000000002,-0.00513164,7.126,0,0
0.0005906479999999998,0.0017731764000000001,0.0022913942,-0.001067821,-0.004786736000000001,7.127,0,0
0.00349078,0.0021419586,0.0017392506000000001,-0.0020524410000000003,-0.002152816,7.128,0,0
0.005427904000000001,0.0013259102,0.0015976846,-0.002403532,-0.00019221600000000004,7.129,0,0
0.007377136000000001,-0.00039494179999999984,0.0011409885999999999,-0.0028366580000000006,0.001086518,7.13,0,0
0.0069508102,-0.0034657498,0.00032089059999999993,-0.0028182014000000003,0.0036434940000000006,7.131,0,0
0.0032891702,-0.0056086338,-6.008400000000002e-06,-0.0011490594000000002,0.005526048,7.132,0,0
0.0003707062000000001,-0.004695262,-0.00016028880000000002,0.0009087506000000001,0.005537882,7.133,0,0
-0.0011992679999999999,-0.0022233020000000004,-0.0006418654000000001,0.0022533486000000003,0.0060690660000000006,7.134,0,0
-0.0021228444,4.962200000000036e-05,-0.0006429254000000002,0.0037045406,0.0065409560000000005,7.135,0,0
-0.0020219086,0.0024576420000000003,-0.0004790764,0.004633782,0.0048423024,7.136,0,0
-0.0025169986000000005,0.00433016,-0.00039241780000000005,0.0040590420000000006,0.0026807004,7.137,0,0
-0.0048527746,0.004438002,3.902619999999999e-05,0.0029442238,0.0006332823999999999,7.138,0,0
-0.007768928400000001,0.00398223,6.955812000000001e-05,0.0022975392,-0.0024228736,7.139,0,0
-0.010095409999999999,0.0044525499999999996,-0.00019386188,0.0015629614,-0.005080715600000001,7.14,0,0
-0.010833042000000001,0.005044519999999999,-0.00046231288000000005,0.0006152474000000001,-0.006050228000000001,7.141,0,0
-0.0073387980000000005,0.004786652,-0.0008329366800000002,-9.696459999999999e-05,-0.006753402,7.142,0,0
-0.0011531380000000002,0.004117834,-0.0012872166800000002,-0.0011958104,-0.007168158000000001,7.143,0,0
0.004624922,0.002765436,-0.0015711260000000002,-0.0029481118,-0.005876508,7.144,0,0
0.009470082,0.00020557600000000007,-0.0014372346000000003,-0.004095012,-0.004016839800000001,7.145,0,0
0.012091814000000001,-0.0024407120000000003,-0.0010593416,-0.004452768,-0.0028271750000000003,7.146,0,0
0.011485224000000002,-0.004879996000000001,-0.000685799,-0.004806678,-0.000754069,7.147,0,0
0.008884816,-0.007378308,-0.0008602530000000001,-0.004162568000000001,0.001756659,7.148,0,0
0.006211476,-0.008212269999999999,-0.0012874930000000002,-0.00211085,0.002963593,7.149,0,0
0.0032339859999999995,-0.0063247500000000005,-0.0015547264000000001,-0.0003541200000000001,0.0036544488,7.15,0,0
9.67139999999997e-05,-0.002983827999999999,-0.0016872618,0.001060268,0.00442282,7.151,0,0
-0.00242638,0.00037617800000000023,-0.0015008754000000002,0.003226848,0.004124116000000001,7.152,0,0
-0.003779826,0.0031646960000000003,-0.0007248394000000002,0.0050078300000000004,0.0027297660000000002,7.153,0,0
-0.00423145,0.004756754000000001,0.0010361186000000001,0.005594606,0.0018653766000000002,7.154,0,0
-0.004817802,0.005103642,0.0030859806,0.005995228,0.0005244625999999998,7.155,0,0
-0.004667292,0.0043576100000000005,0.004383141,0.0061612939999999995,-0.0017272234,7.156,0,0
-0.004783698,0.003444176,0.00509667,0.005107578,-0.0033521734000000005,7.157,0,0
-0.0059277620000000005,0.00412891,0.0054283000000000005,0.0034868974000000002,-0.0039669934,7.158,0,0
-0.0055565910000000005,0.00527125,0.004746702000000001,0.0020761554000000007,-0.004515886,7.159,0,0
-0.0034471810000000006,0.004609338,0.0032248948,0.0001334953999999999,-0.00432114,7.16,0,0
-0.0013212530000000003,0.002405282,0.0022040746,-0.0021805186,-0.002336988,7.161,0,0
0.001284069,-0.0005306520000000002,0.001435171,-0.0037851086000000003,-0.0007018520000000002,7.162,0,0
0.004236253,-0.0042560440000000005,0.0002589250000000001,-0.004982782000000001,0.00051704,7.163,0,0
0.0060178720000000005,-0.008576142,-0.0007750230000000001,-0.006497044,0.002461906,7.164,0,0
0.006339206,-0.011841564,-0.0017099898000000001,-0.006755102000000001,0.0038933860000000004,7.165,0,0
0.005066404000000001,-0.011379768,-0.0023045096,-0.0057166380000000004,0.004157982000000001,7.166,0,0
0.0025258959999999997,-0.0067068879999999985,-0.0023726828,-0.005498818000000001,0.004393772000000001,7.167,0,0
0.00013686799999999963,-0.0014650879999999998,-0.0017393068000000002,-0.004958192,0.004335602000000001,7.168,0,0
-0.0019569360000000003,0.002883948,-0.0006935207999999998,-0.0029051538,0.0026450040000000003,7.169,0,0
-0.003677448,0.007413052,-3.321099999999998e-05,-0.0014359277999999999,0.0006947479999999999,7.17,0,0
-0.0035103888,0.009449791999999999,0.0006263750000000001,-0.0005331218000000001,-0.0006831400000000002,7.171,0,0
-0.0015228167999999998,0.007490234,0.0012342558000000001,0.0019408822000000002,-0.002395298,7.172,0,0
0.0009040452000000001,0.004793268,0.0013618818,0.0042738182000000005,-0.004121424,7.173,0,0
0.0027376632,0.0032821344000000005,0.0011856218,0.005166694000000001,-0.004782736000000001,7.174,0,0
0.0035867132,0.0014251384,0.0012176849999999998,0.00590309,-0.0045347,7.175,0,0
0.0024738320000000005,-0.00011211959999999998,0.001025385,0.005706986000000001,-0.004470376,7.176,0,0
-1.5724000000000163e-05,-0.0006807156,0.00045749568000000003,0.0034924360000000002,-0.0033556482,7.177,0,0
-0.001960816,-0.0019062816000000001,-0.00010290632000000004,0.0007110739999999999,-0.0009857202000000003,7.178,0,0
-0.003612922,-0.0031412700000000007,-0.0003660135200000001,-0.001165244,0.0009134718,7.179,0,0
-0.004856568,-0.0032040920000000004,-0.00012392492,-0.0032657960000000005,0.0027230338,7.18,0,0
-0.0037935578,-0.003708628,-0.0004886829200000001,-0.0049317219999999995,0.0047409418000000005,7.181,0,0
-0.0003797058000000002,-0.005074274,-0.0011448656,-0.004671628,0.005509204,7.182,0,0
0.0026710462,-0.005201896000000001,-0.0015094036,-0.003862794,0.004796288000000001,7.183,0,0
0.0043998202,-0.004559166,-0.0018641164,-0.0032640711999999995,0.004473742000000001,7.184,0,0
0.005243285,-0.003472752,-0.001900857,-0.0013212332000000003,0.003943734,7.185,0,0
0.0046850828,-0.0009623800000000005,-0.0016945583999999998,0.0019235567999999997,0.0026417980000000003,7.186,0,0
0.0022546847999999997,0.0018928959999999998,-0.0015938164000000002,0.0040034848,0.0018473556000000002,7.187,0,0
-0.0007158832000000003,0.003461434,-0.0014334724,0.0054396368,0.0010514635999999999,7.188,0,0
-0.0024048116000000004,0.00439066,-0.0013308004000000002,0.006908132,-0.0008018864000000001,7.189,0,0
-0.0024306858000000004,0.004872688,-0.0016946954,0.006833372000000001,-0.0031700524,7.19,0,0
-0.0013172818000000003,0.0036294920000000007,-0.0014774262000000003,0.00497574,-0.0048783084,7.191,0,0
-8.162380000000002e-05,0.0025489804000000003,-0.0005203962,0.0031903986,-0.006438518000000001,7.192,0,0
0.0005181408000000001,0.0027242924000000003,0.00016289779999999996,0.0018356045999999998,-0.007317730000000001,7.193,0,0
0.0005818778,0.0021063968000000002,0.0005478062,-0.0003344814,-0.006114853600000001,7.194,0,0
0.0002574232000000001,0.0004573327999999999,0.0008259342000000001,-0.0020361374,-0.0037718096000000007,7.195,0,0
-0.0006697408000000001,-0.0005699712000000001,0.000557642,-0.0029998793999999997,-0.0015771176,7.196,0,0
-0.0014354148,-0.0015366476000000001,-0.0002976039999999999,-0.0041790640000000006,0.0009925564,7.197,0,0
-0.0017855314,-0.0032123856,-0.0006375776,-0.005235654,0.0035962204,7.198,0,0
-0.002214912,-0.004308112,-0.00044284799999999986,-0.005312736000000001,0.0046865,7.199,0,0
-0.002685956,-0.004790468000000001,-0.0005958007999999999,-0.004889936000000001,0.004941908,7.2,0,0
-0.002859028,-0.005050818000000001,-0.00047617699999999994,-0.004235236800000001,0.005177170000000001,7.201,0,0
-0.0027550660000000005,-0.00481671,0.00012961680000000004,-0.0022466688,0.0045706359999999994,7.202,0,0
-0.0024327656,-0.0034806986,0.00026122840000000004,0.0005106052000000001,0.0033136996000000004,7.203,0,0
-0.0015835856,-0.0014387526,2.5330800000000015e-05,0.0029718412000000003,0.0023660478000000003,7.204,0,0
-0.0006383865999999999,0.0005066734000000003,5.814860000000004e-05,0.0050667832,0.0009080257999999999,7.205,0,0
5.26420000000001e-06,0.0020342614,0.000268662,0.006941056,-0.0013934022000000003,7.206,0,0
0.00014266959999999993,0.0027516082,0.0004495942,0.007203182,-0.0036194722000000004,7.207,0,0
-0.0005453328000000002,0.0029917748000000003,0.0007715782,0.0057964439999999996,-0.0053685918,7.208,0,0
-0.0013742928,0.0025166508,0.0007138378,0.0042084754,-0.006911828,7.209,0,0
-0.0017426882000000001,0.0012224608000000001,0.0003959488,0.0022315493999999995,-0.007526023999999999,7.21,0,0
-0.002118519,0.0001595368,9.836719999999993e-05,-0.0002717266000000001,-0.006144309200000001,7.211,0,0
-0.0009305844000000003,-0.00010463439999999996,-0.00019065439999999998,-0.0022021126,-0.0036949392,7.212,0,0
0.0025029776,-0.000428222,-0.00020629839999999997,-0.0033553166,-0.0009719631999999999,7.213,0,0
0.0056281816000000005,-0.0013784600000000002,-1.856180000000003e-05,-0.004579916,0.0019602588,7.214,0,0
0.007336522000000001,-0.002249818,0.0005709016000000001,-0.00483346,0.004737002800000001,7.215,0,0
0.008022674,-0.002637946,0.0008860284000000001,-0.004454066,0.005850474,7.216,0,0
0.007156300200000001,-0.0033059036,0.0006083300000000001,-0.00481497,0.0057091,7.217,0,0
0.0044011662000000016,-0.004233422,-0.0001624119999999999,-0.00490493,0.0056118159999999995,7.218,0,0
0.0012271262000000001,-0.003895178,-0.0007371465999999999,-0.004192586000000001,0.0042424772,7.219,0,0
-0.0009709378000000001,-0.002062138,-0.000825389,-0.0035713354000000003,0.0016785232000000004,7.22,0,0
-0.0020773898,0.00011590600000000004,-0.001140246,-0.0025041774000000004,-0.0004549468000000004,7.221,0,0
-0.0027754060000000002,0.002521694,-0.0010548718,0.0002395625999999998,-0.0027207028000000005,7.222,0,0
-0.00308908,0.005231566,-0.00041715320000000004,0.0031311166,-0.0055571588,7.223,0,0
-0.0028186160000000004,0.006899066000000001,0.00010293259999999998,0.0047333566,-0.007332480000000001,7.224,0,0
-0.0021104463200000002,0.007472254000000001,0.0001537062,0.005236388,-0.008226454000000001,7.225,0,0
-0.00145169572,0.008260214,0.0003572696,0.005013084,-0.008314396,7.226,0,0
-0.00141665972,0.008656132,0.0004310312,0.003878378000000001,-0.006178864,7.227,0,0
-0.00135656772,0.007676828,-0.00011884539999999999,0.0023821798000000006,-0.0030159460000000003,7.228,0,0
-0.00137231772,0.006552642000000001,-0.0004289964,0.0016720098000000002,-0.0003148580000000001,7.229,0,0
-0.0015937654,0.00506663,-0.0007540470000000001,0.0013267798000000002,0.0030255200000000003,7.23,0,0
-0.001027596,0.0017823740000000006,-0.0011296834000000002,0.0010475258,0.006580822000000001,7.231,0,0
3.183599999999993e-05,-0.0016315060000000002,-0.0011290772,0.0007989002,0.008080702,7.232,0,0
0.0010916860000000001,-0.0033420100000000003,-0.0006024066000000001,0.00047353440000000004,0.007923642000000002,7.233,0,0
0.002112178,-0.0043471560000000005,0.0003284325999999999,-0.00010158159999999999,0.008239976000000001,7.234,0,0
0.002042528,-0.005583702000000001,0.0013640226,-0.0005127856000000001,0.007930696000000001,7.235,0,0
0.0002359040000000001,-0.005193502000000001,0.0023747005999999998,-0.0003999156000000001,0.005376872600000001,7.236,0,0
-0.001905716,-0.0037668312,0.0030913886000000002,-0.00010048000000000001,0.0028098826000000003,7.237,0,0
-0.0034460280000000003,-0.0036080072,0.003291254,0.000481662,0.0012356826000000005,7.238,0,0
-0.0051048000000000005,-0.0028025772,0.002541958,0.0013519159999999999,-0.0012110134,7.239,0,0
-0.00589613,-0.0001672752,0.001494008,0.0016319928,-0.0040950874,7.24,0,0
-0.005122586,0.0018949388000000004,0.0006171564000000001,0.0010288828,-0.005403424,7.241,0,0
-0.002917404,0.0031243720000000003,1.880380000000006e-05,0.00035461879999999996,-0.006105786,7.242,0,0
0.0009146739999999999,0.004518544000000001,-0.0001364014,-0.0012703472000000003,-0.006682120000000001,7.243,0,0
0.00475038,0.004079704000000001,-0.0002670184,-0.0039533772,-0.005629958600000001,7.244,0,0
0.007144838000000001,0.0013277560000000007,2.745320000000001e-05,-0.005866430000000001,-0.0035721226000000007,7.245,0,0
0.008256562,-0.00194435,0.0002721422,-0.006801702000000001,-0.0019400626000000004,7.246,0,0
0.00785999,-0.005082502,-8.570520000000001e-05,-0.007532194000000001,0.0002484834000000003,7.247,0,0
0.005727996000000001,-0.008505432,-0.00037687760000000006,-0.00724534,0.0033556594000000006,7.248,0,0
0.003687604,-0.011519186,-0.00024010060000000002,-0.0052245382,0.005149266,7.249,0,0
0.002705458,-0.012034876,-0.00036007580000000007,-0.0031758922,0.00598526,7.25,0,0
0.0031139360000000003,-0.010676876,-0.0004737372000000001,-0.0016526261999999998,0.00756975,7.251,0,0
0.004452856,-0.009086488,1.9022800000000024e-05,0.00044551780000000004,0.007820806,7.252,0,0
0.004392042,-0.005476444,8.33952e-05,0.0025054398,0.005538217999999999,7.253,0,0
0.004071904,0.0006097959999999997,-9.940500000000001e-05,0.0036312740000000003,0.0038262927999999996,7.254,0,0
0.0038277037999999994,0.006212856000000001,-9.943999999999998e-05,0.0043610920000000004,0.0022371687999999997,7.255,0,0
0.0006330237999999993,0.010292344,-0.00021693479999999998,0.004730152000000001,-0.0013859292000000002,7.256,0,0
-0.0048391182,0.012809164000000001,-0.0003863612,0.004139934,-0.0041541592,7.257,0,0
-0.0102499102,0.012818066000000001,-0.00041150620000000003,0.0031324584000000004,-0.0050032432,7.258,0,0
-0.015384440200000002,0.010733896000000001,-0.000702058,0.0022192862000000005,-0.006078034,7.259,0,0
-0.01860914,0.007556841999999999,-0.0015632014,0.0013421001999999998,-0.00633024,7.26,0,0
-0.016644766,0.0037533420000000007,-0.0023663366000000003,0.0004652542,-0.004227322,7.261,0,0
-0.008781166,0.000943216,-0.0031744182000000005,-0.0002508158,-0.0016321019999999999,7.262,0,0
0.0007886540000000006,0.00018331459999999995,-0.003850318,-0.0008080622,0.0007401320000000002,7.263,0,0
0.007096884,-0.00013971140000000002,-0.003372986,-0.000997604,0.004097552,7.264,0,0
0.010262918000000001,-0.0013953334,-0.001628642,-0.0001442739999999999,0.00714681,7.265,0,0
0.010651587400000002,-0.0024365194,0.0002386360000000002,0.0008314080000000001,0.008046878,7.266,0,0
0.006905578800000001,-0.0028987894000000003,0.001670192,0.0015981839999999999,0.007753646,7.267,0,0
0.0025852268,-0.0044238440000000006,0.002648198,0.002545518,0.007002656000000001,7.268,0,0
0.0013572748000000002,-0.0054359560000000005,0.0027869492000000004,0.0028186380000000005,0.00405636,7.269,0,0
0.0017403348000000001,-0.004216354,0.0021733932,0.0020650916,3.4730000000000394e-05,7.27,0,0
0.0021885594,-0.002650736,0.0014365686,0.0012109056000000002,-0.002526034,7.271,0,0
0.0018627818000000003,-0.0007588979999999999,0.0012415866,0.0009744284,-0.00533876,7.272,0,0
0.0011486662,0.001789872,0.0016108506,0.0005235456,-0.008841992,7.273,0,0
0.0013400562000000001,0.0032478480000000002,0.0018554974000000001,-0.0006347683999999999,-0.010803856,7.274,0,0
0.0016960722000000001,0.0029147498,0.0018090379999999998,-0.0017295280000000001,-0.011553606,7.275,0,0
0.0020413942000000003,0.0025853156000000006,0.0017841348000000002,-0.0024589580000000002,-0.011958006,7.276,0,0
0.0027247964000000004,0.0025787536000000002,0.0016241728000000002,-0.0037666008,-0.010247604,7.277,0,0
0.0019777980000000002,0.0013421536,0.0012178608000000001,-0.005110480000000001,-0.006556555999999999,7.278,0,0
-0.0009451100000000003,7.57815999999999e-05,0.0008376948000000001,-0.004960156,-0.0028468039999999992,7.279,0,0
-0.004272220000000001,-0.0006102282,0.00045286220000000007,-0.004020095719999999,0.0012414000000000001,7.28,0,0
-0.007262610000000001,-0.002626026,-0.00019179800000000002,-0.00294037772,0.005364626000000001,7.281,0,0
-0.008981878,-0.0063356260000000005,-0.0010302680000000002,-0.00100088572,0.008074784,7.282,0,0
-0.007589198000000001,-0.008964706000000001,-0.0014334234000000002,0.00145691828,0.00924644,7.283,0,0
-0.0033911139999999998,-0.010519202,-0.0015471950000000003,0.00335446828,0.009700872000000001,7.284,0,0
0.0011376959999999999,-0.011318700000000001,-0.0017046030000000003,0.00461207,0.00931494,7.285,0,0
0.0038909860000000004,-0.009502724,-0.0011405616,0.005546308,0.00727356,7.286,0,0
0.005233440400000001,-0.005960086000000001,-0.0006770482,0.0057715480000000005,0.00475043,7.287,0,0
0.0049039644,-0.0004161259999999993,-0.0007803228,0.0055583640000000005,0.0027321940000000003,7.288,0,0
0.0024723044000000004,0.005897274000000001,-0.0006638825260000001,0.00557785,0.0001222179999999999,7.289,0,0
0.00013982440000000012,0.009760474,-0.0006160185260000001,0.005132948,-0.00280471,7.29,0,0
-0.0009300276,0.012082458,-0.0007654023260000001,0.0041208614,-0.004465798,7.291,0,0
-0.0007564220000000001,0.014053660000000003,-0.00011308372600000007,0.003025222,-0.005273504,7.292,0,0
0.0005531120000000001,0.012863130000000002,0.000802692274,0.0017155019999999998,-0.005784354,7.293,0,0
0.0006230860000000001,0.009209004,0.0008397742000000001,-0.0004242520000000002,-0.0047866868,7.294,0,0
-0.001102844,0.0063432520000000015,0.0008413402000000002,-0.0025996500000000002,-0.0025476248,7.295,0,0
-0.0014764040000000002,0.0032308560000000007,0.00020058860000000012,-0.0037507314000000003,-0.0005324867999999998,7.296,0,0
-0.0015380539999999999,-0.0006008639999999998,-0.0014670594,-0.004903042000000001,0.0012603512000000001,7.297,0,0
-0.0025831700000000005,-0.004175026,-0.0031323754,-0.00569211,0.0030441972000000003,7.298,0,0
-0.0017273720000000005,-0.0059351,-0.0038260820000000006,-0.0051479920000000005,0.0037423480000000004,7.299,0,0
0.00027253659999999997,-0.0052925034,-0.0033909688,-0.0041389600000000006,0.0028870166,7.3,0,0
0.0008531746,-0.004355844,-0.0023500127999999997,-0.003477106,0.0017064125999999998,7.301,0,0
6.22146000000001e-05,-0.0032749366,-0.0007756628,-0.0022613793799999998,0.00028749259999999975,7.302,0,0
-0.0014510874,-0.0008148366000000001,0.0008392472000000001,-0.0007701513800000002,-0.0017894494000000002,7.303,0,0
-0.0033042494,0.0007147594000000001,0.0018589492,-0.00014556557999999994,-0.0031353054000000003,7.304,0,0
-0.004638268,0.0003899868,0.0016909349999999997,0.00071025442,-0.0036920480000000003,7.305,0,0
-0.00434988378,0.00017391740000000008,0.001039083,0.00212990642,-0.00446216,7.306,0,0
-0.002541175780000001,-2.781200000000005e-05,0.0005032656,0.0030425098,-0.0047005400000000004,7.307,0,0
-0.0006932837800000006,-0.0004857154,-7.247840000000001e-05,0.0032700218,-0.004198296,7.308,0,0
0.00151078622,-0.0009085046000000001,-0.00024431220000000007,0.0037716520000000003,-0.0035744598,7.309,0,0
0.00356142022,-0.0008450076000000001,0.00012335480000000003,0.0035788520000000004,-0.0025534978000000003,7.31,0,0
0.0035838692,-0.0010088376,0.0009128928000000001,0.0017207720000000002,-0.00014114180000000007,7.311,0,0
0.0031331132,-0.0029691356,0.0015132162,0.0001332839999999999,0.0023255921999999997,7.312,0,0
0.0032925012000000007,-0.0059218202000000005,0.0015649280000000002,-0.0011379200000000002,0.0038624562,7.313,0,0
0.0033804912000000003,-0.008805607,0.0015155282000000002,-0.002463168,0.005670724,7.314,0,0
0.0035354192,-0.010833236,0.0015544762,-0.003081454,0.00688507,7.315,0,0
0.004352076000000001,-0.009676268,0.0010749742,-0.0035751940000000003,0.006554934,7.316,0,0
0.004635373999999999,-0.004435748000000001,8.735220000000014e-05,-0.004312542,0.005603748,7.317,0,0
0.00320899,0.0019751120000000002,-0.0006462216,-0.004462748,0.0047919428,7.318,0,0
0.001344416,0.007641952,-0.001499412,-0.004013776,0.0026047827999999998,7.319,0,0
-0.00010954200000000023,0.011851952,-0.00253235,-0.0038559469999999998,-3.569719999999975e-05,7.32,0,0
-0.00235912,0.012179742,-0.0030911640000000004,-0.0031493330000000003,-0.0014796692,7.321,0,0
-0.004789316,0.009582226,-0.0026984842000000006,-0.0013295030000000003,-0.0031661631999999997,7.322,0,0
-0.0044891824,0.007731226,-0.0017874042000000003,0.0006650810000000001,-0.0046665019999999995,7.323,0,0
-0.0032203723999999997,0.007447586000000001,-0.0008341081999999999,0.0017345330000000001,-0.00515439,7.324,0,0
-0.0028051903999999996,0.0075579060000000005,0.00048208980000000005,0.002112162,-0.005465244,7.325,0,0
-0.0020472004,0.00856405,0.0014765158000000001,0.0021843120000000003,-0.0064886100000000006,7.326,0,0
-0.0015421144000000002,0.009292992,0.0019016500000000002,0.0009760860000000001,-0.006298212000000001,7.327,0,0
-0.002106762,0.007063400000000001,0.0021665980000000005,-0.001149704,-0.004453580000000001,7.328,0,0
-0.0030131820000000005,0.0029284880000000017,0.0019302846000000002,-0.003192682,-0.002876584000000001,7.329,0,0
-0.0027115104000000004,-0.001205532,0.0014359628,-0.004380114,-0.0008009500000000004,7.33,0,0
-0.0016784724,-0.005817918,0.0014205248,-0.0042965040000000005,0.0023475,7.331,0,0
-0.0010261577999999998,-0.010631884000000001,0.0013828848,-0.003021222,0.005320406,7.332,0,0
-0.00042243360000000004,-0.013259012,0.0010662564000000002,-0.000942462,0.006709804,7.333,0,0
0.0003921088,-0.014295200000000001,0.0009560432000000001,0.0012337920000000003,0.007828698,7.334,0,0
0.0007707632000000001,-0.014894040000000002,0.0007992526000000001,0.0033193400000000005,0.00853829,7.335,0,0
0.0014656192,-0.013659176000000002,0.0004805752000000001,0.004983248000000001,0.0070012951999999995,7.336,0,0
0.0035206526,-0.010095540200000003,8.057220000000003e-05,0.005487208000000001,0.0042960472,7.337,0,0
0.0048203624,-0.005590502200000002,-0.0001332054,0.005567760000000001,0.0015139412000000005,7.338,0,0
0.0047507388,-0.0008920942000000009,-0.0001527106,0.006520308000000001,-0.0019193648,7.339,0,0
0.0041992826,0.0042359058,-0.0001780142,0.007055362000000001,-0.005541596800000001,7.34,0,0
0.0027985026000000002,0.0084363018,-0.0003020922,0.0062256640000000005,-0.006996754000000001,7.341,0,0
0.0005690586000000001,0.010444734,-0.0006096292000000001,0.005000638000000001,-0.007417992000000001,7.342,0,0
-0.0011947734,0.010863922,-0.0006323558000000001,0.0031111819999999997,-0.007773386,7.343,0,0
-0.0015645822,0.009905012000000001,-0.00025728400000000004,1.1858000000000441e-05,-0.006040596,7.344,0,0
-0.0013133642,0.006270092000000001,0.00024264599999999995,-0.0028237080000000003,-0.0028854659999999997,7.345,0,0
-0.0014310822,0.0023347539999999996,0.0004986554,-0.004437598,-0.0007177799999999999,7.346,0,0
-0.0021626822,0.0005921739999999999,0.0007299656,-0.005674910000000001,0.001415946,7.347,0,0
-0.0021874062,-0.001459488,0.0008215728000000001,-0.006173196000000001,0.00481861,7.348,0,0
-0.0017257718,-0.0037422040000000003,0.0004940278,-0.005343644000000001,0.006778654,7.349,0,0
-0.0015484376,-0.0035983740000000005,-5.7644000000000006e-05,-0.0043130494,0.00692916,7.35,0,0
-0.00038696559999999974,-0.002878798,-0.0004398118,-0.0034952754,0.007130316,7.351,0,0
0.0014551123999999999,-0.00379113,-0.000455122,-0.0018233906,0.0062513304,7.352,0,0
0.0022908164,-0.0034424005999999997,-0.0008372866,0.0003144154,0.0030369144,7.353,0,0
0.0020211098,-0.0015285986000000001,-0.0009729296000000001,0.0018048594,-0.0003602516,7.354,0,0
0.0012394317999999999,-0.0005392598000000001,-0.0005923518,0.0034455428,-0.0026720496000000003,7.355,0,0
-9.952020000000004e-05,0.00038339619999999995,-0.0005052328,0.0058459908,-0.005109203600000001,7.356,0,0
-0.0015554321999999999,0.0021760082,-0.0005318514000000001,0.007378595999999999,-0.006808768,7.357,0,0
-0.0030161962000000006,0.0034348228,-0.00029497720000000005,0.007401466000000001,-0.006535402,7.358,0,0
-0.0042303060000000005,0.0037141048000000005,-0.00028513320000000004,0.006955406,-0.005718869999999999,7.359,0,0
-0.0034139040000000006,0.0033340340000000005,-0.0006184536,0.005119078,-0.005241508,7.36,0,0
-0.0005623380000000003,0.0019424720000000002,-0.00054341922,0.0019321160000000002,-0.0032557820000000005,7.361,0,0
0.002222094,0.0003053400000000001,-0.00011035461999999997,-0.0008022040000000002,-0.00037914799999999994,7.362,0,0
0.004876868,-0.0015417960000000002,0.00042445918000000006,-0.0028420060000000002,0.001375846,7.363,0,0
0.007816636,-0.0034657200000000003,0.0009192631800000002,-0.004296316,0.0036413220000000002,7.364,0,0
0.009852674000000002,-0.004325414,0.0008921481800000001,-0.004944436,0.006172784,7.365,0,0
0.00876033,-0.0032221148,0.0003609106000000001,-0.004690302,0.006611618,7.366,0,0
0.004998368000000001,-0.0018057148000000002,-0.0005564353999999999,-0.004025674000000001,0.006034226,7.367,0,0
0.0014852000000000012,-0.0015737848000000002,-0.0018502994,-0.0033068760000000003,0.005757226,7.368,0,0
-0.0026247059999999992,-0.00023218879999999998,-0.0027493334,-0.0022867500000000006,0.004506884000000001,7.369,0,0
-0.007733366,0.0022454472000000003,-0.0026244736,-0.0009007560000000001,0.0020001520000000003,7.37,0,0
-0.009856704,0.00322573,-0.0016628696000000002,0.000409908,-0.00016518800000000014,7.371,0,0
-0.007673898,0.003454654,-7.317560000000007e-05,0.001562044,-0.0025872580000000003,7.372,0,0
-0.0044633400000000005,0.004946492,0.0019894064,0.0025928120000000003,-0.005887402000000001,7.373,0,0
-0.0003597619999999998,0.00555211,0.0035973784,0.002605884,-0.008546766,7.374,0,0
0.004339542,0.004733198,0.0042677620000000005,0.0020826582000000003,-0.009689336,7.375,0,0
0.006531118000000001,0.004760488,0.0039378218000000005,0.0012613162,-0.010147076,7.376,0,0
0.006409840000000001,0.004492922,0.0025937478,-0.0007566958000000002,-0.009677406,7.377,0,0
0.005497882000000001,0.0023472220000000004,0.0011318298000000003,-0.0028330078000000005,-0.006953491800000001,7.378,0,0
0.0039566666,0.000462196,-8.880219999999987e-05,-0.0038935318000000003,-0.0038721678000000004,7.379,0,0
0.0019116226,-0.00018688799999999983,-0.0013523822,-0.00479946,-0.0011419817999999997,7.38,0,0
0.0007916002,-0.002292254,-0.002147456,-0.006033476,0.0021469542,7.381,0,0
-0.0001513178,-0.005425808,-0.0022610900000000003,-0.006566542,0.0044864522,7.382,0,0
-0.0020722178,-0.007865448,-0.0022506080000000003,-0.006616738,0.004977148,7.383,0,0
-0.0037287944000000003,-0.011273398,-0.0022057808,-0.006952438,0.005320502,7.384,0,0
-0.0045496444,-0.015701842,-0.0018572468000000002,-0.00658436,0.005752709999999999,7.385,0,0
-0.0050667180000000004,-0.017824140000000002,-0.0014551068000000001,-0.0050388556,0.0045413680000000005,7.386,0,0
-0.005215892000000001,-0.0154314,-0.0011754688,-0.0029710356,0.0032266778000000006,7.387,0,0
-0.002925522,-0.00930144,-0.0008324983999999999,-0.00042259160000000036,0.0026404028000000003,7.388,0,0
0.0009834520000000005,-0.0006669599999999994,-0.0003904795999999999,0.0030126044,0.0007037228,7.389,0,0
0.003706478,0.0089301,0.00015625040000000006,0.006224820400000001,-0.0014230912,7.39,0,0
0.0042891256,0.0162674,0.0007765344000000001,0.008461238000000001,-0.0014146652000000003,7.391,0,0
0.0032288216,0.018756800000000004,0.0016039284000000003,0.01041609,-0.0009340009999999998,7.392,0,0
0.00047471159999999983,0.017032558000000003,0.0020301100000000003,0.010963284,-0.0009883203,7.393,0,0
-0.0039411884,0.013173148,0.001880134,0.008968661999999999,0.0005053857000000001,7.394,0,0
-0.0078064244,0.008051786600000001,0.001295926,0.006233990399999999,0.0025244157,7.395,0,0
-0.009462726000000001,0.0031853265999999994,0.00044062600000000006,0.0036574404,0.0032238037000000006,7.396,0,0
-0.0068253440000000005,-8.12934e-05,-0.000332892,0.0005030164000000001,0.0043724757000000005,7.397,0,0
-0.0021328040000000003,-0.0024923394000000002,-0.0009905096,-0.0018186556000000004,0.006501980000000001,7.398,0,0
0.0006888639999999994,-0.004474713400000001,-0.0014085176,-0.0023564876,0.008068676,7.399,0,0
0.002169262,-0.005923546000000001,-0.0012013412000000002,-0.0024013100000000002,0.008486392,7.4,0,0
0.003181383999999999,-0.007665046,-0.00015073319999999997,-0.0022236440000000003,0.008413722,7.401,0,0
0.00256258,-0.009258826000000001,0.0008088148,-0.0012545398,0.007231906000000001,7.402,0,0
0.0004764639999999999,-0.009200814000000002,0.0014647004000000001,-0.0001420218,0.004044102,7.403,0,0
-0.0003019440000000001,-0.008010042000000002,0.0019508084,0.0002336960000000001,0.0004591160000000001,7.404,0,0
0.0005515259999999999,-0.006315291600000001,0.0021550898,0.00044872200000000003,-0.0026562980000000005,7.405,0,0
0.002300326,-0.0028844436,0.0016219238200000001,0.00122397,-0.005992858,7.406,0,0
0.003259428,0.0017606364,0.0006681654199999999,0.0016744818,-0.008803918,7.407,0,0
0.003045108,0.0050317444000000005,0.00019575782000000002,0.0017198197999999999,-0.009537932,7.408,0,0
0.0029167446000000004,0.0070053884000000005,1.974728000000001e-05,0.002345718,-0.009151774,7.409,0,0
0.0017264606000000004,0.008565544000000001,-0.00013907429999999998,0.0027928480000000006,-0.008141906,7.41,0,0
-0.0008344054,0.007679664,-0.00035447032,0.0019033099999999999,-0.005273234000000001,7.411,0,0
-0.0025296214000000003,0.0038061900000000005,-0.00038880792,0.00021082200000000005,-0.00187389,7.412,0,0
-0.0028909362000000003,0.0009244859999999996,-0.00037837851999999994,-0.0009528899999999999,0.0007453180000000001,7.413,0,0
-0.0026280954000000006,-0.0007288362000000002,-0.00054996938,-0.002300566,0.003095642,7.414,0,0
-0.0005244774000000001,-0.0038649382,-0.0009753036,-0.003935032000000001,0.004998634,7.415,0,0
0.0017292126000000001,-0.0062605262,-0.0011498396000000001,-0.00415036,0.00578351,7.416,0,0
0.0019911014000000005,-0.006787352200000001,-0.0010844266,-0.0035152960000000007,0.0059944560000000004,7.417,0,0
0.0023096808,-0.0083499602,-0.0015266444,-0.0031815240000000002,0.006070702,7.418,0,0
0.0025314534,-0.009509974000000001,-0.0018023770000000002,-0.00222092,0.004860654,7.419,0,0
0.0004074434000000001,-0.006366370000000001,-0.0015517134,-0.0003629579999999999,0.0025185819999999997,7.42,0,0
-0.0021369466,-0.001437990000000001,-0.001292588,0.0008647260000000001,0.0003537659999999998,7.421,0,0
-0.0030449914000000005,0.0026305399999999994,-0.000885883,0.00216402,-0.00182548,7.422,0,0
-0.00415216,0.00752426,-0.00046126494000000006,0.0036124399999999997,-0.004632232,7.423,0,0
-0.005023398,0.011862764,-0.00011480673999999998,0.0038408979999999997,-0.006611342000000001,7.424,0,0
-0.00382264,0.012445870000000001,0.0005845856600000001,0.003378304,-0.006935838,7.425,0,0
-0.002100487,0.011067405999999998,0.00110407826,0.0028125298000000005,-0.007267822,7.426,0,0
-0.0005537210000000001,0.009615712,0.00098480806,0.0014673258,-0.007023134000000001,7.427,0,0
0.001692827,0.005931230000000001,0.001178334,-0.0007992622,-0.004803382,7.428,0,0
0.002985867,0.0011949240000000004,0.0013044165999999999,-0.0022989682000000003,-0.0021898500000000006,7.429,0,0
0.0018098710000000002,-0.001885972,0.0004741346,-0.0035646862,-8.456000000000327e-06,7.43,0,0
0.0005221020000000002,-0.004436214000000001,-0.0004223054,-0.0052650200000000005,0.002706322,7.431,0,0
-6.086140000000011e-05,-0.006476798000000001,-0.0008963172000000001,-0.005898462,0.00495403,7.432,0,0
-5.7757400000000214e-05,-0.0068159660000000006,-0.0015584472000000002,-0.005273900000000001,0.005503512,7.433,0,0
0.0015250506,-0.006187736,-0.002209536,-0.004559864000000001,0.00563171,7.434,0,0
0.0031911206000000006,-0.00474751,-0.0016909700000000002,-0.0034712272000000004,0.005993248000000001,7.435,0,0
0.0039304526,-0.00235948,-0.00034126200000000005,-0.0014374232000000002,0.004896428000000001,7.436,0,0
0.00435847,-0.0001538599999999996,0.0009605319999999999,0.00021516679999999993,0.002905082,7.437,0,0
0.003351084,0.0012999810000000002,0.00224894,0.0013829928,0.0017372960000000002,7.438,0,0
0.0002900460000000001,0.0023396064,0.0034231360000000002,0.0032108148000000005,-9.300000000002232e-07,7.439,0,0
-0.001251588,0.0025329384000000003,0.0036033940000000006,0.005127882,-0.002571668,7.44,0,0
-0.00032047999999999994,0.0021404824,0.0028148660000000005,0.00572587,-0.004286038000000001,7.441,0,0
-0.00011051400000000003,0.0025150784,0.0019658320000000003,0.005585902,-0.004947432,7.442,0,0
-0.0006818760000000001,0.0030909954,0.001039719,0.004506434,-0.005764346,7.443,0,0
-0.0004430479999999999,0.0029422808,-6.4259e-05,0.0013948780000000002,-0.006003426,7.444,0,0
-0.000557916,0.0026684288000000003,-0.000967877,-0.0022474800000000005,-0.0045671146,7.445,0,0
-0.001677368,0.0023038108,-0.001448267,-0.0045614900000000005,-0.0028175226,7.446,0,0
-0.0018842099999999999,0.0009226548,-0.0021632170000000003,-0.005995052000000001,-0.0010376226000000002,7.447,0,0
-0.0016729868,-0.0004952872000000001,-0.0027050959999999997,-0.006748922000000001,0.0013662714000000002,7.448,0,0
-0.0020641608,-0.0012970700000000002,-0.002764732,-0.005828924000000001,0.0034500014000000004,7.449,0,0
-0.0013951548,-0.0024838280000000004,-0.0030958120000000003,-0.0040022256,0.004330194,7.45,0,0
-0.0009937942,-0.0040519580000000005,-0.0031153,-0.0025814338,0.004972894,7.451,0,0
-0.0022501482,-0.005459686,-0.0024352784,-0.0007611298000000003,0.005343856,7.452,0,0
-0.0025001133999999997,-0.006087174000000001,-0.0015879364,0.0022270382000000003,0.0045838580000000006,7.453,0,0
-0.0014302453999999998,-0.006903876000000001,-0.0005160664,0.0042263962,0.0032413320000000004,7.454,0,0
-0.00033349539999999965,-0.007964624,0.0009025216000000001,0.004950545800000001,0.001367494,7.455,0,0
0.0018714919999999998,-0.007498454000000001,0.0020228196,0.005963946,-0.0016018640000000006,7.456,0,0
0.005632364,-0.005227412000000001,0.0022951840000000005,0.00595134,-0.005107546000000001,7.457,0,0
0.008289602,-0.0015894100000000003,0.0024369440000000003,0.0040780868,-0.007563942000000001,7.458,0,0
0.007810569999999999,0.0031853000000000003,0.0028079520000000003,0.0025828468,-0.008586474000000002,7.459,0,0
0.005201813999999999,0.008422176,0.0027565320000000003,0.0016856386,-0.008772342,7.46,0,0
0.0023167739999999997,0.012100626000000001,0.002392284,-0.0005620433999999998,-0.007123236,7.461,0,0
-0.0003778945999999995,0.012668136,0.0020849808,-0.0023289074,-0.0037442139999999996,7.462,0,0
-0.0024659046000000003,0.0106689891,0.0015964862,-0.0026277922,-0.0008812700000000004,7.463,0,0
-0.002079592,0.0067020771,0.0007181484,-0.0036832922000000004,0.001771056,7.464,0,0
-0.0009216799999999999,0.0012864311000000007,-8.462360000000002e-05,-0.004686442000000001,0.004732696,7.465,0,0
-0.00210102,-0.0034138209000000004,-0.0008509296,-0.0033730060000000004,0.0068404040000000004,7.466,0,0
-0.0044656114,-0.0057093869,-0.0011588244,-0.0016985799999999999,0.0077873180000000005,7.467,0,0
-0.0063977534,-0.006649222,-0.0014061238,-0.0011114942,0.008184056,7.468,0,0
-0.00787711,-0.006275714000000001,-0.001961346,0.00042924779999999984,0.007317964000000001,7.469,0,0
-0.008214526,-0.003882898,-0.0018244368000000003,0.0022816738,0.004601330000000001,7.47,0,0
-0.005147784,-0.0011168139999999994,-0.0014929674000000003,0.0025492958,0.001630914,7.471,0,0
-0.00034882399999999975,0.001398228,-0.0012703140000000003,0.0024988998,-0.001341918,7.472,0,0
0.0024982980000000004,0.00435461,-0.0009706086000000002,0.003575326,-0.004360908,7.473,0,0
0.004557574,0.006923534,-0.0007118866000000001,0.004207890000000001,-0.006307542000000001,7.474,0,0
0.006038754,0.007610720000000001,-0.0010200018,0.004187642,-0.006817480000000001,7.475,0,0
0.0048965272,0.007328646000000001,-0.0015573952000000001,0.004643932000000001,-0.006864522000000001,7.476,0,0
0.0023716026,0.006596362000000001,-0.0019325506,0.0041472964,-0.006036528,7.477,0,0
0.0015405186,0.003971034,-0.0019497194,0.0022168784,-0.0036834660000000007,7.478,0,0
0.0015689686,0.00023291399999999986,-0.0010899314000000003,0.00043751839999999994,-0.0011604500000000002,7.479,0,0
0.0014615286000000001,-0.0029057760000000005,0.00012267860000000008,-0.0013987116000000002,0.00136758,7.48,0,0
0.0015878134,-0.005803854000000001,0.0014047606000000001,-0.0039710196,0.004135558,7.481,0,0
0.000498014,-0.008499802,0.0023715886,-0.005600132000000001,0.006150350000000001,7.482,0,0
-0.0014497180000000002,-0.00934917,0.002692028,-0.005818712,0.006606306000000001,7.483,0,0
-0.003253282,-0.008707536000000002,0.0023049434,-0.005952586,0.006390720000000001,7.484,0,0
-0.004193622000000001,-0.008196618000000001,0.0017516154000000001,-0.005425900000000001,0.005513126000000001,7.485,0,0
-0.0032602659999999995,-0.00768573,0.0015211114,-0.003413116,0.0031538979999999996,7.486,0,0
0.0001825580000000002,-0.006867988000000001,0.0014775694000000001,-0.001351612,0.0006282080000000002,7.487,0,0
0.004119064,-0.005897806,0.0017625734,0.0006527879999999998,-0.001156486,7.488,0,0
0.005883352000000001,-0.0035076099999999995,0.002015022,0.003668716,-0.00291921,7.489,0,0
0.005707844,0.0002600259999999996,0.0021312,0.0062751,-0.0042766900000000005,7.49,0,0
0.003947028,0.003817814,0.0022488300000000003,0.007218344,-0.0046461440000000005,7.491,0,0
0.0010081640000000002,0.007040262,0.0018917332000000001,0.0075889980000000004,-0.004901514000000001,7.492,0,0
-0.0018037700000000001,0.009821456,0.0009092512000000001,0.007232196000000001,-0.004981216,7.493,0,0
-0.003056004,0.011314366,-0.00019584080000000002,0.004601962,-0.004059462000000001,7.494,0,0
-0.0028580700000000003,0.011142105999999999,-0.0009989868,0.001163672,-0.00230727,7.495,0,0
-0.0021037922000000002,0.009939373999999999,-0.0018149288000000002,-0.001244628,-0.00046905600000000014,7.496,0,0
-0.0015543682,0.008140596000000002,-0.002297228,-0.003604904,0.001573584,7.497,0,0
-0.0007316721999999998,0.00520991,-0.0018459820000000001,-0.006135186,0.003539174,7.498,0,0
0.00040407379999999997,0.0009073199999999994,-0.0010017758,-0.007403158,0.004639128,7.499,0,0
0.00046278779999999993,-0.0028375200000000005,-0.00010445780000000018,-0.007735214000000001,0.0046081659999999995,7.5,0,0
0.0006767242000000001,-0.00516783,0.0006950761999999999,-0.00802724,0.0037086546000000007,7.501,0,0
0.0014604922000000002,-0.006850384000000001,0.0011898582,-0.00729225,0.0019818126000000005,7.502,0,0
0.0014181482,-0.007510686000000001,0.0011033574,-0.005566679000000001,-0.0005024414000000001,7.503,0,0
0.0014957282,-0.007374406,0.0007760842000000001,-0.0033700949999999996,-0.0020549034000000004,7.504,0,0
0.0030573122,-0.007728006,0.000306243,-0.000463539,-0.0027896182000000003,7.505,0,0
0.003321852,-0.007192134,-0.00015752700000000003,0.002273561,-0.0037333588000000007,7.506,0,0
0.0004636439999999996,-0.003680198,-0.00012869,0.0041364869999999995,-0.004162604800000001,7.507,0,0
-0.0030332740000000003,-5.766999999999968e-05,-0.0003416092,0.005221524000000001,-0.0034380408,7.508,0,0
-0.005902804000000001,0.0031214220000000004,-0.0007021382,0.006070834000000001,-0.0030958984,7.509,0,0
-0.008594572,0.006941336000000001,-0.0009717969999999999,0.006136982000000001,-0.0032975456,7.51,0,0
-0.010354496000000001,0.008222548,-0.001405441,0.005594638000000001,-0.0013482476,7.511,0,0
-0.009084202000000001,0.004934028000000002,-0.0017325122,0.0063852100000000005,0.0020043103999999997,7.512,0,0
-0.0058634762,-0.0005193919999999996,-0.0014234642,0.006979280000000001,0.0042314264,7.513,0,0
-0.0027119882000000003,-0.005706014000000001,-0.0010154238000000002,0.0050269780000000005,0.006298016,7.514,0,0
0.0003220797999999997,-0.010071668,-0.0009233118000000001,0.0025577140000000004,0.009084568,7.515,0,0
0.0039671698,-0.011076584,-0.0007152232,0.0009600480000000002,0.010013705999999999,7.516,0,0
0.0076694958,-0.00817198,-0.0007312632,-0.0019275520000000001,0.009096122,7.517,0,0
0.008862616,-0.0036207540000000003,-0.0007643687999999999,-0.004712190000000001,0.008176602,7.518,0,0
0.007544386,0.0004802919999999999,-0.0005506663999999999,-0.004719640000000001,0.0061290198,7.519,0,0
0.005405384,0.0034291980000000005,-0.00038889739999999995,-0.0037568040000000003,0.0023855478000000003,7.52,0,0
0.0020685119999999998,0.0044488520000000005,-0.0003906456,-0.003251728,-0.0013425722000000003,7.521,0,0
-0.002095908,0.0035011720000000003,-0.00011766480000000002,-0.002520936,-0.0050182882,7.522,0,0
-0.0036460620000000007,0.0035681239999999998,0.00022350079999999999,-0.0015608457999999998,-0.0090158362,7.523,0,0
-0.0022438320000000003,0.004690232000000001,0.000533986,-0.0012241998,-0.011530672000000002,7.524,0,0
-0.0008224180000000002,0.006151974,0.0015355490000000002,-0.0013301198,-0.012161928,7.525,0,0
4.4348599999999706e-05,0.008288638000000001,0.0025716826000000003,-0.0011487596000000003,-0.011732406,7.526,0,0
0.0011427872,0.00916464,0.002943012,-0.0013800336000000001,-0.010075312000000001,7.527,0,0
0.0018251392,0.007981552,0.003118608,-0.0022131598,-0.006418992,7.528,0,0
0.0016107852,0.005838832,0.0027535768,-0.0022135278,-0.002072024,7.529,0,0
0.0019399632000000003,0.003178672000000001,0.0016842229999999999,-0.0019762808,0.0017863040000000003,7.53,0,0
0.0031787826,-0.0003579280000000001,0.0008137528,-0.0019543892,0.005968702000000001,7.531,0,0
0.003669478,-0.004158528,6.085880000000001e-05,-0.0006401572000000002,0.009763868000000002,7.532,0,0
0.0029076720000000005,-0.007437138000000001,-0.0006384892,0.0012259628,0.011783808000000002,7.533,0,0
0.0022605932,-0.010033772000000002,-0.001060358,0.0018748308000000001,0.01226294,7.534,0,0
0.0020973572000000003,-0.01198656,-0.0016770921999999999,0.0021994798,0.012195546000000002,7.535,0,0
0.0015319012,-0.012784244,-0.002455454,0.002929908,0.0104179,7.536,0,0
0.0007560732,-0.01078832,-0.0029790360000000004,0.0027924300000000003,0.006939788,7.537,0,0
-0.0003855268,-0.006490316,-0.003430372,0.002099666,0.003189178,7.538,0,0
-0.0027480819999999998,-0.0014231960000000003,-0.003508704,0.0019095444000000001,-0.0016000219999999998,7.539,0,0
-0.005780697999999999,0.003407964,-0.00301889,0.0018904824000000003,-0.006682408000000001,7.54,0,0
-0.008102008,0.006842144,-0.0025873520000000002,0.0012610438000000002,-0.010219902000000001,7.541,0,0
-0.007916928,0.007775628,-0.002164066,0.0006109596000000001,-0.01190015,7.542,0,0
-0.0049278659999999995,0.0066599860000000006,-0.00147498332,0.0006015082,-0.012505152,7.543,0,0
-0.0012609759999999998,0.00514126,-0.0008411735200000001,0.00031338119999999996,-0.011045604,7.544,0,0
0.0013424380000000005,0.003707016,-0.0003434375200000001,-0.0007264528,-0.007669538,7.545,0,0
0.0038191460000000007,0.0029874600000000004,9.022747999999997e-05,-0.0019384682000000001,-0.004276098,7.546,0,0
0.005479038,0.0035960820000000004,0.00032240508,-0.003866698,-0.0014974640000000004,7.547,0,0
0.004548200000000001,0.0038118320000000002,0.00023574700000000007,-0.0062677966,0.002059464,7.548,0,0
0.0032627632,0.0027023880000000004,-1.8191999999999774e-06,-0.007189643999999999,0.005572016000000001,7.549,0,0
0.0034319012,0.0009362819999999999,-0.000151348,-0.0062034224,0.007011628000000001,7.55,0,0
0.0038569212,-0.0013645460000000001,-0.0003345862,-0.004612120399999999,0.008085390000000001,7.551,0,0
0.0032754211999999998,-0.003772328,-0.00021481900000000002,-0.0023677284,0.009016020000000001,7.552,0,0
0.0027841073999999998,-0.0046497199999999995,-1.7000599999999994e-05,0.0006292235999999999,0.008277038000000002,7.553,0,0
0.0016394802,-0.003714882000000001,-3.836599999999999e-05,0.0017966644,0.004562082,7.554,0,0
-0.0016768718000000004,-0.0026675978,2.3207000000000024e-05,0.0018401068,0.0021481700000000005,7.555,0,0
-0.005736447800000001,-0.0005332898,0.00033947240000000003,0.0021575248000000003,-0.002093852,7.556,0,0
-0.0088893658,0.00048514619999999995,0.00037143168,0.0035434808,-0.004962032,7.557,0,0
-0.010941394,0.0013543942000000002,0.00039556868000000005,0.0040049768,0.0025677739999999992,7.558,0,0
-0.011287054000000001,0.0003361382,0.00090027848,0.0012510899999999994,0.01001677,7.559,0,0
-0.0077375740000000005,-0.006174516,0.0006624192800000001,-0.0005276400000000007,0.012659386,7.56,0,0
-0.0028629,-0.010464756,0.00053932508,0.00019892599999999988,0.015392984,7.561,0,0
0.0007017640000000003,-0.009145740000000001,0.0010749890000000002,0.0011886980000000002,0.01284704,7.562,0,0
0.0037737360000000006,-0.005670308000000001,0.0013975889999999999,0.00400475,-0.0007759600000000009,7.563,0,0
0.005540476000000001,0.0009955199999999997,0.0018592370000000001,0.011521590000000002,-0.01407518,7.564,0,0
0.004833472000000001,0.014207220000000001,0.002770722,0.017976526000000003,-0.023862802000000002,7.565,0,0
0.00217821,0.026021120000000002,0.0035128700000000004,0.0192014,-0.031723,7.566,0,0
-0.0010106759999999998,0.03149296,0.0037167199999999997,0.0166420822,-0.03311646,7.567,0,0
-0.0038418240000000006,0.031470040000000005,0.0034755619999999997,0.0109422962,-0.03016586,7.568,0,0
-0.005567734,0.026262804,0.0025654607999999997,0.0030039562,-0.022647012,7.569,0,0
-0.005965275200000001,0.016969464,0.0014348128000000002,-0.0062915238000000005,-0.011462512,7.57,0,0
-0.003732369200000001,0.0026222439999999975,-3.374119999999996e-05,-0.0139676038,0.001893688000000001,7.571,0,0
0.0015378927999999997,-0.012430416000000001,-0.0019820312000000005,-0.019461606,0.014482148,7.572,0,0
0.0078292488,-0.025223776000000003,-0.0035582052,-0.0233732,0.024362108,7.573,0,0
0.012421032799999999,-0.03455322,-0.004447136,-0.02481456,0.0313186,7.574,0,0
0.013980742,-0.03921098,-0.004908814000000001,-0.023020040000000002,0.03372514,7.575,0,0
0.012923430000000001,-0.037871140000000005,-0.004532031999999999,-0.018400658,0.03159416,7.576,0,0
0.008856518,-0.031069696,-0.0029919680000000002,-0.01197231,0.02578088,7.577,0,0
0.0028680840000000008,-0.021046626,-0.001097504,-0.004459767999999999,0.016871378,7.578,0,0
-0.0019078380000000002,-0.008793026000000002,0.0006064219999999999,0.002663312000000001,0.004948558000000001,7.579,0,0
-0.004778216,0.004123374000000001,0.002523066,0.008183632000000001,-0.007359062000000001,7.58,0,0
-0.007236642,0.015716594,0.004215296,0.012146330000000002,-0.017841422000000003,7.581,0,0
-0.00996439,0.02461955,0.004905146,0.015402602000000001,-0.026098782,7.582,0,0
-0.012205196000000001,0.03062418,0.004894202,0.017465420000000002,-0.02954746,7.583,0,0
-0.011842437999999999,0.031239020000000006,0.004539748,0.01765796,-0.026400944000000003,7.584,0,0
-0.009113128,0.026989496000000005,0.00358467,0.015945993999999998,-0.019633551200000002,7.585,0,0
-0.005055428000000001,0.020276643000000004,0.0020465854,0.011392216,-0.011478165200000001,7.586,0,0
0.0009401319999999993,0.010317822999999999,0.0007428834000000003,0.004299036,-0.0014012052,7.587,0,0
0.007318412,-0.0016995169999999998,-0.0002946206,-0.0034106040000000002,0.0079077348,7.588,0,0
0.011416096,-0.011890277000000001,-0.0013830846,-0.010302744000000003,0.014599198800000001,7.589,0,0
0.01224882,-0.018851033000000003,-0.0021711086,-0.015157778000000002,0.020304846,7.59,0,0
0.010667702000000001,-0.0240699,-0.002543598,-0.017133600000000002,0.023884040000000002,7.591,0,0
0.0083434706,-0.026105460000000004,-0.002724992,-0.015755902000000002,0.023634580000000002,7.592,0,0
0.0055507842000000005,-0.023448940000000005,-0.0024346019999999997,-0.0121146792,0.02054597,7.593,0,0
0.0016687602,-0.017748644200000004,-0.0017711786000000004,-0.007026987200000001,0.01491041,7.594,0,0
-0.0014450577999999999,-0.011229652200000002,-0.0009261946000000002,-0.0002740472,0.00619031,7.595,0,0
-0.0030026498,-0.0043194821999999996,6.931739999999992e-05,0.0061347727999999995,-0.0036460500000000005,7.596,0,0
-0.0044965784,0.0029227578000000005,0.0009227194000000001,0.0110626748,-0.01258389,7.597,0,0
-0.004993516000000001,0.0088654578,0.0019838654,0.015541271999999998,-0.02053858,7.598,0,0
-0.004943424,0.014387242000000001,0.002998858,0.01838014,-0.026207400000000002,7.599,0,0
-0.005431770000000001,0.01955759,0.003316966,0.017411499999999996,-0.028037,7.6,0,0
-0.0056545300000000005,0.02328202,0.0029468076000000003,0.014440322000000002,-0.025933380000000002,7.601,0,0
-0.005268060000000001,0.025532080000000002,0.0021642636,0.010112564000000001,-0.020614208000000002,7.602,0,0
-0.0039053800000000004,0.024278560000000005,0.0007370076000000001,0.0032781640000000005,-0.012620576000000001,7.603,0,0
-0.00227049,0.01794242,-0.0010902444,-0.0042846360000000005,-0.002900096,7.604,0,0
1.6970000000000266e-05,0.008110400000000002,-0.0025906864,-0.010101896,0.006582764000000001,7.605,0,0
0.004619580000000001,-0.0026882399999999993,-0.003714226,-0.013525858000000002,0.014769764000000001,7.606,0,0
0.00839377,-0.01304918,-0.004155472,-0.015121700000000002,0.020939572000000004,7.607,0,0
0.0077774404,-0.02093922,-0.004120278,-0.013987886,0.024060300000000003,7.608,0,0
0.0061678824000000005,-0.025001880000000004,-0.004009798,-0.010277513,0.02358602,7.609,0,0
0.004425796399999999,-0.02461954,-0.0034003080000000003,-0.005489507000000001,0.020738140000000002,7.61,0,0
