bandpass 1,bandpass 2,bandpass 3,bandpass 4,bandpass 5,time,onset,mark
-0.006102892,0.008569912,0.012841462000000001,0.0023260960000000006,-0.016711780000000002,2.469,1,1
-0.010881812000000001,0.009087668,0.0129327502,0.0009799060000000002,-0.018512,2.47,0,0
-0.017770492000000002,0.0089366944,0.012328982200000001,-0.0011364539999999998,-0.018368533,2.471,0,0
-0.021132940000000003,0.0024488364000000004,0.0054921362,-0.005801434000000001,-0.008671073000000001,2.472,0,0
-0.013574940000000002,-0.0018806636,-0.0012780818000000002,-0.009364704000000001,0.0021765270000000006,2.473,0,0
0.000677040000000002,-0.0035969376000000003,-0.0065039038,-0.011857510000000002,0.011453007000000001,2.474,0,0
0.012956680000000002,-0.0043265556,-0.010739312,-0.012967220000000002,0.019236067000000003,2.475,0,0
0.02286956,-0.004712036000000001,-0.012808844,-0.012107340000000001,0.02471338,2.476,0,0
0.027781298000000003,-0.004605672,-0.011711578,-0.009772198200000002,0.02591664,2.477,0,0
0.0225583824,-0.0030424200000000005,-0.008757102000000001,-0.0059483722,0.02346192,2.478,0,0
0.011359482399999999,-0.0014964499999999999,-0.003825762,-0.0008941342000000001,0.0180974916,2.479,0,0
0.0012185624000000009,-0.001067058,0.002598998,0.0039661258,0.0096786916,2.48,0,0
-0.0057512776,-9.957200000000003e-05,0.0071309419999999995,0.0078314658,0.0001317316000000006,2.481,0,0
-0.0085254756,0.001348748,0.008265476,0.010808763999999998,-0.0086335484,2.482,0,0
-0.009974374000000001,0.002587672,0.00804636,0.012884118,-0.016047748400000002,2.483,0,0
-0.01180629,0.004157926,0.0065983406000000005,0.013283420000000002,-0.02112248,2.484,0,0
-0.010395776,0.005490778000000001,0.0035934986000000007,0.01203732,-0.022506039999999998,2.485,0,0
-0.00747428,0.005304166000000001,0.0007337025999999999,0.009505405199999999,-0.020489756000000005,2.486,0,0
-0.004493502000000001,0.003992866,-0.0018822494,0.005603927200000002,-0.016376416,2.487,0,0
0.0009117719999999999,0.0012893920000000003,-0.0043464814,0.0003693672000000003,-0.009654428,2.488,0,0
0.005976688,-0.0030052300000000007,-0.005769398,-0.0046199728,-0.0011569680000000004,2.489,0,0
0.007691138,-0.006265958,-0.0059729380000000006,-0.0079116728,0.006896772,2.49,0,0
0.008070648,-0.007838314,-0.0056304120000000004,-0.009986904000000001,0.013483828,2.491,0,0
0.007078462,-0.009065080000000001,-0.004710654000000001,-0.010701978000000001,0.018597748000000004,2.492,0,0
0.0031573508000000004,-0.009095472,-0.0030064339999999997,-0.009286116,0.021090160000000004,2.493,0,0
-0.000481055,-0.007017384,-0.000622718,-0.006552042200000001,0.01990634,2.494,0,0
-0.0015117070000000002,-0.005086832,0.0019213000000000004,-0.0037023682000000007,0.016672610000000004,2.495,0,0
-0.001527695,-0.003182318,0.0037865120000000006,-0.0005090542,0.011330556000000002,2.496,0,0
-0.002331781,0.0013297020000000003,0.004416988,0.0028116558,0.003935076,2.497,0,0
-0.0032021538000000004,0.006987312,0.003666956,0.0052468078,-0.0030626440000000007,2.498,0,0
-0.0030934734000000004,0.011056884,0.002507604,0.0066352500000000005,-0.009233324000000001,2.499,0,0
-0.0031808714,0.013666138000000001,0.0015558780000000001,0.007552930000000001,-0.015254234000000002,2.5,0,0
-0.0034130714000000003,0.013364894,0.0005709860000000001,0.007199536,-0.0191054,2.501,0,0
-0.0030846874,0.007342094,0.0002753720000000002,0.005365438,-0.019450180000000004,2.502,0,0
-0.0026844414000000002,-0.0030475059999999997,0.0006657410000000001,0.0029507220000000002,-0.018259758,2.503,0,0
-0.0013766200000000003,-0.015263066,-0.00017109899999999997,-7.993999999999883e-06,-0.014732842000000001,2.504,0,0
0.0018361660000000002,-0.026787586000000002,-0.001813621,-0.0032236320000000006,-0.007667222000000001,2.505,0,0
0.005341188,-0.03543988,-0.0026536470000000003,-0.005784882,0.00025301800000000025,2.506,0,0
0.009082638,-0.03919070000000001,-0.0035030050000000004,-0.007224574000000001,0.007406178,2.507,0,0
0.012274636,-0.03898298,-0.004633652,-0.007765514000000001,0.013834896,2.508,0,0
0.011971737999999999,-0.03328492,-0.0047932240000000004,-0.00690282,0.01878586,2.509,0,0
0.008232851999999999,-0.016519800000000005,-0.0038474184000000006,-0.005336656,0.02045276,2.51,0,0
0.0029279920000000004,0.007183180000000001,-0.0023323584000000007,-0.00360950594,0.01917418,2.511,0,0
-0.003652928,0.029561900000000002,-0.0005167584000000001,-0.00154281794,0.016270666,2.512,0,0
-0.010298588,0.049550460000000005,0.0016738535999999997,0.0007614020600000001,0.010849007999999999,2.513,0,0
-0.013129882,0.06279656,0.0032635136,0.0032156020600000003,0.003534588,2.514,0,0
-0.011878902,0.060483340000000003,0.002057154,0.00496990606,-0.003283892,2.515,0,0
-0.008941174,0.04916024,-0.0011784540000000002,0.006254512,-0.009124712,2.516,0,0
-0.0052300296,0.03819118,-0.004904458,0.007106112,-0.014258958000000002,2.517,0,0
-0.0018250636,0.025945647999999998,-0.004977348,0.006594910000000001,-0.016825100000000003,2.518,0,0
-0.0007606336000000001,0.012844768,0.0008233159999999993,0.0044297600000000005,-0.01628252,2.519,0,0
-0.0011676956,0.002411588,0.006210522,0.0016749760000000001,-0.014222424000000001,2.52,0,0
-0.0005345356,-0.005302572,0.009318534,-0.001023694,-0.010261002,2.521,0,0
0.00028167799999999994,-0.012979752,0.011833262,-0.003911998,-0.004433596,2.522,0,0
0.000925242,-0.019180540000000003,0.009205762,-0.005605446,0.001553464,2.523,0,0
0.0029402680000000002,-0.022091140000000002,0.0007395020000000004,-0.005413706,0.007307984,2.524,0,0
0.004912386,-0.02443066,-0.004713472,-0.004772812,0.012602648000000001,2.525,0,0
0.004792524,-0.02840478,-0.0046216980000000005,-0.0037277359999999997,0.015480326,2.526,0,0
0.004313158,-0.03235104,-0.0020759660000000003,-0.0018371080000000003,0.015172138,2.527,0,0
0.0035855640000000003,-0.03348458,0.002570432,-0.000326784,0.013354042000000002,2.528,0,0
0.0008638940000000003,-0.03163576,0.006786892,0.000685948,0.009889452,2.529,0,0
-0.002423638,-0.024819634,0.00770882,0.002156938,0.004666554000000002,2.53,0,0
-0.004556008,-0.012964493999999997,0.00536666,0.0033940540000000005,0.00013471999999999985,2.531,0,0
-0.005744226000000001,-0.00036077400000000034,0.0020420359999999992,0.004133714000000001,-0.0035491380000000003,2.532,0,0
-0.005685906,0.012333966000000002,-0.0013555760000000003,0.004672868,-0.007358282000000001,2.533,0,0
-0.003608206,0.023523466,-0.0038681160000000004,0.0043708340000000005,-0.010519052000000001,2.534,0,0
0.0012988160000000004,0.02820926,-0.004103842,0.003422402,-0.012046054,2.535,0,0
0.0067487,0.02672806,-0.0030652440000000004,0.00222747,-0.012122478,2.536,0,0
0.008383818,0.023327738,-0.0021025894000000003,0.0006538140000000001,-0.010771826000000002,2.537,0,0
0.0073554519999999984,0.017364722,-0.0018735154000000002,-0.0012825360000000001,-0.00722082,2.538,0,0
0.0043375819999999995,0.009545872000000002,-0.0024967714,-0.0029771900000000002,-0.0024509499999999995,2.539,0,0
-0.002410218000000001,0.0031388480000000005,-0.0035109794,-0.003855954000000001,0.0018430919999999995,2.54,0,0
-0.008449532000000001,-0.0024267720000000007,-0.004819881400000001,-0.004249508,0.00544703,2.541,0,0
-0.009753068,-0.00762113,-0.0064313140000000005,-0.004362348,0.008554477999999999,2.542,0,0
-0.00820753,-0.011684214000000002,-0.007139348000000001,-0.00354665,0.009921933999999999,2.543,0,0
-0.0034605499999999997,-0.014148903999999999,-0.006092612,-0.0023154328000000004,0.009201162,2.544,0,0
0.0030236100000000004,-0.014964320000000001,-0.003259634,-0.0016064386000000002,0.008112241999999999,2.545,0,0
0.005826942,-0.01417352,0.00016617600000000008,-0.0005030786000000001,0.0059093916,2.546,0,0
0.006001906,-0.011964182,0.0025649180000000002,0.0010528254,0.0016572456000000005,2.547,0,0
0.005549584000000001,-0.009421014,0.003807192,0.0020111974000000003,-0.0022242763999999996,2.548,0,0
0.0028130179999999996,-0.007715068,0.0039538358000000004,0.0027135902,-0.0053253404,2.549,0,0
-0.00025010939999999996,-0.006360292,0.0030501538,0.0037236580000000003,-0.008868522399999999,2.55,0,0
-0.0012641440000000002,-0.004327431400000001,0.0017451597999999999,0.003938464,-0.011163972,2.551,0,0
-0.00032150600000000005,-0.0018473594,0.0014417538,0.0029516806,-0.010500558,2.552,0,0
0.0017579120000000001,0.0011559326000000003,0.0016213558,0.0016197266,-0.009004466,2.553,0,0
0.001837668,0.0062356266,0.0009346320000000001,-0.00035610540000000003,-0.007046469400000001,2.554,0,0
-0.0005218046000000003,0.0120351706,-0.00023908200000000016,-0.0026649734000000003,-0.0028161854,2.555,0,0
-0.0011742780000000004,0.01507925,-0.001896684,-0.0041168054,0.0014172826000000002,2.556,0,0
9.937999999999917e-06,0.01540143,-0.003925836,-0.004699806000000001,0.0043718726,2.557,0,0
0.0002585339999999997,0.013437082,-0.005507786000000001,-0.004726788000000001,0.006677852600000001,2.558,0,0
0.0009354439999999999,0.008630618,-0.005812322,-0.0036834716000000004,0.008237432,2.559,0,0
0.0027849140000000003,0.002895374,-0.00472358,-0.0016563636000000003,0.00832043,2.56,0,0
0.003375554000000001,-0.00184943,-0.0020567840000000003,0.0001604343999999999,0.007478346000000001,2.561,0,0
0.0013846964,-0.005320664000000001,0.00130445,0.0017145404,0.006984604,2.562,0,0
-0.0014579675999999999,-0.0067761720000000004,0.004409440000000001,0.0035528224,0.005383178200000001,2.563,0,0
-0.0024747156,-0.006253202000000001,0.007214366,0.004448388,0.0028247102000000003,2.564,0,0
-0.0022032816,-0.004917588400000001,0.008147548,0.0038235765999999997,0.0005725001999999997,2.565,0,0
-0.0030586136,-0.0031706644,0.007533134,0.0032391245999999997,-0.0016068037999999998,2.566,0,0
-0.006121650000000001,-0.0015204012,0.006485764000000001,0.0028768006,-0.0042165438,2.567,0,0
-0.008884726,-0.0008462592000000001,0.0046109662,0.0018812340000000003,-0.0057137080000000005,2.568,0,0
-0.00914626,-0.0011581552000000002,0.0021484782,0.00127227,-0.005080938,2.569,0,0
-0.009405036000000002,-0.0016678128000000001,6.419819999999997e-05,0.0016159634000000001,-0.0044473844000000005,2.57,0,0
-0.007509016000000001,-0.0023647888,-0.0014588038000000001,0.0010688644,-0.0034451080000000005,2.571,0,0
0.0024052840000000015,-0.004820448000000001,-0.0024303378,-0.0002961715999999999,-0.0010244980000000002,2.572,0,0
0.014261844,-0.006616474000000001,-0.0024197128,-0.001019729,0.000958654,2.573,0,0
0.018668846,-0.0038157240000000004,-0.0023263828,-0.0019178010000000002,0.0014556984,2.574,0,0
0.01824352,0.001552424000000001,-0.0022932028,-0.0033626690000000004,0.0020745028,2.575,0,0
0.013766702,0.00689628,-0.0018479948000000002,-0.003907398,0.0030702984,2.576,0,0
0.0018685019999999984,0.012323760000000001,-0.0013068048000000002,-0.003315394,0.0026860544000000004,2.577,0,0
-0.011044218000000001,0.015046792000000002,-0.0005773460000000002,-0.0028621776,0.002032929,2.578,0,0
-0.016484998,0.011115976,0.0004892259999999999,-0.0021280588000000002,0.0021612246,2.579,0,0
-0.013332239999999999,0.0021225559999999994,0.0015175657999999999,-0.0006361148,0.0013687506000000002,2.58,0,0
-0.004821080000000001,-0.007411484000000001,0.0023869038,0.0008818992000000001,-0.0003718453999999999,2.581,0,0
0.0050769000000000005,-0.014511564000000001,0.0029501698,0.0022713992000000004,-0.0018855694,2.582,0,0
0.011947380000000002,-0.018132796,0.0028220198000000005,0.0033996828000000005,-0.003399692,2.583,0,0
0.012062580000000002,-0.017939876000000004,0.0026825898000000007,0.003657978,-0.00543845,2.584,0,0
0.00549102,-0.014723182000000001,0.0024813456000000005,0.002858132,-0.006329068,2.585,0,0
-0.0028801,-0.009873421200000001,0.0013568396,0.0018433880000000005,-0.005796010000000001,2.586,0,0
-0.009366932000000001,-0.004392559200000001,-0.0003752044000000002,0.0006168222,-0.005425686000000001,2.587,0,0
-0.013016094,0.0055005608,-0.0026706004,-0.0010543818000000001,-0.003941412000000001,2.588,0,0
-0.01007073,0.021484496800000003,-0.0048772144000000005,-0.0019227458000000003,-0.0013177420000000002,2.589,0,0
-0.0008784099999999996,0.0314923628,-0.006428044000000001,-0.00158159772,0.0004927800000000001,2.59,0,0
0.0069629900000000005,0.031272782,-0.00839664,-0.00156746512,0.0015407340000000002,2.591,0,0
0.010231656,0.027787040000000002,-0.010797504,-0.0019099213199999998,0.0032934500000000003,2.592,0,0
0.0116613366,0.017743480000000006,-0.012613048000000002,-0.00116652612,0.004420182,2.593,0,0
0.0099102926,0.0008080199999999996,-0.010363776000000002,-0.00031383012,0.004139178,2.594,0,0
0.0034142485999999993,-0.009992072000000001,-0.0029776079999999996,-0.00023701579999999993,0.004372524,2.595,0,0
-0.0026528394,-0.011030584000000001,0.004297432000000001,0.0004314356000000001,0.004120728,2.596,0,0
-0.0051440754,-0.009593578,0.009548396,0.0016009476000000001,0.00260009,2.597,0,0
-0.00584198,-0.007944632,0.014041314000000001,0.0016677562000000001,0.001179524,2.598,0,0
-0.005477666,-0.007736511999999999,0.014035608000000001,0.0011888126000000002,-0.00012109999999999996,2.599,0,0
-0.0035262080000000003,-0.00857096,0.008828308,0.0011954068,-0.002407246,2.6,0,0
-0.001139672,-0.008366408,0.004568858,0.0006366210000000001,-0.004309796,2.601,0,0
3.825139999999986e-05,-0.008163866,0.0026387554,-0.000508869,-0.004634962,2.602,0,0
0.0002503173999999998,-0.005006712,0.0009837933999999999,-0.0008969228,-0.004730468,2.603,0,0
-0.00012361860000000024,0.0036725279999999996,-0.0005539666,-0.0009080622,-0.004010038600000001,2.604,0,0
-0.0010974626000000002,0.011613028000000001,-0.0021549086,-0.0013668848000000001,-0.0014026666000000003,2.605,0,0
-0.0018347938000000002,0.012302054,-0.0038530706000000003,-0.0017975170000000002,0.0016552854,2.606,0,0
-0.0021870554000000004,0.008613185999999998,-0.005384044,-0.0018301870000000003,0.0038427154,2.607,0,0
-0.0017565094000000002,0.0012874660000000001,-0.006581958000000001,-0.0017527422000000003,0.0053992434,2.608,0,0
-2.259140000000011e-05,-0.012023494,-0.0067150560000000005,-0.0015284662,0.005814566,2.609,0,0
0.0016121366000000001,-0.024792914000000003,-0.00498315,-0.0007886002,0.0043767219999999996,2.61,0,0
0.0032799038,-0.030575560000000005,-0.0016519780000000006,0.0001540798,0.002043602,2.611,0,0
0.006230444,-0.030451980000000003,0.0018012019999999998,0.0010719418000000001,-0.00012245600000000006,2.612,0,0
0.008417998000000001,-0.025256068000000003,0.004658646000000001,0.0018923429999999999,-0.002012612,2.613,0,0
0.007686880000000001,-0.012463408000000006,0.006028637999999999,0.002219626,-0.002989538,2.614,0,0
0.005452337999999999,0.002916471999999999,0.004819958000000001,0.0017151114000000002,-0.0023780859999999997,2.615,0,0
0.0018274339999999997,0.014282452,0.0026628116000000004,0.0013762164000000001,-0.001422637,2.616,0,0
-0.003606906,0.024643771999999998,0.0013196956,0.0016020204000000001,-0.001393513,2.617,0,0
-0.008286606,0.03371156,0.0005984056,0.0010242244,-0.0012423550000000001,2.618,0,0
-0.010178116000000001,0.034383620000000004,0.0001476915999999999,0.0003267844,-0.0004703948000000001,2.619,0,0
-0.009384792,0.029026700000000002,0.00026008559999999995,0.0006019274000000001,-0.0010422508000000003,2.62,0,0
-0.007394778600000001,0.024517194000000003,0.00024249819999999997,0.00052065284,-0.0023280098,2.621,0,0
-0.0049039894,0.018047878,-0.0005043018,-0.00032823516000000003,-0.0020415218,2.622,0,0
-0.0023356130000000003,0.008387008000000001,-0.0011445818000000003,-9.802315999999999e-05,-0.0015605144,2.623,0,0
-0.00023736900000000008,0.00024698600000000025,-0.0006961038000000001,0.00063486884,-0.0018818094,2.624,0,0
0.0007471070000000001,-0.004051158,-9.226139999999998e-05,0.00050194004,-0.0013573734,2.625,0,0
0.0007634112,-0.007398212,-0.00036631160000000007,0.00043366100000000006,0.0001147206,2.626,0,0
0.00121006,-0.010261136,-0.0010578556000000001,0.0008160376,0.0008273866,2.627,0,0
0.0021488736,-0.011690186000000002,-0.0018969936000000002,0.0005333973999999999,0.0015233792000000001,2.628,0,0
0.0026156816,-0.013409944000000002,-0.0027761356,-0.00028065460000000007,0.002593286,2.629,0,0
0.0018429756,-0.013369630000000002,-0.003420302,-0.00043573200000000004,0.0023298768999999997,2.63,0,0
0.0008789460000000002,-0.011055648000000001,-0.003485682,-0.0005151638000000001,0.0017008269,2.631,0,0
-0.0007452940000000001,-0.010064228,-0.0030944400000000004,-0.0010115604,0.0013094538799999999,2.632,0,0
-0.003973324,-0.009809368,-0.002213478,-0.0010458894,-6.78561200000001e-05,2.633,0,0
-0.007334724000000001,-0.007722612,-0.00102031,-0.0006900618,-0.00206947812,2.634,0,0
-0.007877468000000002,-0.007279578,0.0003421380000000001,-0.0010065120000000002,-0.00290357102,2.635,0,0
-0.0023080159999999995,-0.008650498000000001,0.0015977340000000004,-0.0012125256,-0.00315508502,2.636,0,0
0.006687846,-0.0067404760000000005,0.0029147480000000004,-0.0012795796,-0.003934758,2.637,0,0
0.012419366,-0.0021586360000000002,0.003815736,-0.0019209504000000002,-0.0035785440000000003,2.638,0,0
0.013340434000000002,0.0012916679999999997,0.0025944920000000003,-0.0021866760000000002,-0.0022997318,2.639,0,0
0.011758068,0.003779254,0.00013297200000000008,-0.0017710988000000003,-0.001576445,2.64,0,0
0.005889733999999999,0.0069856760000000006,-0.001650402,-0.0013043854000000003,-0.0012533286,2.641,0,0
-0.0031326600000000002,0.008524482000000002,-0.0023531792,-0.0006774714000000002,-0.0005638474,2.642,0,0
-0.008250676000000002,0.007082944,-0.0021111032000000005,0.0004060166,4.5349399999999976e-05,2.643,0,0
-0.008136062000000001,0.005043102000000001,-0.0003334232000000001,0.00075134276,-0.00017656699999999998,2.644,0,0
-0.006747646,0.003343688,0.0021042468,0.00023712555999999996,-0.00010572760000000001,2.645,0,0
-0.006385574000000001,0.0017691728000000003,0.0032734327999999996,-7.657524000000008e-05,0.000452624,2.646,0,0
-0.00625032,0.000670544,0.0030096414,-0.00013151024000000006,0.0006609496,2.647,0,0
-0.004416412,-0.00047839,0.0020979942000000002,-0.00021524424000000003,0.0008352348,2.648,0,0
-0.0003817339999999999,-0.001330346,0.0013193761999999998,1.4635999999999838e-06,0.0015329330000000002,2.649,0,0
0.00373295,-0.0011043698,0.0007185842,0.0010576276,0.0021105948,2.65,0,0
0.00669159,-0.0007016406000000001,0.00019122619999999998,0.001644253,0.0019439868,2.651,0,0
0.008965028,-0.0009887558,-0.00037773520000000004,0.001136252,0.002167612,2.652,0,0
0.008993832,-0.0015484338000000002,-0.0008973420000000002,0.0009510050000000001,0.0025779440000000004,2.653,0,0
0.005657173999999999,-0.0015348538,-0.0015026460000000003,0.0008227496000000001,0.0020541794000000003,2.654,0,0
0.001390608,-0.0017384380000000001,-0.0019125538,-4.539440000000001e-05,0.0016339496000000002,2.655,0,0
-0.001283474,-0.00259582,-0.00161168826,-0.00019615840000000002,0.0017344316,2.656,0,0
-0.003082164,-0.0017961180000000002,-0.00090485526,0.0007606316000000001,0.0010815616000000002,2.657,0,0
-0.004355092,0.0005211719999999999,-0.00018770645999999995,0.0009089206000000001,7.260960000000008e-05,2.658,0,0
-0.003889086,0.0015308080000000003,0.00030871954,0.0007934860000000003,-6.938927999999996e-05,2.659,0,0
-0.00233345,0.0020101328000000003,0.0009352033400000001,0.0011034590000000002,-0.00034643847999999994,2.66,0,0
-0.001049432,0.0037320688,0.0014616518,0.0006654944000000002,-0.00073356508,2.661,0,0
-0.00035090379999999996,0.0056882428,0.0016240748000000001,-0.00038408560000000003,0.00024940092000000005,2.662,0,0
0.0003787902,0.007214922800000001,0.0015271754000000003,-0.0010695836,0.00139729292,2.663,0,0
0.0011041622000000002,0.0087295628,0.0014947996000000004,-0.0012759216000000002,0.0019764784000000004,2.664,0,0
0.0009964822000000002,0.008423445799999998,0.0014954636,-0.0014041464000000001,0.0034185854,2.665,0,0
-0.0012383038,0.0051257738,0.0012971296000000002,-0.0007428777999999999,0.00460021,2.666,0,0
-0.003044942,0.00032391379999999973,0.0013225736,0.0004604922,0.00393029694,2.667,0,0
0.0002756760000000003,-0.0041421822,0.0013288934,0.0009245532000000001,0.0032899129400000005,2.668,0,0
0.004159956000000001,-0.0072483322,0.0008363732000000001,0.0014561892,0.0035303349399999997,2.669,0,0
0.0042351080000000004,-0.008960882,3.3629199999999986e-05,0.002537981,0.00253903494,2.67,0,0
0.004558204,-0.008921842000000001,-0.0005827288000000001,0.002271557,0.00115769494,2.671,0,0
0.004999866,-0.009191982000000001,-0.0010144330000000001,0.0012881946,0.001052985,2.672,0,0
0.00017612200000000013,-0.010562086000000002,-0.0013065922000000002,0.0014494816,0.00031232299999999993,2.673,0,0
-0.006195446,-0.011497974000000001,-0.0013282262000000001,0.001242517,-0.0015217149999999999,2.674,0,0
-0.007310310000000001,-0.011000914,-0.0012541382000000002,0.00011840899999999998,-0.002630093,2.675,0,0
-0.006652942000000001,-0.008020970000000002,-0.001166715,-0.00024152280000000004,-0.003028595,2.676,0,0
-0.006721052000000001,-0.00464055,-0.0010254998,-0.00013139680000000004,-0.0039421379999999995,2.677,0,0
-0.004632856,-0.0031945800000000007,-0.0005596598000000001,-0.0009745508000000002,-0.004145274,2.678,0,0
-0.000872678,-0.00397702,0.00034600220000000005,-0.0019520662000000002,-0.0029897226,2.679,0,0
0.0018583899999999997,-0.005565706,0.0012737702,-0.0023601742000000005,-0.0022052385999999998,2.68,0,0
0.005320478,-0.007754512,0.0015165920000000002,-0.0028888524,-0.0012851666000000001,2.681,0,0
0.009921028,-0.005232692000000001,0.0005642470000000001,-0.0031085780000000003,0.0008279113999999999,2.682,0,0
0.011854256,0.007547238000000001,-0.001283465,-0.0023378680000000003,0.0023561634000000002,2.683,0,0
0.011170928,0.020810238,-0.003357655,-0.0008818560000000001,0.002791412,2.684,0,0
0.009572536,0.025978558000000002,-0.004652455000000001,0.00044616199999999995,0.00350785,2.685,0,0
0.0062448140000000004,0.02481398,-0.004267002000000001,0.0016294999999999999,0.0032857418000000003,2.686,0,0
0.0017478740000000004,0.0176573,-0.0020719400000000004,0.002171536,0.0014190278000000003,2.687,0,0
-0.0022239060000000003,0.005023362,0.0006934659999999998,0.001615326,-0.0002991822,2.688,0,0
-0.005349088,-0.004973578,0.002018349,0.0009173954,-0.0012990022,2.689,0,0
-0.007026386000000001,-0.0064414120000000005,0.0012211230000000002,0.00025392759999999997,-0.0025346462,2.69,0,0
-0.008443984000000002,-0.0007752719999999996,-0.0004927570000000001,-0.0001848242000000001,-0.0033860320000000006,2.691,0,0
-0.010211004000000001,0.008052428,-0.0015520150000000001,-0.00020607620000000015,-0.002973398,2.692,0,0
-0.010636944,0.014536046000000002,-0.001451895,0.0002224212,-0.002469664,2.693,0,0
-0.008788948800000002,0.017308306000000002,-0.0002115540000000003,0.0006356918,-0.0027360020000000004,2.694,0,0
-0.0054204448,0.016435296000000002,0.00068542,0.00048523300000000006,-0.0023143242,2.695,0,0
-0.0016135308000000007,0.012822710000000001,0.0006461840000000002,0.00029869300000000005,-0.0013026733999999998,2.696,0,0
0.0019811632,0.007131780000000002,0.0007616460000000002,6.57706e-05,-0.0013118113999999999,2.697,0,0
0.0037619292,-0.0013336200000000002,-0.00026107400000000003,-0.00040878680000000007,-0.0006350034,2.698,0,0
0.0026611020000000003,-0.008876700000000001,-0.002368638,-0.0009696748000000001,0.0009384986000000001,2.699,0,0
-0.000691124,-0.012947196000000001,-0.0024060060000000005,-0.0012520802,0.0015260468000000001,2.7,0,0
-0.0022344240000000005,-0.015240430000000003,-0.00053668,-0.0014787584,0.001761278,2.701,0,0
-0.0009293719999999999,-0.015232932000000001,0.0008702200000000002,-0.001599548,0.0027463240000000005,2.702,0,0
0.0008546139999999994,-0.012326672,0.002518642,-0.001378916,0.0028806940000000005,2.703,0,0
0.004620926000000001,-0.00955532,0.005050696,-0.0013068982,0.0016333919999999996,2.704,0,0
0.008895972,-0.007177388,0.006928168,-0.0010126218,0.0010540614,2.705,0,0
0.010507358000000001,-0.005326488000000001,0.007088208000000001,-0.0006089088,0.00064029876,2.706,0,0
0.009537878,-0.004706676000000001,0.005403347000000001,-6.734680000000003e-05,-0.00070070524,2.707,0,0
0.006435264000000001,-0.0034881260000000007,0.0030992230000000003,0.0006223672,-0.0017466172400000001,2.708,0,0
0.0019178640000000005,-0.00198252,0.0011416030000000006,0.0010461034000000002,-0.00175943924,2.709,0,0
-0.0021200920000000005,-0.001250372,-0.000784971,0.0017143190000000002,-0.00207128864,2.71,0,0
-0.005136290000000001,-0.0008230620000000001,-0.0022898009999999997,0.002181698,-0.002415116,2.711,0,0
-0.008358996,-4.1928000000000104e-05,-0.00288364,0.0016397632,-0.0011634120000000004,2.712,0,0
-0.009463834,-0.00010149200000000012,-0.0028181020000000003,0.0007310912,0.00013857599999999985,2.713,0,0
-0.007147308000000001,-0.00045818400000000004,-0.002270762,0.00020393319999999985,0.0005522257999999999,2.714,0,0
-0.004310912000000001,0.00023277799999999995,-0.0011034319999999997,-0.0007809768,0.0017720257999999998,2.715,0,0
-0.0024659440000000007,-0.00016113399999999984,0.0002443060000000001,-0.0016640627999999998,0.0032920638,2.716,0,0
0.0009068640000000003,-0.00290784,0.0009963580000000001,-0.001206904,0.0035445638,2.717,0,0
0.005260178,-0.004106136000000001,0.0009361460000000001,-0.0006081677999999999,0.0034453417999999996,2.718,0,0
0.005231948,-0.0022162920000000008,0.0005954180000000001,-0.00039933439999999997,0.003954259999999999,2.719,0,0
0.0024345240000000004,-0.0013338580000000003,0.0002995280000000001,8.996360000000002e-05,0.003424056,2.72,0,0
0.0007197320000000002,-0.0007666620000000002,-0.0002697159999999999,0.0005323898,0.0019952600000000004,2.721,0,0
-0.000795642,0.0009243554,-0.001171824,0.0005112638,0.0013963870000000002,2.722,0,0
-0.003226336,0.0017530354000000001,-0.002215308,0.0008606396,0.0006330694000000001,2.723,0,0
-0.004391458,0.0019199254,-0.0031588140000000002,0.0016323082000000001,-0.0008348445999999999,2.724,0,0
-0.0029854540000000002,0.0027705634000000003,-0.0036281406000000004,0.0019158402,-0.0017165286000000001,2.725,0,0
-0.0021818452,0.0045113654,-0.0032077686000000004,0.0018251060000000002,-0.0021542846000000004,2.726,0,0
-0.0031649732000000002,0.006634179999999999,-0.0016085165999999997,0.0017722980000000003,-0.0032453696000000003,2.727,0,0
-0.004355533200000001,0.007965128,0.0007506893999999998,0.001248264,-0.0034586960000000003,2.728,0,0
-0.0032322272000000003,0.007497608,0.0025338314000000004,-3.945199999999993e-05,-0.0023213400000000003,2.729,0,0
-0.0006438272000000001,0.0065690620000000005,0.0032513700000000004,-0.001005026,-0.0018659482,2.73,0,0
0.001721466,0.005464426,0.0029738292000000004,-0.0017021960000000002,-0.0013321007999999997,2.731,0,0
0.00584518,0.0024325740000000007,0.0018563532,-0.0029699700000000006,8.266519999999996e-05,2.732,0,0
0.01075744,-0.0016026640000000004,0.0005155191999999999,-0.0038080240000000006,0.0009052612,2.733,0,0
0.011817452,-0.004110382,-0.0006671028000000002,-0.003404867400000001,0.0005890664000000001,2.734,0,0
0.0088258236,-0.005449046,-0.0013953046000000002,-0.0027310222000000006,0.0004110226,2.735,0,0
0.005874045600000001,-0.006583968,-0.001664789,-0.0019469832,0.00044874560000000016,2.736,0,0
0.0025283536000000003,-0.005934082,-0.001780299,-0.0004175432,-0.0006740344000000001,2.737,0,0
-0.0011249924000000001,-0.003969646,-0.002306419,0.0007487868,-0.0018502344000000002,2.738,0,0
-0.0033736524,-0.002810476,-0.0035183050000000002,0.0008452354000000001,-0.0019916196000000002,2.739,0,0
-0.005051042,-0.0019128702,-0.0056261052,0.0014473482000000003,-0.0016619956000000003,2.74,0,0
-0.006354144000000001,-6.91302e-05,-0.0075446720000000005,0.0028578932000000003,-0.0012763640000000003,2.741,0,0
-0.007250076000000001,0.0026345357999999998,-0.00792361,0.0033068791999999996,-0.0008458300000000001,2.742,0,0
-0.00619338,0.0041756518,-0.006923158199999999,0.0034686051999999997,-0.0003641800000000001,2.743,0,0
-0.0023720919999999993,0.004114183800000001,-0.004583034199999999,0.004083274,-0.00030911320000000003,2.744,0,0
0.0008846060000000002,0.0042623816,-0.0023777182,0.0034060714000000002,4.1802799999999965e-05,2.745,0,0
0.0015675080000000002,0.0034693016000000004,-0.0012333342,0.0014327793999999998,0.0009048967999999999,2.746,0,0
0.0010907520000000004,0.0008863136000000001,0.00020544979999999997,-0.0005845665999999998,0.0015359308,2.747,0,0
-0.00019631799999999915,-0.0016111604,0.002244652,-0.0023302906,0.0025049288000000003,2.748,0,0
-0.0017851939999999997,-0.0033921444,0.003990742,-0.0035855426,0.00409061,2.749,0,0
-0.0012772739999999997,-0.005733851999999999,0.006302066,-0.004429158,0.0045972800000000005,2.75,0,0
0.0023474240000000003,-0.007254694,0.009836742,-0.0048574099999999995,0.0033431844,2.751,0,0
0.006828184000000001,-0.00612106,0.012096260000000001,-0.0039079392,0.0027439862,2.752,0,0
0.008778672,-0.003817378,0.011285312,-0.0021716132000000003,0.0025912962,2.753,0,0
0.007596963200000002,-0.0014019464,0.008203456,-0.00041167320000000006,0.0013181026,2.754,0,0
0.0053695444000000005,0.0005552876,0.004592148,0.0019510048000000002,0.0006661966,2.755,0,0
0.0016444563999999998,0.0020784116000000003,0.0015935480000000002,0.0038821408000000003,0.0006852383999999999,2.756,0,0
-0.0033901036000000004,0.0029841336,-0.0004034579999999999,0.004691272,-0.0006994534000000001,2.757,0,0
-0.0059565316,0.0036734116000000008,-0.0008403880000000001,0.004654218000000001,-0.0031918434,2.758,0,0
-0.006446352800000001,0.004987392000000001,-0.0002143954000000002,0.0036856662000000007,-0.0051492118,2.759,0,0
-0.006585428,0.006670950000000001,0.0005876445999999999,0.0023626454000000006,-0.0072171558000000005,2.76,0,0
-0.004727774,0.008082408000000001,0.0008015647999999999,0.0011734672000000002,-0.008821724,2.761,0,0
-0.0012597420000000005,0.007905764000000001,-0.00013796220000000011,2.1273199999999998e-05,-0.007959952,2.762,0,0
0.0008125280000000001,0.006033747000000001,-0.0009620442000000001,-0.0005815410000000001,-0.006285216000000001,2.763,0,0
0.0009238320000000001,0.0028431750000000003,-0.0014926968000000002,-0.0010200992,-0.005078438,2.764,0,0
0.0010286240000000001,-0.0018895569999999996,-0.0025780768,-0.0023599024,-0.0028478,2.765,0,0
0.0010177780000000002,-0.007742435000000001,-0.003757339,-0.0030027762,-5.798999999999995e-05,2.766,0,0
0.000266626,-0.012511799,-0.004501756000000001,-0.0023954548,0.0017378180000000001,2.767,0,0
-0.00016236920000000003,-0.014332134,-0.004151510000000001,-0.0021386029999999998,0.003647244,2.768,0,0
6.0202400000000005e-05,-0.013095606000000001,-0.0021489580000000003,-0.00173230542,0.005950238000000001,2.769,0,0
8.240840000000004e-05,-0.009090130000000002,-0.0006867819999999999,-0.00063827382,0.006716528000000001,2.77,0,0
-0.0005222896,-0.003656134,-0.001369,-0.00013371782000000002,0.005850806000000001,2.771,0,0
-0.0007499396,0.0007842340000000006,-0.001946504,-0.00027492368,0.004952042,2.772,0,0
-0.0006042756,0.0022772120000000002,-0.0023710731999999997,0.00018422072000000002,0.00361828,2.773,0,0
-0.0009368192,0.0015885120000000005,-0.0027456112000000003,0.00114413514,0.0013191000000000001,2.774,0,0
-0.0016204032,0.003156476000000001,-0.0012022712,0.0023662975400000003,-0.000545148,2.775,0,0
-0.0021881952,0.00807136,0.0023345108,0.00375662954,-0.0012979480000000002,2.776,0,0
-0.0022775632,0.012902172,0.0058381048000000005,0.004389496,-0.0022686019999999998,2.777,0,0
-0.002263704,0.016769928000000003,0.007431469999999999,0.0035935340000000007,-0.003308966,2.778,0,0
-0.0013302059999999998,0.018427612,0.007024138,0.0016972080000000004,-0.0025819248000000005,2.779,0,0
0.0007711320000000002,0.015175078,0.004694614,-0.0006344820000000001,-0.0018420290200000002,2.78,0,0
0.002118136,0.007629352,0.0013661599999999997,-0.003421324,-0.0019614370200000003,2.781,0,0
0.0022561388000000003,-0.0010803879999999998,-0.002628094,-0.0055155740000000005,-0.0010856768200000002,2.782,0,0
0.0024994848000000004,-0.008181448000000001,-0.005599996,-0.005967298000000001,0.00011696117999999999,2.783,0,0
0.0027433088,-0.011957360000000002,-0.005833632,-0.005884304000000001,0.00013852557999999995,2.784,0,0
0.0016267644,-0.012984706000000002,-0.004260576,-0.005784382,0.00042227780000000004,2.785,0,0
0.0010765284000000001,-0.012383654000000001,-0.0018396260000000005,-0.0045057100000000004,0.0017063718000000002,2.786,0,0
0.0022535636000000003,-0.00972395,0.0007057040000000001,-0.002030856,0.0018871496,2.787,0,0
0.0027298356,-0.006109453200000001,0.0025359480000000005,0.00023575200000000031,0.0015016764,2.788,0,0
0.0021154902,-0.0032042772000000002,0.002631876,0.0025654760000000006,0.0019848268,2.789,0,0
0.0014254386,-0.0003550412,0.002343568,0.00465732,0.0017899100000000002,2.79,0,0
0.0007556006,0.0023515387999999996,0.001850366,0.005424222,0.0002153200000000003,2.791,0,0
0.00011214459999999999,0.0027924227999999995,0.0011586695,0.004633746,-0.0010073319999999999,2.792,0,0
-0.0018713273999999998,0.0028175059999999996,0.0010058155,0.00339736,-0.0017015308,2.793,0,0
-0.005636790000000001,0.00519757,0.0007952639,0.002466834,-0.0029681067999999997,2.794,0,0
-0.010206692,0.00588055,0.0006967125,0.001537767,-0.00324364,2.795,0,0
-0.016653912,0.0036904520000000007,0.0006177115,0.001442855,-0.001739822,2.796,0,0
-0.021674196000000003,0.0025809280000000006,0.00033910000000000006,0.001800203,-0.0007173971999999998,2.797,0,0
-0.018864832,0.0013503620000000006,-0.000438144,0.0015063874,0.00039357880000000006,2.798,0,0
-0.008536912,-0.002127986,-0.0010708924,0.0008515518,0.0024005548000000003,2.799,0,0
0.0036448079999999994,-0.004192718,-0.0014666610000000002,0.0005921812,0.0033100528000000002,2.8,0,0
0.015172168,-0.0034932340000000004,-0.0017052060000000001,-3.9946800000000015e-05,0.0030526308,2.801,0,0
0.023915568,-0.0029276266000000007,-0.0015628378,-0.0009169148000000001,0.003141612,2.802,0,0
0.02469096,-0.0023923826,-0.0015928118,-0.0008081858000000001,0.0027297321999999995,2.803,0,0
0.018207048,-0.0013788085999999998,-0.0016861378000000002,-0.0004252882,0.0007303822,2.804,0,0
0.010553088,-0.0007595566,-0.0017502398,-0.0004144134,-0.0009330518,2.805,0,0
0.004548154000000001,-0.0010366822,-0.0022155458,-0.00045741940000000006,-0.0019043238000000001,2.806,0,0
-0.0004333140000000005,-0.0008405187999999998,-0.002985838,-0.00015818370000000005,-0.0031988138000000003,2.807,0,0
-0.0029240192,0.00036999320000000006,-0.003302862,-0.00027483929999999997,-0.004337850000000001,2.808,0,0
-0.0035457751999999998,0.0011058872000000001,-0.003299748,-0.0006977923000000001,-0.004467628,2.809,0,0
-0.0033165912,0.0010854524000000001,-0.003170902,-0.00043633850000000004,-0.00413612,2.81,0,0
0.00030742279999999996,0.000645524,-0.0026344725999999995,-0.0004033365,-0.004074520000000001,2.811,0,0
0.0045953508,-0.0006191628,-0.0018328880000000002,-0.0013193122,-0.003163131,2.812,0,0
0.004863872000000001,-0.0022116488,-0.00128893,-0.0018701040000000003,-0.0016829790000000002,2.813,0,0
0.0048658600000000005,-0.0034397408,-0.00122237,-0.002028835,-0.0006242469999999999,2.814,0,0
0.006599684000000001,-0.00404309,-0.00106310542,-0.002721536,0.000601657,2.815,0,0
0.004748396,-0.00279919,-0.00033515482,-0.0026050379999999996,0.002609927,2.816,0,0
0.0008301300000000002,-0.0009716360000000001,0.0006744345800000001,-0.0016363686,0.003947672,2.817,0,0
-0.001203614,0.0005892979999999998,0.00192425058,-0.0011968114,0.004245574,2.818,0,0
-0.0038399740000000003,0.0022709419999999998,0.00336553458,-0.0009927966,0.005007618,2.819,0,0
-0.007295642,0.0030416958,0.004076986,-0.0002276,0.00500394,2.82,0,0
-0.009442644,0.0025857918,0.00380326,0.000470074,0.00358202,2.821,0,0
-0.010660962,0.0020575342,0.0030553384,0.0007287266000000001,0.0022864548,2.822,0,0
-0.009394636,0.0019857822000000002,0.002313716,0.0014322713999999999,0.0008364388,2.823,0,0
-0.006869378,0.0025713822,0.0014425866,0.0023321166,-0.0013693432,2.824,0,0
-0.006081003999999999,0.0039680564,0.0006129942,0.00252112,-0.0028677592,2.825,0,0
-0.004855430000000001,0.0045642544,0.000293053562,0.002406976,-0.0034508012000000004,2.826,0,0
-0.0033520140000000004,0.00414543,0.00028590456200000005,0.00252177,-0.0040933540000000004,2.827,0,0
-0.0030347480000000003,0.002788516,0.000381762962,0.0015437360000000002,-0.00403417,2.828,0,0
-0.0027182882,0.0008112999999999996,0.0006593003620000001,-9.34060000000002e-05,-0.002588994,2.829,0,0
-0.0021059702,-0.0010217720000000002,0.0009730627620000001,-0.000665746,-0.0007256160000000001,2.83,0,0
-0.0019216402000000001,-0.0026200700000000004,0.000913576,-0.0014038600000000003,0.0009355000000000001,2.831,0,0
-0.0013039762000000002,-0.0031568860000000002,0.000798099,-0.002760876,0.0029572780000000003,2.832,0,0
0.0004978278,-0.00302308,0.0004530446,-0.003030376,0.0048979720000000004,2.833,0,0
0.001954574,-0.0022953594,-0.00011108139999999994,-0.0023090502,0.00565277,2.834,0,0
0.003343032,-0.0010569374000000001,-0.000476868,-0.0020117436,0.0055325520000000005,2.835,0,0
0.006066458,-0.00030147539999999986,-0.0008285586000000001,-0.0016349602,0.005226078,2.836,0,0
0.007786502000000001,0.00043072960000000023,-0.0010602482,-0.00038543020000000004,0.0039821325800000005,2.837,0,0
0.005989952,0.0014442364000000001,-0.0007359577999999999,0.0006887378000000001,0.00208593058,2.838,0,0
0.003328648,0.0016694398000000003,-0.0005914291999999999,0.001132542,0.0004109005799999998,2.839,0,0
0.0017206799999999996,0.0015204498000000002,-0.0013450466,0.0017872214,-0.00197523542,2.84,0,0
-0.0007206900000000004,0.0033185938,-0.0018189725999999999,0.002426272,-0.00471091942,2.841,0,0
-0.0027447332,0.0059279248,-0.0019545874,0.0022477282,-0.006335442,2.842,0,0
-0.0021791092,0.007002126,-0.0016250814000000001,0.0020308242,-0.007139257999999999,2.843,0,0
-5.647120000000017e-05,0.007635984,-0.0003586939999999997,0.0018430110000000003,-0.007399698,2.844,0,0
0.0023111188,0.007411868,0.0005639011000000003,0.000835555,-0.006112134000000001,2.845,0,0
0.0035027468,0.004329762,0.0005101051000000001,-0.00032647899999999996,-0.00374082,2.846,0,0
0.0024388020000000003,-0.0005579580000000005,-0.0001306349,-0.0009383312,-0.001476354,2.847,0,0
0.0009826100000000003,-0.005199504000000001,-0.0010926809,-0.0015745872000000002,0.000697018,2.848,0,0
0.00043045419999999994,-0.009343842000000002,-0.0015823589000000004,-0.0023929880000000004,0.002893136,2.849,0,0
-0.0008201994000000001,-0.013544246000000001,0.0001092039999999999,-0.002633026,0.00444841,2.85,0,0
-0.0022477634000000004,-0.0172898,0.002991894,-0.0022792460000000004,0.005002924000000001,2.851,0,0
-0.0013514554,-0.0197737,0.004743808,-0.0015132700000000002,0.005722362000000001,2.852,0,0
0.0017501986000000003,-0.02211942,0.0049572056,-0.000685226,0.005981576000000001,2.853,0,0
0.0049018564,-0.0248712,0.0037298336000000003,0.0002782359999999999,0.0044333260000000005,2.854,0,0
0.007326718,-0.02678922,0.0020078976,0.001312016,0.0025296480000000007,2.855,0,0
0.008975692,-0.02793368,0.0004370755999999999,0.0019196080000000002,0.00101671,2.856,0,0
0.00875327,-0.025518879999999997,-0.0006939244000000001,0.002391944,-0.001425446,2.857,0,0
0.005108922,-0.012343179999999999,-0.0010098260000000001,0.002611636,-0.00404991,2.858,0,0
-0.001216778,0.012015580000000001,-0.0004892606200000001,0.0024300924,-0.005090212,2.859,0,0
-0.006968478,0.037549540000000006,-0.00028471842,0.0021378143999999997,-0.005378124,2.86,0,0
-0.010487206,0.055512000000000006,-0.0005196856200000001,0.001834722,-0.005679428,2.861,0,0
-0.011675538,0.06280294,-3.0426200000000187e-06,0.00072346,-0.0047371413999999995,2.862,0,0
-0.011140986,0.056362694000000005,0.00031528898000000004,-0.000481278,-0.0023685294000000004,2.863,0,0
-0.010069815999999999,0.036971528000000003,0.00013488680000000005,-0.0007748094,6.341659999999972e-05,2.864,0,0
-0.009378576000000001,0.014736188,9.08560000000002e-06,-0.001163273,0.0024867205999999998,2.865,0,0
-0.008283034000000002,-0.0004041520000000005,-8.244679999999999e-05,-0.0013699916000000003,0.0047290106,2.866,0,0
-0.005939116,-0.007352312,-0.0003948142,-0.0011335538,0.005363478,2.867,0,0
-0.004439808,-0.008675386,-0.0017021158,-0.0009793438,0.0047399402,2.868,0,0
-0.002241278,-0.0078275866,-0.004001997,-0.0009142324000000001,0.004202018199999999,2.869,0,0
0.002280562,-0.006831960600000001,-0.006201118,-0.0007149612000000001,0.0028394546,2.87,0,0
0.0043772540000000006,-0.0053602206,-0.0075077524000000005,-0.0006789804000000001,0.0004883365999999999,2.871,0,0
0.0039323480000000004,-0.0048612986,-0.00615362,-0.0005062274000000001,-0.0011759414,2.872,0,0
0.005350216,-0.0063184886,-0.0013213800000000005,0.00039734860000000005,-0.0022594216,2.873,0,0
0.006436402,-0.0077911280000000005,0.0036372,0.0010908722000000002,-0.0043282156,2.874,0,0
0.005796326000000001,-0.008241354,0.00675506,0.0015395606,-0.006342001999999999,2.875,0,0
0.007222172000000001,-0.009127094,0.008332822,0.0018357978,-0.006226926,2.876,0,0
0.00825378,-0.009915816000000001,0.007319052,0.0017164538,-0.005748204,2.877,0,0
0.0067100779999999995,-0.009973374,0.0043098220000000005,0.0012472671999999997,-0.005311374000000001,2.878,0,0
0.005645254,-0.010234396000000002,0.0018686824,0.0004665011999999999,-0.002807266,2.879,0,0
0.0046400880000000005,-0.010045786000000001,0.0007013281999999999,-0.0002754548,0.0005618820000000001,2.88,0,0
0.0021334939999999997,-0.008197944,7.948819999999997e-05,-0.0010315457999999999,0.0031347220000000004,2.881,0,0
-0.000271622,-0.00577509628,-0.0008759778000000002,-0.0020089386000000002,0.006063494000000001,2.882,0,0
-0.0009205639999999999,-0.00465637828,-0.0025818598,-0.0029022880000000003,0.008418618000000001,2.883,0,0
-0.0013448759999999998,-0.0035892522800000004,-0.0039795802,-0.003273026,0.008282332,2.884,0,0
-0.0019052782,-0.0019587456800000003,-0.004213672,-0.0031530166000000004,0.0074731780000000005,2.885,0,0
-0.0007597361999999999,-0.0018632936800000001,-0.003453772,-0.0021228286000000004,0.006628188,2.886,0,0
0.0008318418000000001,-0.0028576154,-0.0007231019999999998,-0.0005583586000000001,0.004365548,2.887,0,0
0.00022254380000000002,-0.0017802314000000003,0.00276779,0.0005613794,0.001409286,2.888,0,0
-0.0014152642000000003,0.0006215566000000001,0.0039590362,0.0013465114000000002,-0.0004630560000000001,2.889,0,0
-0.0029741460000000004,0.002306532,0.0032106122000000008,0.002007654,-0.0021474300000000005,2.89,0,0
-0.004938650000000001,0.004499732,0.0005711182000000003,0.002258706,-0.004516352,2.891,0,0
-0.005814082000000001,0.00638708,-0.003995303800000001,0.002018202,-0.005701998,2.892,0,0
-0.0047932906200000005,0.0059172962,-0.007693583800000001,0.0023006040000000004,-0.005236482000000001,2.893,0,0
-0.00252781462,0.0039979802,-0.007493278200000001,0.0030651800000000007,-0.0041580618000000005,2.894,0,0
0.00028844138000000007,0.0022777629999999995,-0.003503928200000001,0.0029616620000000003,-0.0025853638,2.895,0,0
0.00261614338,0.000998519,0.0015174517999999998,0.0021975792000000004,-0.00020311379999999983,2.896,0,0
0.0035892093799999997,0.0002596266,0.0050881458,0.0017314650000000002,0.0017894282000000005,2.897,0,0
0.003202432,-0.0006914256000000001,0.0067126962,0.0009112210000000001,0.003030840200000001,2.898,0,0
0.0005153739999999994,-0.0021948476,0.0058464484,-0.000777423,0.0036830740000000006,2.899,0,0
-0.0031246960000000006,-0.0034158264,0.0016167303999999995,-0.001939535,0.0035205020000000004,2.9,0,0
-0.0062897180000000006,-0.0029704204000000002,-0.0021738516,-0.0024384522,0.0028759300000000005,2.901,0,0
-0.009685679999999999,-0.0008768219999999998,-0.0029735742,-0.0030766780000000002,0.0022387160000000004,2.902,0,0
-0.008616414000000001,0.001145934,-0.0022278085999999997,-0.00325805,0.0018596320000000002,2.903,0,0
-0.0018718340000000002,0.003447706,-0.0007840165999999998,-0.0025270324000000004,0.0005493539999999999,2.904,0,0
0.0035938260000000005,0.0052755300000000005,0.0008415814000000001,-0.0018552338000000002,-0.000511114,2.905,0,0
0.007178322000000001,0.004596769200000001,0.001985557,-0.0009818098,-0.000621281,2.906,0,0
0.012008602,0.0030876332000000003,0.0017397622000000002,0.0010806722,-0.0012866870000000001,2.907,0,0
0.012602270000000002,0.0038615032000000006,0.00041689820000000014,0.0027868322000000004,-0.002298329,2.908,0,0
0.0078065040000000014,0.0050902332000000005,-0.0008948878000000001,0.0036065526,-0.002770395,2.909,0,0
0.004976069600000001,0.0049369972,-0.0016134978,0.004088133999999999,-0.0033186970000000007,2.91,0,0
0.004092479600000001,0.003907913999999999,-0.0020855774,0.0038664502,-0.004516366000000001,2.911,0,0
0.0022604496000000005,0.00102629,-0.0017795260000000002,0.0025710146,-0.004415956,2.912,0,0
0.0013496156,-0.004048114,0.00020384199999999987,0.0007578145999999998,-0.0030558280000000005,2.913,0,0
0.0018373976000000001,-0.009421183999999999,0.0020295540000000003,-0.0008260254000000001,-0.0015547080000000001,2.914,0,0
0.0013370340000000002,-0.012279188000000002,0.0026814478000000003,-0.0021949094000000002,0.0006269439999999999,2.915,0,0
-0.0005448419999999998,-0.011763246,0.0035249418000000005,-0.0033767316,0.003034838,2.916,0,0
-0.0027765579999999997,-0.00833546,0.0039403558,-0.004098418,0.0041816579999999996,2.917,0,0
-0.005249754000000001,-0.002965859999999999,0.0025788402000000003,-0.004183444000000001,0.004298362,2.918,0,0
-0.0070025239999999996,0.003294560000000001,0.0012939278000000001,-0.0043090540000000005,0.004711888,2.919,0,0
-0.008736686,0.00863436,0.0011659597600000003,-0.004015762,0.003957162,2.92,0,0
-0.011554100000000001,0.012382026,0.00058255376,-0.0031979100000000004,0.001990794,2.921,0,0
-0.013878254,0.01457608,2.072055999999999e-05,-0.002450626,0.000805348,2.922,0,0
-0.014973894,0.01559498,-0.00051914984,-0.001219522,-0.000343006,2.923,0,0
-0.014431668,0.01571198,-0.00207026344,0.000521664,-0.002271352,2.924,0,0
-0.01067127,0.011625704,-0.003990519200000001,0.001855168,-0.003750268,2.925,0,0
-0.002369910000000001,0.0011225039999999999,-0.0044371212,0.002469382,-0.003926222,2.926,0,0
0.00896063,-0.013012476000000002,-0.002977832,0.0025777704,-0.00410134,2.927,0,0
0.01882295,-0.027037676000000004,-0.0013750739999999994,0.0017622344000000002,-0.004323784000000001,2.928,0,0
0.023208838,-0.040467896,0.0007525080000000003,0.0004425923999999998,-0.0028148400000000007,2.929,0,0
0.022838614,-0.0508106,0.003366268000000001,-0.00044015960000000007,-0.000640226,2.93,0,0
0.020909594,-0.05463342000000001,0.004276356,-0.0008267590000000002,0.000946632,2.931,0,0
0.016947834000000002,-0.0488919,0.0026044964000000006,-0.0013371754,0.003099922,2.932,0,0
0.010463347200000002,-0.029101580000000002,0.0007483884000000001,-0.0014494834,0.005084854,2.933,0,0
0.0044343472,0.0010811599999999977,-0.0008121116000000001,-0.0008600534,0.0053560759999999995,2.934,0,0
-0.0008465468000000004,0.031716259999999996,-0.0028719956000000002,-0.0007711336,0.004995708,2.935,0,0
-0.0086894468,0.05687694,-0.0046029416,-0.0006054446000000001,0.004666376000000001,2.936,0,0
-0.017560826800000002,0.07035788000000001,-0.00655796,0.0006255434,0.0031097012,2.937,0,0
-0.02162588,0.06433018,-0.008459584000000001,0.0019524094000000001,0.0010466232,2.938,0,0
-0.02091179,0.044351618,-0.009097086,0.0025257654000000003,-0.0002518628000000001,2.939,0,0
-0.016769244599999997,0.02441897,-0.007410958,0.0031947776,-0.0019048208000000003,2.94,0,0
-0.008515544600000001,0.009744434,-0.0037820599999999994,0.0038658060000000003,-0.0042504908,2.941,0,0
-0.0007667326000000006,0.0011220548000000002,0.0015865800000000002,0.0034034680000000006,-0.00566468,2.942,0,0
0.0029662048,-0.0018361896,0.0069816800000000005,0.0024647804000000008,-0.005702980000000001,2.943,0,0
0.004571048800000001,-0.0014532692,0.0096868,0.0019303815999999999,-0.005866700000000001,2.944,0,0
0.0044390034000000005,0.0012839788,0.0094706694,0.001201038,-0.005390992000000001,2.945,0,0
0.0016740043999999997,0.0041997748,0.006810435399999999,-0.00010972000000000005,-0.003273576,2.946,0,0
-0.0010110036,0.004858478,0.0033707916000000004,-0.001328416,-0.0013269679999999998,2.947,0,0
-0.0026016570000000003,0.0039845804,0.0010266256000000002,-0.0024605184,0.00020551200000000014,2.948,0,0
-0.003296045,0.001073161999999999,0.0005023096,-0.0037790756,0.00213876,2.949,0,0
-0.002590791,-0.005745138,0.0012216922,-0.004649996,0.003412046,2.95,0,0
-0.0011491499999999998,-0.013582498,0.0018608382000000001,-0.004971116,0.00318886402,2.951,0,0
0.0024258460000000006,-0.019343962,0.0006505439999999999,-0.005235027999999999,0.00224184202,2.952,0,0
0.006655302,-0.02277464,-0.0011636600000000002,-0.004783048,0.00088718402,2.953,0,0
0.008783244,-0.022672400000000002,-0.0018013980000000003,-0.0032035559999999998,-0.00124314998,2.954,0,0
0.009059242,-0.019496318000000002,-0.002793497,-0.0015637119999999997,-0.00291921398,2.955,0,0
0.0074508928,-0.014844798,-0.0036717549999999996,9.518400000000011e-05,-0.0031165905999999996,2.956,0,0
0.004022656800000001,-0.009500649199999999,-0.0034376850000000002,0.0029069480000000003,-0.0033102786,2.957,0,0
0.0015884686,-0.004225563200000001,-0.0037297930000000003,0.005788356,-0.0036217886,2.958,0,0
0.0007545566,-0.0002699232000000001,-0.005168429,0.00707758,-0.0027196546000000004,2.959,0,0
-0.0009250214000000001,0.0023921448,-0.005086207400000001,0.007571616,-0.0017939692,2.96,0,0
-0.0017172722000000002,0.0046871908,-0.002730303400000001,0.007480488,-0.0018971366,2.961,0,0
-0.0010179272000000001,0.0056786119999999995,-0.00037380540000000063,0.0057289298,-0.0012579006000000002,2.962,0,0
-0.0012330724000000001,0.005595538000000001,0.0013117843399999998,0.0029704258000000003,0.00022998139999999995,2.963,0,0
-0.0016828114000000001,0.005301398000000001,0.0020372723399999996,0.0010167538000000003,0.0011412034,2.964,0,0
-0.0013568834,0.00386086,-0.00010898626000000041,-0.0004079982000000001,0.002477084,2.965,0,0
-0.0013255894,0.00041455599999999995,-0.00444188426,-0.0017102602,0.0042966820000000005,2.966,0,0
-0.0014673551,-0.0036730340000000004,-0.0062915622599999995,-0.002020426,0.005401968000000001,2.967,0,0
-0.0011398763000000003,-0.007511206000000001,-0.0038304940000000003,-0.001832054,0.005850880000000001,2.968,0,0
6.694870000000007e-05,-0.011240706000000001,0.0008476320000000005,-0.0019424180000000002,0.005989206,2.969,0,0
0.0031654067,-0.013211858,0.005575812,-0.002227648,0.0051698759999999995,2.97,0,0
0.0056357747,-0.011721016000000003,0.009484700000000002,-0.0021956840000000003,0.003091644,2.971,0,0
0.005259697400000001,-0.007054986000000002,0.011037388000000002,-0.0015117840000000002,0.0014652199999999997,2.972,0,0
0.003836167999999999,-0.0014635860000000002,0.009032266,-0.0005928720000000003,1.1606000000000051e-05,2.973,0,0
0.0012179680000000005,0.004279954,0.005284526,0.00016486400000000013,-0.002509018,2.974,0,0
-0.00331357,0.009629014,0.002411312,0.001095304,-0.004496308,2.975,0,0
-0.006871288,0.012358230000000001,0.0011088133999999999,0.0017300996000000003,-0.004935500000000001,2.976,0,0
-0.007748004,0.012365830000000001,0.00024862180000000003,0.0013035142,-0.00540497,2.977,0,0
-0.0073295059999999995,0.011738508000000002,-0.0006262082000000001,1.8092200000000003e-05,-0.005808038000000001,2.978,0,0
-0.005827420000000001,0.01050922,-0.0010842682,-0.0013162038,-0.004068286000000001,2.979,0,0
-0.0033652120000000002,0.008363688000000001,-0.0008921230000000001,-0.0020446258,-0.001708016,2.98,0,0
-0.0011414960000000003,0.0066667980000000016,-0.0008975156,-0.0024621174,0.00013632400000000006,2.981,0,0
0.00080345,0.0045970820000000015,-0.0011581598,-0.00271729,0.00290329,2.982,0,0
0.0023360760000000003,0.000790284,-0.0011286818,-0.0023586279999999998,0.005429066000000001,2.983,0,0
0.0025519606,-0.004533668,-0.0011985798,-0.0016810000000000002,0.006183244000000001,2.984,0,0
0.0024087526000000003,-0.010031996000000001,-0.001365157,-0.00124948118,0.0063539320000000005,2.985,0,0
0.0024104706000000003,-0.014258686,-0.0015088238,-0.00050390718,0.0066187200000000015,2.986,0,0
0.0018028602,-0.015624556000000001,-0.0013676832,0.00044058082,0.005279838,2.987,0,0
0.0005840142000000001,-0.013569521200000002,-0.0008680399999999999,0.00101387682,0.0030474720000000007,2.988,0,0
-0.0009379183999999999,-0.0094817192,-0.00033310199999999994,0.0017331508200000001,0.0010700179999999998,2.989,0,0
-0.0027566704000000003,-0.0039173872000000005,-0.00016443119999999997,0.0025548280000000003,-0.001502466,2.99,0,0
-0.0046210664,0.0016552908000000005,-0.0006429972,0.0028795620000000004,-0.004353806,2.991,0,0
-0.0065638860000000005,0.0057305068,-0.001397682,0.0027707340000000004,-0.006211526,2.992,0,0
-0.007942198,0.008518412000000001,-0.0016991778000000001,0.002535898000000001,-0.006573688,2.993,0,0
-0.005577756,0.009984328,-0.0011295778000000004,0.0020444860000000003,-0.006489076,2.994,0,0
-0.001098505999999999,0.010116106000000001,-0.00024183060000000016,0.0009665700000000001,-0.005801942000000001,2.995,0,0
0.0024009340000000004,0.010157968000000002,0.0005393473999999998,-0.00048230199999999994,-0.0037262120000000004,2.996,0,0
0.006611228,0.00971743,0.0012634346000000001,-0.001576532,-0.001815734,2.997,0,0
0.010690646000000002,0.007640642000000002,0.0012089872000000002,-0.0019981540000000002,-0.0008962525200000001,2.998,0,0
0.010909220000000002,0.0051813020000000005,0.0003201391999999999,-0.0021888970000000004,0.0008001634800000001,2.999,0,0
0.008778946000000003,0.0013868520000000005,-0.0006686808000000001,-0.0020545502,0.00257847748,3.0,0,0
0.006792799600000001,-0.003212868,-0.0010741364,-0.0011538342,0.0027094454800000002,3.001,0,0
0.003895035600000001,-0.006283657999999999,-0.0005099436000000001,-0.00019480820000000005,0.00289045948,3.002,0,0
0.0015607222000000003,-0.008488176,0.00031496439999999996,0.00038882359999999993,0.0036465740000000005,3.003,0,0
-0.00047981180000000013,-0.008976916000000001,0.0005952524,0.0008593706,0.0030001230000000004,3.004,0,0
-0.0028528818,-0.006525754,0.0007534038000000001,0.000901917,0.0017736290000000005,3.005,0,0
-0.0035776734000000005,-0.0038621161999999997,0.001089465,0.0005566884,0.0008990890000000002,3.006,0,0
-0.0028040674000000005,-0.0027125708,0.0008587990000000002,0.0008495844,-0.00047372699999999996,3.007,0,0
-0.001892046,-0.0004333548000000001,0.00032312420000000006,0.0012402206,-0.0017125929999999999,3.008,0,0
-0.0010978880000000004,0.0025856872000000006,0.00042578680000000005,0.0007606186,-0.0019973804,3.009,0,0
0.00012602279999999994,0.0042037972000000005,0.0007552554000000001,0.0006558934000000001,-0.0017735714000000002,3.01,0,0
0.00034548879999999997,0.005013637400000001,0.00033605580000000004,0.0004646180000000001,-0.0019852234,3.011,0,0
-0.0015793731999999999,0.005626430000000001,-0.00016852620000000002,-0.00106973,-0.0014626630000000001,3.012,0,0
-0.0049095212,0.005487538000000001,-7.757980000000007e-05,-0.002311116,-0.00024064500000000016,3.013,0,0
-0.0076191212000000005,0.004210912,-1.8910600000000008e-05,-0.002433288,0.0005033233999999999,3.014,0,0
-0.008926584000000001,0.002275084,8.250139999999996e-05,-0.002536038,0.0015787044000000001,3.015,0,0
-0.009582598000000001,-0.0005393600000000002,0.0005888414,-0.002560478,0.0031022424000000004,3.016,0,0
-0.006653376,-0.0029450760000000005,0.0005491674000000001,-0.0016739786,0.00377766,3.017,0,0
0.0004300639999999991,-0.003982234,-0.0003383802000000001,-0.0008452062,0.003258234,3.018,0,0
0.0063526039999999995,-0.005115572000000001,-0.0010071440000000002,-0.0008045582,0.0026638006000000002,3.019,0,0
0.008852574,-0.005979764000000001,-0.0015124506000000002,-0.0005827704000000001,0.0014548925999999997,3.02,0,0
0.010981857999999999,-0.0056270800000000004,-0.0017289292000000002,-0.00018737399999999997,-0.0004566853999999998,3.021,0,0
0.011072652,-0.005857981999999999,-0.0009173612000000002,-6.78852e-05,-0.0018229294,3.022,0,0
0.0066251516,-0.007313324000000001,0.0006582988,0.00010004639999999993,-0.0025027974000000003,3.023,0,0
0.0015089215999999996,-0.006144742,0.0018126208000000003,0.0013337184000000001,-0.0031438620000000003,3.024,0,0
-0.0024561524,-0.0020300339999999996,0.0021089028,0.0027539926000000004,-0.003342326,3.025,0,0
-0.0033270280000000005,0.0012150960000000006,0.0020750734000000003,0.0028989638000000003,-0.0024594252,3.026,0,0
-0.0015674639999999997,0.0045646720000000005,0.0013859692,0.0024951296,-0.0021057412,3.027,0,0
-0.0006978455999999991,0.009015294000000002,0.00019661320000000017,0.0016837036000000001,-0.0020501612,3.028,0,0
0.0003318663999999998,0.011209336000000002,-0.00038691266000000007,-0.0001236624,-0.0008679852000000002,3.029,0,0
0.0018774784000000003,0.010200546000000001,-0.00046121886,-0.0023256064,0.0005256688,3.03,0,0
-0.0002659480000000002,0.009694932000000002,-0.0007593088600000001,-0.0035305840000000002,0.001782296,3.031,0,0
-0.004566364000000001,0.00920626,-0.0010456646600000002,-0.004001608,0.00388477,3.032,0,0
-0.003349962,0.005395392,-0.00127548066,-0.003836454,0.005926276,3.033,0,0
0.0010232759999999996,0.0008940440000000001,-0.0017014708000000001,-0.002764742,0.005958194,3.034,0,0
0.003467912,-0.0023829740000000004,-0.0017940964000000002,-0.001622442,0.0049656380000000005,3.035,0,0
0.0054898146,-0.006269568,-0.0012949294000000004,-0.00021399999999999994,0.003949209600000001,3.036,0,0
0.0069281426,-0.009146942000000002,-0.0003606074000000001,0.001569596,0.0018985215999999998,3.037,0,0
0.005298646600000001,-0.0079447774,0.0009460146,0.003133602,-0.00033251639999999996,3.038,0,0
0.0012790666000000003,-0.0047700694,0.0019742966,0.0038445000000000003,-0.0011318800000000003,3.039,0,0
-0.0022947814,-0.0012038254000000005,0.002284755,0.00419004,-0.0020160020000000002,3.04,0,0
-0.004768944000000001,0.0034711046000000002,0.0021878216,0.004506372,-0.0039370396,3.041,0,0
-0.006078772000000001,0.006531280600000001,0.0018224142000000001,0.003908836,-0.0054136876,3.042,0,0
-0.007300274,0.0065030636,0.0009831898000000003,0.0028906260000000003,-0.0061206896,3.043,0,0
-0.007923794,0.0042167156,9.034780000000001e-05,0.0021583518,-0.00665378,3.044,0,0
-0.006568588,-0.00010864039999999983,-0.00041533019999999996,0.0013976654000000001,-0.00596121,3.045,0,0
-0.005166126000000001,-0.005117470400000001,-0.0009758318,0.0004742814000000001,-0.003581,3.046,0,0
-0.004224031800000001,-0.0083424484,-0.0015991124000000001,-8.313400000000001e-05,-0.00124623,3.047,0,0
-0.0027673618000000006,-0.008743812,-0.001926238,-0.000686442,0.0005998979999999999,3.048,0,0
-0.0009018298000000001,-0.007662386000000001,-0.0021375860000000003,-0.0015589078,0.00271072,3.049,0,0
0.0008041442,-0.005910891999999999,-0.002441066,-0.0019959754000000002,0.004271228,3.05,0,0
0.0022521542,-0.0032669560000000005,-0.0025875480000000003,-0.0024603994,0.004381328,3.051,0,0
0.003186162,-0.0017365280000000002,-0.002463026,-0.002976238,0.00469955,3.052,0,0
0.003713142,-0.002922816,-0.0019431174,-0.002940364,0.004778682,3.053,0,0
0.00355701,-0.0040941680000000005,-0.0011544994000000002,-0.00257934,0.003153134,3.054,0,0
0.0036841400000000002,-0.003490822,-0.00044785820000000027,-0.002671146,0.0012557199999999999,3.055,0,0
0.005090058,-0.0018972139999999995,0.0002099092,-0.0023137260000000003,-0.00013757600000000015,3.056,0,0
0.00584417,0.0013446380000000004,0.000764508,-0.0011428979999999998,-0.002048734,3.057,0,0
0.005982192,0.006638090000000001,0.0011697134,-0.0007044626000000002,-0.004206558,3.058,0,0
0.005705172,0.011935364,0.0014447054000000003,-0.00025553600000000006,-0.005043288,3.059,0,0
0.00422763,0.015137524000000001,0.0017739562000000002,0.001224668,-0.0050659319999999996,3.06,0,0
0.0005582019999999996,0.015738038000000003,0.0018325382000000002,0.0021254,-0.004818098,3.061,0,0
-0.004401316000000001,0.013300171600000002,0.0008657214000000001,0.0016018588,-0.003182298,3.062,0,0
-0.007311942,0.007845983600000002,-0.0004977306000000001,0.0014468681999999999,-0.000499684,3.063,0,0
-0.006903726,0.0013153036,-0.0009196470000000002,0.0016000936,0.0015260660000000002,3.064,0,0
-0.005467566,-0.0034086244,-0.000244951,0.0006976494,0.003167894,3.065,0,0
-0.0036592748,-0.0067305004000000005,0.0009513256000000002,-0.0005529026000000001,0.004969858,3.066,0,0
-0.0009083987999999999,-0.009325174000000002,0.0025066016,-0.0010452734000000001,0.005806423999999999,3.067,0,0
-0.00023277680000000013,-0.010212666,0.0036028676000000003,-0.0011342016,0.00545182,3.068,0,0
-0.0017038828000000002,-0.009944488,0.0034060956000000002,-0.0018325535999999998,0.004818228,3.069,0,0
-0.0033208528000000003,-0.008745838,0.0021511036000000003,-0.0017122104,0.0034713480000000004,3.07,0,0
-0.0025966460000000006,-0.006979670000000001,0.0003243536,-0.0002951764,0.001339728,3.071,0,0
0.0004547179999999998,-0.004509814,-0.0011258124,0.0007102656000000001,-0.00028208800000000005,3.072,0,0
0.002652696,-0.001271948,-0.0017514024000000001,0.001428493,-0.0009784336000000001,3.073,0,0
0.004270636,0.0018155839999999999,-0.002000614,0.002488917,-0.0016682016,3.074,0,0
0.005602364,0.003923146000000001,-0.0020378512000000003,0.0029421000000000004,-0.0023930716000000003,3.075,0,0
0.004600044,0.0054115840000000005,-0.0014387864,0.0025163680000000006,-0.0024953476,3.076,0,0
0.0015788500000000001,0.00699735,-0.0007043113999999999,0.0024856960000000003,-0.0030793596,3.077,0,0
-2.3755999999999994e-05,0.007761522,-0.0007192094000000001,0.0018435782,-0.003976808,3.078,0,0
-9.456599999999992e-05,0.006977552,-0.0008879294000000001,-1.560379999999994e-05,-0.00359937738,3.079,0,0
0.00042745800000000013,0.0045020699999999995,-0.0007788176,-0.0013407818,-0.0021717313800000003,3.08,0,0
0.0015159420000000002,0.0013746719999999995,-0.0011105604000000002,-0.0020221338,-0.0008406833800000002,3.081,0,0
0.002142676,-0.0020104780000000004,-0.0016952154,-0.0028867818,0.0011453386199999998,3.082,0,0
0.0014773240000000003,-0.004999720000000001,-0.0015492714,-0.0029133609999999997,0.00366529262,3.083,0,0
-0.00040296199999999976,-0.005502160600000001,-0.0011352502,-0.0015898404,0.004684582,3.084,0,0
-0.0016826859999999999,-0.004723179600000001,-0.0011163888000000001,-0.0008797569999999999,0.0045072359999999995,3.085,0,0
-0.0021422940000000003,-0.0042613736,-0.0008659068,-0.001030493,0.004349944,3.086,0,0
-0.002740556,-0.0031268916000000003,-0.00023205080000000003,-0.001109313,0.0032191408,3.087,0,0
-0.003081118,-0.0019063016000000002,-2.98658e-05,-0.000861831,0.0009380807999999999,3.088,0,0
-0.002960048,-0.002348231,-6.10778e-05,-0.00046993960000000004,-0.0005375252,3.089,0,0
-0.0032253820000000006,-0.00241203014,0.00048579219999999993,0.000285977,-0.0018461072000000003,3.09,0,0
-0.0033911718000000004,-0.0006681401399999999,0.0012859681999999998,0.001893635,-0.0038403472,3.091,0,0
-0.0021562378000000004,0.00105049586,0.0016099382,0.003001315,-0.00517769,3.092,0,0
-0.0006665338,0.0029776018600000003,0.0018809507999999998,0.003108996,-0.005513838,3.093,0,0
0.00022984299999999992,0.00543249586,0.0022120416,0.003055616,-0.0059948959999999996,3.094,0,0
0.001523993,0.0066989400000000004,0.0015924718,0.0026023188000000004,-0.005367,3.095,0,0
0.0031983348,0.005575484,0.0005563138,0.0012450668,-0.0024968280000000004,3.096,0,0
0.0042695068,0.0034781679999999994,0.0002529006,0.0002626928,0.00024049399999999995,3.097,0,0
0.0050757968,0.001305012,0.000416825,-0.0003355692,0.0023872380000000003,3.098,0,0
0.005401924000000001,-0.001346388,0.00042268700000000004,-0.0013451212000000002,0.004992544000000001,3.099,0,0
0.004189340000000001,-0.0034294880000000005,0.000430574,-0.0016648604000000001,0.006970086000000001,3.1,0,0
0.001488878,-0.004135724,0.0007202508,-0.0012155256,0.006797330000000001,3.101,0,0
-0.001967066,-0.003687894,0.0007828646,-0.0009347804,0.0060722300000000005,3.102,0,0
-0.0044932240000000005,-0.0030759464,0.0005118188,-0.0005951716000000001,0.00543333,3.103,0,0
-0.005917174000000001,-0.0027357264,0.0005694208,0.0005799204,0.0036519050000000004,3.104,0,0
-0.006464902000000001,-0.0024418004,0.0009317495999999999,0.0011661808,0.001727755,3.105,0,0
-0.006256726000000001,-0.0023361224,0.00088857764,0.0008612436,0.00026293100000000005,3.106,0,0
-0.004612279600000001,-0.0028335184,0.0008112746399999999,0.0011422144,-0.0018214510000000002,3.107,0,0
0.0003799763999999999,-0.0035663580000000004,0.0008564394399999999,0.0014918376,-0.004412757,3.108,0,0
0.005616298400000001,-0.002639416,0.00055990564,0.0007035870000000001,-0.005901844000000001,3.109,0,0
0.0069464984,0.00045903000000000046,0.00022395284000000003,-7.701300000000002e-05,-0.006851516000000001,3.11,0,0
0.0067615764,0.003892478000000001,0.000167402,-0.00019727260000000006,-0.007845586000000002,3.111,0,0
0.006748154199999999,0.005952544000000001,0.0001553814,-0.0010435026,-0.007341344000000001,3.112,0,0
0.0027615922,0.006376912000000001,-0.00011532180000000002,-0.0021613226,-0.005746224,3.113,0,0
-0.0022069038,0.004873428000000002,-0.0005588560000000002,-0.002571028,-0.0042893694,3.114,0,0
-0.0038199678,0.0018323780000000004,-0.0012956252000000002,-0.0023949594,-0.0017520694000000001,3.115,0,0
-0.004967627800000001,-0.00091417,-0.0020692912,-0.00215218372,0.0019248085999999996,3.116,0,0
-0.005772246000000001,-0.00310139,-0.0026267882000000006,-0.0013309595200000001,0.0047576286,3.117,0,0
-0.00493291,-0.004939842,-0.0020002460000000002,-0.00042304291999999995,0.0064448045999999995,3.118,0,0
-0.0012836739999999998,-0.006377924,-0.00033034199999999975,-0.00013455692000000004,0.00769364,3.119,0,0
0.00360154,-0.007411792,0.0010550120000000001,0.00029302048000000004,0.007159402,3.12,0,0
0.0057678032,-0.006518032,0.002283474,0.0010293908,0.004573318,3.121,0,0
0.004437257200000001,-0.0029055060000000004,0.0029975619999999996,0.0013254486000000001,0.002481484,3.122,0,0
0.002996553200000001,0.001636434,0.0025839902000000005,0.001673954,0.0011813363600000001,3.123,0,0
0.0015773012,0.006003032,0.0007390142,0.0029794340000000004,-0.00094502964,3.124,0,0
-0.0022237487999999996,0.009618390000000001,-0.0018835738,0.0032975339999999995,-0.0031572416400000003,3.125,0,0
-0.005681332000000001,0.011095578000000002,-0.0051043218000000005,0.0026941492000000004,-0.0037587796400000003,3.126,0,0
-0.005715232000000001,0.009957374,-0.007506069800000001,0.0024075652,-0.00423279564,3.127,0,0
-0.003180584000000001,0.0077110924,-0.0076977426,0.0017637144000000001,-0.004920066000000001,3.128,0,0
-0.0009186320000000008,0.0055176044,-0.0062043865999999994,0.0002573924000000001,-0.0036635020000000003,3.129,0,0
0.002928158,0.0025811784,-0.0021849465999999994,-0.0013490976,-0.00144107,3.13,0,0
0.008351178,-3.70056000000001e-05,0.0032928334,-0.0025627268,-4.539400000000003e-05,3.131,0,0
0.010927518,-0.0012967383999999999,0.0071906414,-0.0039332468,0.0013667680000000002,3.132,0,0
0.009559504000000002,-0.0022036188000000003,0.00855788,-0.004612254,0.0027093720000000003,3.133,0,0
0.006038008000000001,-0.0026858328000000002,0.008710712,-0.0044139999999999995,0.003071364,3.134,0,0
0.0017030399999999998,-0.0017022108,0.0062487260000000005,-0.004023720000000001,0.0033793300000000007,3.135,0,0
-0.002070894,-0.0013200720000000003,0.0016666639999999998,-0.00337942,0.0038311560000000005,3.136,0,0
-0.003586014,-0.0024532132,-0.000484848,-0.0022420694000000003,0.0036081320000000004,3.137,0,0
-0.0036837414,-0.0024717132,-0.0018161938,-0.0014667542,0.0028626976,3.138,0,0
-0.0031885054,-0.0016142778000000002,-0.0055340218,-0.0007515482000000002,0.0018975856,3.139,0,0
-0.0030945414,-0.0014366257999999998,-0.0091355958,0.0012611757999999999,0.0004201316000000001,3.14,0,0
-0.0033780874000000007,-0.0008185206,-0.0098199938,0.0031796618,-0.0014316244000000002,3.141,0,0
-0.003948373400000001,0.0013082534,-0.0071224498,0.0044208132,-0.0031732564000000003,3.142,0,0
-0.005158790000000001,0.0028569814,-0.0025865199999999993,0.0055355479999999995,-0.0038399040000000003,3.143,0,0
-0.006354608000000001,0.0033526020000000005,0.0022313400000000005,0.005671826,-0.0042254860000000005,3.144,0,0
-0.007513064,0.003345894,0.008068858,0.0044316732,-0.0043571980000000005,3.145,0,0
-0.007864084,0.001656132,0.01219931,0.0026264032000000003,-0.0030453800000000003,3.146,0,0
-0.0061322554,-0.000845656,0.010281301999999999,0.0013040477999999999,-0.0015920128000000001,3.147,0,0
-0.0033212914,-0.0017908232,0.005614782,0.0004690746,-0.0007697722,3.148,0,0
-0.0015307673999999999,-0.0018849152000000003,0.0032459119999999992,-0.0003211074000000001,0.0002779178000000001,3.149,0,0
0.0009715125999999999,-0.0029627392000000003,0.0016478088,-0.0007757006,0.0013537898,3.15,0,0
0.004996878600000001,-0.0043140972,2.1623399999999966e-05,-0.0007672525999999999,0.0003061798,3.151,0,0
0.007729196,-0.0050297652,-0.0005455982000000001,-0.0009615272000000001,-0.00018674740000000005,3.152,0,0
0.008121132,-0.005189092,-0.0006345682,-0.001670542,-0.0011515800000000001,3.153,0,0
0.0071105835999999995,-0.004402084,-0.0007129902,-0.003020234,-0.00485486,3.154,0,0
0.0053566396,-0.003162938,-0.001096601,-0.005343432,-0.0053747364,3.155,0,0
0.002518337600000001,-0.0030184180000000006,-0.0012672596,-0.00812184,-0.0017787683999999997,3.156,0,0
-0.0005363224,-0.004684578,-0.001417024,-0.010965336000000001,0.0030533555999999996,3.157,0,0
-0.0008404703999999998,-0.008784930000000002,-0.001873282,-0.013046136000000002,0.0103880876,3.158,0,0
0.0017720320000000004,-0.014625778000000002,-0.003343444,-0.012686222,0.0193996276,3.159,0,0
0.00424522,-0.0184856,-0.005942388,-0.009741546000000002,0.02325924,3.16,0,0
0.0062982360000000005,-0.017942418,-0.007971396,-0.004861424,0.021684073999999998,3.161,0,0
0.0077759100000000005,-0.014419847999999999,-0.008914054,0.0013482960000000001,0.016353562000000002,3.162,0,0
0.005749234000000001,-0.007417108,-0.008990856,0.008135456,0.006462522000000002,3.163,0,0
0.0010660060000000004,0.0030075320000000003,-0.0074035406,0.014058278,-0.004736717999999999,3.164,0,0
-0.003138498,0.013700872,-0.0040901005999999995,0.018136842,-0.015203638,3.165,0,0
-0.006701917999999999,0.023527970000000002,-0.0009983706000000004,0.020309940000000002,-0.024109292,3.166,0,0
-0.009452236,0.0315237,0.0016274074000000003,0.01995642,-0.031108180000000003,3.167,0,0
-0.010425176000000001,0.0355266,0.0039323094,0.016589652,-0.03416052,3.168,0,0
-0.009734258,0.03495952,0.00488467,0.011151420000000002,-0.03215558,3.169,0,0
-0.008026536,0.03032472,0.005287264000000001,0.004868806,-0.02653768,3.17,0,0
-0.00559747,0.021532628000000005,0.005572978,-0.0018176539999999997,-0.016947946000000002,3.171,0,0
-0.0025718860000000007,0.009905548,0.005336948,-0.007413094,-0.004238505999999999,3.172,0,0
0.00045347200000000034,-0.002424972,0.004732504,-0.011337506,0.008069034,3.173,0,0
0.0025653320000000005,-0.014186372,0.004140885800000001,-0.013693094,0.018312154,3.174,0,0
0.004482822000000001,-0.023820872,0.0033868496,-0.01414964,0.026969694,3.175,0,0
0.006523250000000001,-0.0299244,0.0021627088000000004,-0.012676502,0.03183142,3.176,0,0
0.00738569,-0.03175006,0.0007646208000000002,-0.009540978,0.0315767,3.177,0,0
0.007867316,-0.029548280000000003,-0.0005619971999999999,-0.005542074000000001,0.02819052,3.178,0,0
0.008961996,-0.023882304000000007,-0.000952477,-0.0007398480000000004,0.021620120399999998,3.179,0,0
0.008669736,-0.015159330000000002,-0.00028805080000000004,0.003939672,0.0113741004,3.18,0,0
0.00602515,-0.004429889999999999,0.0009880180000000002,0.0076065740000000005,-0.00013749960000000033,3.181,0,0
0.0026516660000000004,0.00610797,0.0020272960000000005,0.01031395,-0.0106093996,3.182,0,0
-0.00034025599999999994,0.014596310000000001,0.0023410520000000006,0.012013706,-0.019626079600000002,3.183,0,0
-0.0016822120000000002,0.020603014000000003,0.0017459920000000007,0.011748318,-0.025678500000000003,3.184,0,0
-0.0016076059999999997,0.023237300000000002,-0.000360214,0.0095294362,-0.027267100000000002,3.185,0,0
-0.002082378,0.02215466,-0.002784176,0.0063523942,-0.02514256,3.186,0,0
-0.0035411340000000005,0.018519842,-0.004262416000000001,0.0014387421999999999,-0.019928244000000005,3.187,0,0
-0.005304952,0.01290056,-0.004313611,-0.0042516178,-0.011193484,3.188,0,0
-0.007754696,0.0046381600000000005,-0.0032613430000000003,-0.0089874158,-0.0013564640000000004,3.189,0,0
-0.010093407999999998,-0.004148180000000001,-0.0017021270000000001,-0.012480834000000001,0.007286615999999999,3.19,0,0
-0.011807624000000001,-0.010703220000000001,-0.00022044340000000004,-0.014846832000000003,0.015486475999999999,3.191,0,0
-0.011854964,-0.015376702000000003,0.00035838759999999993,-0.015229020000000003,0.021896660000000002,3.192,0,0
-0.009868898000000001,-0.018148240000000003,0.0003167586000000001,-0.013274486,0.02419912,3.193,0,0
-0.009974248,-0.018767580000000002,-1.6439000000000023e-05,-0.010082357200000003,0.02249618,3.194,0,0
-0.009528908,-0.01762358,-0.0009607850000000001,-0.0057020252,0.018754672000000003,3.195,0,0
-0.003267228000000001,-0.014521056000000001,-0.0023404486000000004,-0.0004443252000000007,0.012506886,3.196,0,0
0.005685312,-0.00906147,-0.0036638176,0.0049062548,0.003992565999999998,3.197,0,0
0.012340186,-0.00215897,-0.0045337996,0.009246580800000001,-0.003775274,3.198,0,0
0.017095266,0.00614127,-0.00356993,0.012036172000000001,-0.010328314,3.199,0,0
0.019217090000000003,0.01532029,-0.0007593179999999993,0.013219439999999999,-0.016426506,3.2,0,0
0.015615276,0.022663986000000004,0.0018095440000000004,0.012436297999999998,-0.020392720000000003,3.201,0,0
0.00787997,0.0259324,0.003939742,0.009828176000000001,-0.020640420000000003,3.202,0,0
0.00033425800000000025,0.024653900000000003,0.0050222364,0.006306178,-0.018776002000000003,3.203,0,0
-0.0032383660000000003,0.0199371362,0.0036204524000000003,0.002097052000000001,-0.013871642000000002,3.204,0,0
-0.003237294000000001,0.011824936200000004,0.0014333828,-0.002673148,-0.005298242,3.205,0,0
-0.0013148260000000003,0.0013063362000000005,0.0006398447999999999,-0.006435446000000001,0.0033743379999999997,3.206,0,0
0.0017969519999999999,-0.008232743800000001,0.0014693948,-0.008865724,0.010625578,3.207,0,0
0.00493836,-0.0151076438,0.0022530424,-0.010387200000000001,0.01663556,3.208,0,0
0.007197854,-0.019666640000000003,0.0011240444000000004,-0.010000158000000002,0.0205068,3.209,0,0
0.007418694,-0.02080088,-0.0013193659999999998,-0.007296054800000001,0.02057128,3.21,0,0
0.005349024,-0.01824626,-0.0030094279999999998,-0.0042593488,0.017493970000000005,3.211,0,0
0.0017986060000000003,-0.013613942000000002,-0.0029476199999999998,-0.0015903507999999998,0.0130221328,3.212,0,0
-0.0035754499999999995,-0.008119560000000001,-0.0015743019999999992,0.0012791991999999998,0.0068742848,3.213,0,0
-0.0105425,-0.0022892760000000002,-6.364399999999972e-05,0.0036362552,-0.000630415200000001,3.214,0,0
-0.016303402,0.0036426440000000004,0.001254306,0.005214460000000001,-0.0076143952,3.215,0,0
-0.018676745999999998,0.008487124,0.0020395940000000005,0.0065753800000000005,-0.013087805200000002,3.216,0,0
-0.017986962000000002,0.011796826,0.0007606760000000001,0.007399434000000001,-0.017343268000000002,3.217,0,0
-0.014519626,0.013975144000000002,-0.00028252599999999974,0.006905794000000001,-0.019004800000000002,3.218,0,0
-0.007011305999999999,0.014580028,0.0018469180000000003,0.005721888,-0.017204992000000002,3.219,0,0
0.0024259340000000002,0.012824582000000001,0.004933942,0.0040150574999999996,-0.013350547800000001,3.22,0,0
0.008991394,0.009112669000000002,0.0064086920000000006,0.0014541415000000001,-0.007467895800000001,3.221,0,0
0.011657688000000001,0.0035625929999999997,0.00614974552,-0.0010010465,0.00017808420000000073,3.222,0,0
0.012617184000000002,-0.0028638670000000004,0.004502035520000001,-0.0027132505,0.006942744200000001,3.223,0,0
0.010946818,-0.007857655000000002,0.0021858295200000003,-0.0039039104999999998,0.011948336200000001,3.224,0,0
0.0060810896,-0.011734949,0.00027740304000000007,-0.00483057,0.016039172,3.225,0,0
0.0023971598,-0.014545136,-0.00111770696,-0.0052058420000000005,0.01781786,3.226,0,0
0.0013187698,-0.014359160000000001,-0.00165964248,-0.004510712,0.016045664,3.227,0,0
0.0011463238000000001,-0.01209545,-0.00122497488,-0.0032332752,0.012751328,3.228,0,0
0.0013996338,-0.01012513,-0.00048815687999999985,-0.0015787152000000001,0.008221298,3.229,0,0
0.00038683620000000006,-0.0074414400000000006,-0.00017112239999999982,0.0006136367999999999,0.001527577999999999,3.23,0,0
-0.002471274,-0.0036337960000000008,-0.0001798043999999999,0.0029020168,-0.0043970020000000005,3.231,0,0
-0.0055918159999999995,-0.00021513400000000007,-0.0002990604,0.004521696800000001,-0.008426806,3.232,0,0
-0.008568602000000002,0.003243436,-0.0017844459999999999,0.005675722000000001,-0.01168275,3.233,0,0
-0.008595931999999999,0.006591476000000001,-0.004608362,0.005848562000000001,-0.0135733,3.234,0,0
-0.003969586000000001,0.008684256000000001,-0.006668902000000001,0.004090766,-0.012988778,3.235,0,0
0.001464014000000001,0.010098592,-0.006811832,0.0018742360000000007,-0.011204697999999999,3.236,0,0
0.006028892,0.009959712,-0.005386158,-0.0005400960000000001,-0.0087823078,3.237,0,0
0.011076672000000001,0.006867565999999999,-0.0026306000000000003,-0.0033165180000000005,-0.0042879278,3.238,0,0
0.012192370000000003,0.004011410000000001,0.000316276,-0.005178984,0.0008548722000000003,3.239,0,0
0.006586110000000001,0.0034132660000000007,0.0017690320000000005,-0.005455876000000001,0.0052279302,3.24,0,0
0.00014575000000000135,0.0019308000000000003,0.001630458,-0.005151842,0.008839490200000001,3.241,0,0
-0.003927128,-0.001136986,0.001203236,-0.004638718000000001,0.01174686,3.242,0,0
-0.006132288,-0.0032593,0.00123868,-0.0031530266000000004,0.012303600000000001,3.243,0,0
-0.005787779999999999,-0.004835884,0.0004751240000000001,-0.0017135886000000003,0.010522376,3.244,0,0
-0.002081504,-0.007247026,-0.001270654,-0.0005622486,0.0081462324,3.245,0,0
0.0025540880000000004,-0.008549832,-0.002485148,0.0011978894,0.0046225084,3.246,0,0
0.004803843,-0.006338396,-0.003517786,0.0030503654000000003,7.645240000000021e-05,3.247,0,0
0.003412191,-0.001541912,-0.004014810000000001,0.0038605980000000007,-0.0043260476,3.248,0,0
-0.0002351769999999996,0.0034279880000000003,-0.002977824,0.004614306,-0.008049103600000001,3.249,0,0
-0.0032178650000000003,0.007734584000000001,-0.0013904580000000002,0.005642362000000001,-0.01172246,3.25,0,0
-0.004725721,0.010837656000000001,0.0008304700000000001,0.005140856,-0.014304596000000001,3.251,0,0
-0.0046996132,0.011130354000000002,0.003026328,0.0037653586,-0.01471656,3.252,0,0
-0.0033130592,0.008734512000000002,0.003549542,0.0023275866,-0.013531362000000002,3.253,0,0
-0.0020891612,0.005774978000000001,0.004586314,0.0003307945999999999,-0.010616474400000001,3.254,0,0
-0.0012588952,0.0025021838000000005,0.006581804000000001,-0.0020892054000000004,-0.0058743044,3.255,0,0
0.0002944168,-0.0018158722,0.0058683960000000005,-0.003969995400000001,-0.0004350643999999999,3.256,0,0
0.001139528,-0.0051489422,0.003027546,-0.004539250000000001,0.0040151156,3.257,0,0
-1.307999999999995e-06,-0.0060091082,0.0005049080000000003,-0.004265070000000001,0.0074325976,3.258,0,0
-0.0017987380000000002,-0.0069089882000000005,-0.0008820940000000002,-0.003651090000000001,0.00966639,3.259,0,0
-0.0035739520000000005,-0.00813371,-0.0005104920000000004,-0.0025663580000000004,0.009774104,3.26,0,0
-0.0072524600000000005,-0.007178616000000001,0.00123966,-0.001067664,0.008451430000000001,3.261,0,0
-0.009800962,-0.005472728000000001,0.002953014,-0.00019089240000000004,0.006838680000000001,3.262,0,0
-0.006997728,-0.0049111,0.0023314720000000002,0.0004128996,0.004428078199999999,3.263,0,0
-0.0011604880000000008,-0.003678043,-0.001313304,0.0012213436,0.0013449381999999998,3.264,0,0
0.005031892,-0.0009096170000000002,-0.005548102,0.0016881276,-0.0011336238,3.265,0,0
0.009971192000000002,0.0016230350000000003,-0.008316722,0.0025186116,-0.0031481258,3.266,0,0
0.010925,0.0028222190000000004,-0.00982534,0.003726656,-0.0049828258,3.267,0,0
0.006473600000000001,0.0037880416000000004,-0.008579328,0.0039218099999999995,-0.005696944,3.268,0,0
0.0019090200000000009,0.0057342826000000005,-0.00435705,0.00326739,-0.0050429260000000005,3.269,0,0
-0.0012710940000000002,0.0070897726000000005,-0.0008928760000000001,0.0028059392,-0.0037059569999999997,3.27,0,0
-0.004248094,0.0059737126,0.0005475021999999999,0.0014845295999999998,-0.001447903,3.271,0,0
-0.001873868,0.004256670600000001,0.0018516860000000002,-0.0005141384000000002,0.001410807,3.272,0,0
0.003978492,0.0033797300000000005,0.0023751222,-0.0016757264000000003,0.003674129,3.273,0,0
0.0053523040000000004,0.0008120879999999998,0.0014182466000000004,-0.0025833124,0.005349101,3.274,0,0
0.0036711240000000004,-0.0035868899999999997,0.0025381526000000003,-0.0038970396,0.0068303059999999995,3.275,0,0
0.003835558,-0.00660822,0.0052395624,-0.004564112,0.007412432,3.276,0,0
0.0015526939999999999,-0.007265500000000001,0.0060622026,-0.004210150000000001,0.006576532,3.277,0,0
-0.0025555359999999997,-0.008082544,0.006511232400000001,-0.0034633719999999997,0.005505576,3.278,0,0
-0.0012101199999999999,-0.009789626000000001,0.0068456260000000005,-0.002164584,0.004296446600000001,3.279,0,0
0.0033242340000000006,-0.009031145999999999,0.0045763126,-0.000403742,0.0019837446,3.28,0,0
0.005016752000000001,-0.005199448000000001,0.0016218406,0.0012682280000000002,-0.0005429234000000001,3.281,0,0
0.0045054920000000016,-0.0011111380000000002,0.0005632343999999999,0.002181074,-0.0023313554000000004,3.282,0,0
0.004751648000000001,0.0032111600000000002,-7.904560000000007e-05,0.002925154,-0.0040400454,3.283,0,0
0.002843914800000001,0.00983204,-0.0006924176,0.0038119,-0.0057319300000000005,3.284,0,0
-0.0017190592000000003,0.015669318,-0.0007484274000000001,0.0035555120000000003,-0.0062209660000000005,3.285,0,0
-0.0041339612,0.01676456,-0.0011478194000000001,0.0022889699999999995,-0.006258608000000001,3.286,0,0
-0.0041145792,0.014609134400000003,-0.0018402172,0.0007869139999999999,-0.006341544,3.287,0,0
-0.0049472192,0.0107185664,-0.0018917832000000002,-0.0009274600000000002,-0.0048184557999999995,3.288,0,0
-0.0072490340000000006,0.004408276400000001,-0.0018862354000000001,-0.002727706,-0.0021903718000000003,3.289,0,0
-0.00844318,-0.0032189636,-0.0021165442000000002,-0.003982352,-0.0002755698000000001,3.29,0,0
-0.007221656,-0.0091191636,-0.0016200206000000002,-0.004510728,0.0016362542000000002,3.291,0,0
-0.00390818,-0.012711918000000001,-0.0008615955000000001,-0.004322548000000001,0.0043547462000000006,3.292,0,0
0.0003272539999999999,-0.014171409999999999,-0.0006842195,-0.0031580302,0.005857262,3.293,0,0
0.0052761740000000015,-0.013062478,-0.0006056297,-0.0018013781999999998,0.005950632000000001,3.294,0,0
0.00908854,-0.009623284000000001,-0.00021004870000000005,-0.0007390523999999999,0.006367416000000001,3.295,0,0
0.009084274000000002,-0.004302984,5.798769999999995e-05,0.0007450575999999999,0.005587156400000001,3.296,0,0
0.007538718000000001,0.0008221400000000001,0.0008103806,0.0024603096,0.0027589444000000007,3.297,0,0
0.006582658,0.0044882459999999996,0.0019940766,0.0031152517999999997,0.0004784543999999998,3.298,0,0
0.005076972,0.007527524000000001,0.002642709,0.0030551598,-0.0011954116000000002,3.299,0,0
0.002413476,0.00945387,0.0026957116,0.0035918700000000005,-0.0035703595999999997,3.3,0,0
-0.0004378720000000006,0.009679630000000002,0.0021445416,0.0035972340000000004,-0.004451264,3.301,0,0
-0.004375556000000001,0.009409702,0.0010988796,0.0027531140000000005,-0.0035057860000000003,3.302,0,0
-0.008629276000000002,0.008128964200000002,-0.0005787624000000002,0.0022668920000000004,-0.003700806,3.303,0,0
-0.010018570000000001,0.004775652200000001,-0.0020611524000000003,0.0015086560000000001,-0.00406967,3.304,0,0
-0.008091284,0.0009599141999999999,-0.0027455400000000003,-3.171599999999999e-05,-0.0026625324,3.305,0,0
-0.004198418,-0.0019250378,-0.003752468,-0.001486824,-0.0013876324,3.306,0,0
-0.0006988960000000001,-0.0037732858,-0.0053191900000000005,-0.002273298,-0.0005453344,3.307,0,0
0.0009423400000000002,-0.004757618,-0.005893604,-0.0028461520000000002,0.0018264676,3.308,0,0
0.0008639359999999999,-0.005785526000000001,-0.00462148,-0.0026872054,0.0047568276,3.309,0,0
0.00027022599999999993,-0.0075199080000000005,-0.00221749,-0.0016802970000000003,0.005995808,3.31,0,0
0.0005207839999999999,-0.008762302,0.000916448,-0.0007471150000000001,0.0061277680000000005,3.311,0,0
0.000915636,-0.008566914,0.00445446,7.6745e-05,0.005913318000000001,3.312,0,0
0.0010860980000000002,-0.0065696520000000005,0.006870794,0.000976457,0.0042239504,3.313,0,0
0.0010749600000000002,-0.0023850740000000005,0.0061526919999999995,0.0017607684000000001,0.0014958144,3.314,0,0
-0.0003044399999999999,0.0018314619999999994,0.0027984560000000004,0.002006208,-0.0002893356000000001,3.315,0,0
-0.0023862220000000003,0.004073688,-0.0008279040000000002,0.0021179864000000002,-0.0015975916,3.316,0,0
-0.0025402080000000004,0.005181781999999999,-0.0038176520000000004,0.0020487748,-0.0032774956000000003,3.317,0,0
-0.0006614460000000004,0.004932996,-0.006066162,0.0013530528,-0.004323502,3.318,0,0
0.00022972200000000013,0.0030794694,-0.005958938000000001,0.00048444160000000005,-0.004736724,3.319,0,0
-0.00036442400000000013,0.0031297934,-0.0030111940000000005,-4.3133200000000036e-05,-0.005397002,3.32,0,0
-0.0008597220000000005,0.0050402934,-0.0001750739999999999,-0.0006511296000000001,-0.005575542,3.321,0,0
-0.0015691580000000002,0.0047691614,0.001331522,-0.00148845,-0.004575532,3.322,0,0
-0.0029826798,0.0030666153999999997,0.0026535808000000003,-0.0018397040000000004,-0.0035118822,3.323,0,0
-0.0018250618,0.0016119319999999995,0.0024489628,-0.0019797988000000003,-0.0023800247,3.324,0,0
0.0028560782,-0.0009256720000000004,0.00014612679999999984,-0.002265932,-0.0007168607,3.325,0,0
0.0059666662,-0.004162944,-0.0010644518000000002,-0.0019594994,0.0008959773000000002,3.326,0,0
0.0067717461999999996,-0.005658036,-0.0004438898000000002,-0.0007754494000000001,0.0017183813000000003,3.327,0,0
0.006981588,-0.005078796,0.0008543194000000001,0.00018976660000000005,0.0022242935,3.328,0,0
0.005304426600000001,-0.0039356454,0.0021092174,0.0008558086,0.0026867840000000002,3.329,0,0
0.0021632746000000004,-0.002907541,0.0018222314000000002,0.0017255026,0.0020443242,3.33,0,0
2.6178599999999953e-05,-0.001492653,0.0009843440000000003,0.001668722,0.0010653462,3.331,0,0
-0.0013930934000000001,4.1456999999999844e-05,0.00056744,0.00040989200000000013,0.00021746819999999997,3.332,0,0
-0.0032052574000000006,0.001310827,0.0001698759999999998,-0.0007879840000000001,-0.0013684978000000003,3.333,0,0
-0.004702106000000001,0.0028445944,0.0015072859999999996,-0.0017909500000000004,-0.0032750018000000003,3.334,0,0
-0.005453678,0.0037839880000000003,0.005179686,-0.0028526920000000004,-0.003959896,3.335,0,0
-0.005243922000000001,0.0032310794,0.008201936,-0.003568572,-0.00411737,3.336,0,0
-0.0041248100000000005,0.0024316894,0.00821093,-0.00362494,-0.004485588,3.337,0,0
-0.0016155219999999999,0.0013119654000000001,0.005095092000000001,-0.0027914180000000004,-0.0029828380000000002,3.338,0,0
0.0015022599999999998,-0.0010473805999999999,6.423199999999957e-05,-0.00122187,-0.000583194,3.339,0,0
0.003797084,-0.0023827526,-0.004287692000000001,0.0008356760000000003,0.000462464,3.34,0,0
0.004465498,-0.0019854119999999998,-0.006516809200000001,0.0031080500000000002,0.0014650320000000002,3.341,0,0
0.0030434140000000004,-0.0015742782,-0.0066518772000000006,0.0049140880000000005,0.0033984700000000002,3.342,0,0
0.0008241640000000005,-0.0013998482,-0.004653009800000002,0.005672352,0.004398966000000001,3.343,0,0
-0.0013715799999999998,-0.0010863302,-0.0016711002,0.005165658000000001,0.0041452120000000005,3.344,0,0
-0.003506838,-0.0009670042000000001,6.246540000000002e-05,0.0035012740000000004,0.0042099500000000005,3.345,0,0
-0.005424646,-0.0014652702,0.00010762600000000004,0.00171105,0.0038131500000000004,3.346,0,0
-0.004528082000000001,-0.001981744,-0.000225534,0.000350106,0.0021293120000000004,3.347,0,0
-0.0008588160000000001,-0.001287664,-0.0005064194,-0.0010931699999999999,0.0006934268000000002,3.348,0,0
0.00047781999999999957,0.0013534379999999998,-0.000903975,-0.0018376420000000002,-1.640919999999997e-05,3.349,0,0
-0.0005250800000000003,0.00424787,-0.0009511608,-0.0014751522,-0.0010302172,3.35,0,0
-0.00057145,0.005908596,-0.0009044546,-0.0009987962000000002,-0.0017086612,3.351,0,0
0.00022139600000000011,0.006259472878,-0.0033430386,-0.0006840381999999999,-0.0011328314,3.352,0,0
0.0007441959999999999,0.005357868878,-0.008150620600000002,0.0001594237999999999,-0.0007735000000000001,3.353,0,0
0.002375168,0.0035381948780000005,-0.012126994600000001,0.0010849698000000001,-0.0006003056,3.354,0,0
0.004876050000000001,0.0007793308780000001,-0.0130620964,0.0010727884000000002,0.0008092264,3.355,0,0
0.006426628400000001,-0.0015738431219999998,-0.009497906,0.0008897348000000003,0.0019087444000000001,3.356,0,0
0.005500436400000001,-0.002373414,-0.0023988260000000006,0.0007466224000000001,0.0019016626000000003,3.357,0,0
0.0017483223999999998,-0.00282617,0.005645874,-0.00010680359999999997,0.0017403490600000004,3.358,0,0
-0.0014934716,-0.00414008,0.012216474000000001,-0.0010840416,0.0014471424600000001,3.359,0,0
-0.0026935036,-0.005217226,0.015458819999999998,-0.0014178760000000002,0.00042422846,3.36,0,0
-0.0012391919999999999,-0.004938748,0.014334999999999999,-0.0016530264,-0.00063140354,3.361,0,0
0.0014707420000000004,-0.00350235,0.010905802000000001,-0.0013510286000000002,-0.0009011417400000001,3.362,0,0
0.0027761400000000003,-0.001129066,0.008007853,-0.00023204460000000003,-0.0010424798,3.363,0,0
0.0033898080000000002,0.0013275740000000002,0.005103247,0.00041905739999999994,-0.0011146850000000002,3.364,0,0
0.0023519079999999998,0.0030869400000000007,0.0020476410000000002,0.000635256,-0.0006947140000000001,3.365,0,0
-0.00133937,0.0030619640000000004,-0.0008268890000000002,0.00079699,0.00017591999999999998,3.366,0,0
-0.004724314,0.0009807979999999997,-0.003510737,0.00034548459999999995,0.0006651442,3.367,0,0
-0.0052671248,-0.0015892300000000003,-0.005580348000000001,-0.0007136554,0.0008315926,3.368,0,0
-0.004931419,-0.0030915540000000003,-0.006853510000000001,-0.0011769396,0.0010407125800000001,3.369,0,0
-0.004255947,-0.002349442,-0.0074803000000000005,-0.0009202182000000001,0.0004990015800000001,3.37,0,0
-0.002913703,0.0002504320000000001,-0.007713936000000001,-0.0009698462000000001,-0.0007160464200000001,3.371,0,0
-0.002057255,0.002748884,-0.006636546000000001,-0.0016799902000000002,-0.00153069842,3.372,0,0
-0.0016414682,0.0044025900000000005,-0.004027820000000001,-0.0022858882,-0.00193151542,3.373,0,0
-0.002040258,0.0047650572000000006,-0.0008920120000000002,-0.002621964,-0.002230348,3.374,0,0
-5.9319999999999425e-06,0.0026568472,0.0018185980000000003,-0.00323429,-0.0017409322,3.375,0,0
0.005885984,-0.00028145679999999997,0.0045463100000000005,-0.0029692432,-0.0008959858,3.376,0,0
0.01011744,-0.0012906598000000003,0.007252566,-0.0017202632000000002,-0.0009029878000000001,3.377,0,0
0.009614781000000001,-0.0007925358000000001,0.0074562859999999995,-0.0008221342,-0.0006259316,3.378,0,0
0.007670591000000001,-0.00047557099999999994,0.00563659,-0.00026574060000000003,0.0005280584,3.379,0,0
0.004648561000000002,7.2071e-05,0.0035986240000000004,0.00024012000000000003,0.0008314266000000001,3.38,0,0
-0.0015679550000000002,0.0007923470000000001,0.0007914259999999998,-0.00020744480000000004,0.0005254822000000001,3.381,0,0
-0.006347523000000001,-0.00016618199999999996,-0.0016173416000000002,-0.0010303288000000001,0.0009837102,3.382,0,0
-0.0064122718,-0.0020740940000000003,-0.0013473715999999995,-0.0006998278000000001,0.0012617088000000001,3.383,0,0
-0.0048643738,-0.0025609104,0.00044247640000000016,0.00015621259999999996,0.000543788,3.384,0,0
-0.0048394198,-0.0019403484,0.0017479524000000002,0.0012997460000000003,0.0008775040000000001,3.385,0,0
-0.0050443838,-0.0014449262,0.0029523544000000005,0.002797018,0.0021481480000000003,3.386,0,0
-0.004471173,-0.000721837,0.0031442990000000006,0.003907774,0.0025345040000000004,3.387,0,0
-0.0040168652,-0.00018447100000000002,0.0013091690000000002,0.004073242,0.0028893712000000005,3.388,0,0
-0.0028156531999999996,-0.0002836112,-0.000845421,0.003423092,0.003359054,3.389,0,0
-0.0007818612,-0.0011461072,-0.0024214709999999997,0.0022620454,0.002293806,3.39,0,0
0.0010115628,-0.0029152154000000002,-0.003792679,0.0006328914,0.0003552939999999999,3.391,0,0
0.0010416058,-0.0048235886,-0.00484603,-0.0006997266000000001,-0.000746832,3.392,0,0
0.0003751538,-0.0069191106,-0.0055997700000000004,-0.0013956406,-0.00220153,3.393,0,0
0.0008962238,-0.009734698,-0.0062956140000000015,-0.0020441926,-0.0040450980000000004,3.394,0,0
0.0029814378000000002,-0.011580684,-0.0062193380000000005,-0.0026245540000000003,-0.004075226,3.395,0,0
0.0064806938,-0.008370639999999999,-0.005184947600000001,-0.001610316,-0.0025260140000000005,3.396,0,0
0.008973927999999999,-0.0005912400000000007,-0.0037552856000000003,0.0008852940000000002,-0.0006727300000000005,3.397,0,0
0.008543334,0.00651558,-0.0008645535999999997,0.00278547,0.0018948060000000002,3.398,0,0
0.006357099999999999,0.011428328000000001,0.0026822044000000002,0.0040681599999999995,0.004109926,3.399,0,0
0.003791334,0.014819290000000002,0.0042346644,0.005420694000000001,0.004573677000000001,3.4,0,0
0.0007466920000000002,0.013572608000000002,0.004849600000000001,0.005514054,0.0039983984,3.401,0,0
-0.001476271,0.007893090638,0.006095072,0.0036043560000000004,0.0029548216,3.402,0,0
-0.002289019,0.003614848638,0.006479016000000001,0.0018560591999999998,0.0012560838000000001,3.403,0,0
-0.0028466330000000003,0.001622774838,0.006111674,0.0007609717999999999,-0.0002794481999999999,3.404,0,0
-0.002922109,-0.00022055716200000003,0.006364992,-0.0006617722000000001,-0.0009241732000000001,3.405,0,0
-0.0026247930000000003,-0.001401653162,0.005737853,-0.0017264502,-0.0017618606000000003,3.406,0,0
-0.0025296579999999997,-0.0011790838000000003,0.0032840149999999995,-0.0021722802,-0.0030930818000000004,3.407,0,0
-0.0023048260000000003,-0.0009189698000000002,0.00034525899999999967,-0.0028672454,-0.004669284,3.408,0,0
-0.00135331,-0.0009883526000000003,-0.002328309,-0.0036351840000000005,-0.005761838,3.409,0,0
-0.0012320620000000001,0.0009665234000000002,-0.004116637,-0.0039047459999999997,-0.006624058,3.41,0,0
-0.0035914140000000002,0.0043551814,-0.004757880000000001,-0.003990622000000001,-0.006894194,3.411,0,0
-0.004628392,0.005256941400000001,-0.004531928000000001,-0.0031395612,-0.004883388000000001,3.412,0,0
-0.0021245179999999997,0.0033707354,-0.00384128,-0.0013693892000000004,-0.0018307600000000003,3.413,0,0
-0.0005994500000000001,0.0014400039999999995,-0.0031734000000000003,0.0005378368,0.001238366,3.414,0,0
-0.0008745419999999999,-0.0017409020000000003,-0.002857604,0.0023286228,0.004528004,3.415,0,0
-0.0008429500000000003,-0.00611799,-0.003230472,0.0038374288,0.006685946000000001,3.416,0,0
-0.002558744,-0.007702954000000001,-0.0035212719999999998,0.0042883980000000006,0.0063154840000000005,3.417,0,0
-0.006157776,-0.0065334464,-0.0030713144,0.0034100276,0.005245430000000001,3.418,0,0
-0.007574766000000001,-0.0050957144000000005,-0.0013433103999999998,0.0022723652000000002,0.004366244,3.419,0,0
-0.0038281400000000003,-0.0042317904,0.00019816760000000027,0.0011319793999999999,0.0025986896,3.42,0,0
0.0025536860000000008,-0.0028219824000000004,-0.0014575304,-2.8910599999999926e-05,0.0012055756000000002,3.421,0,0
0.008044446,-0.0010345763999999999,-0.005170304400000001,-0.0014672686,0.0008204544799999998,3.422,0,0
0.012347952,6.617000000000016e-05,-0.008404236,-0.0026299022,0.00027829848,3.423,0,0
0.012722528,0.0020523140000000004,-0.009548580800000001,-0.0030889058,-0.00099252352,3.424,0,0
0.008813172000000001,0.005161456,-0.0071763548000000005,-0.00373199,-0.00214820112,3.425,0,0
0.0054890139999999995,0.007196644,-0.0010549947999999995,-0.004350974,-0.0031538951200000007,3.426,0,0
0.00362248,0.007626466,0.006719365200000001,-0.003492727,-0.00452531,3.427,0,0
0.002008296,0.0076190500000000005,0.012186265200000001,-0.0017584849999999997,-0.004778726,3.428,0,0
0.0020427120000000003,0.006651650000000001,0.012947196000000001,-0.0009704638,-0.0034573940000000004,3.429,0,0
0.0009751099999999997,0.004583866000000001,0.01038197,-0.0005588738,-0.0023102586000000006,3.43,0,0
-0.002907072,0.0019289700000000001,0.0072658539999999995,-0.00028051780000000015,-0.0013775266000000002,3.431,0,0
-0.0053358,-0.0013530580000000003,0.0041556394,-0.0010197908,0.00012489379999999992,3.432,0,0
-0.006079916,-0.0041526919999999995,0.0020307362000000005,-0.0019366448,0.0005820676,3.433,0,0
-0.006098276,-0.006262020000000001,0.00119303492,-0.001781766,-0.0002136208000000001,3.434,0,0
-0.0044429932,-0.007360180000000001,0.00054657752,-0.00044915000000000005,0.00039192580000000006,3.435,0,0
-0.0023368479999999994,-0.0072687540000000005,0.00019425408,0.0020415060000000002,0.0021661238,3.436,0,0
-0.001198762,-0.006559110000000001,-0.00010415032000000002,0.0044834079999999995,0.0030619454,3.437,0,0
-0.0002731100000000001,-0.0048980196,-0.00025348472000000005,0.005518474,0.0038443216000000006,3.438,0,0
0.00044823,-0.0029982616,-0.00030520184,0.005438292,0.0045774480000000005,3.439,0,0
-0.00018530879999999997,-0.0010197376,-0.00037176224,0.0043644897999999994,0.0034418000000000005,3.44,0,0
-0.0017482740000000002,0.0013049064,-0.00057401,0.0018216618,0.0008951,3.441,0,0
-0.0033039260000000004,0.0025905883999999997,-0.0011345790000000001,-0.0008316382000000002,-0.0012331579999999998,3.442,0,0
-0.004654486000000001,0.0028852920000000002,-0.0018384574,-0.0022751322,-0.003053838,3.443,0,0
-0.0048989196,0.0036612240000000002,-0.002626961,-0.0034429942,-0.0050671940000000006,3.444,0,0
-0.0028714336000000007,0.0039057500000000004,-0.0031938192,-0.004528584,-0.005758682000000001,3.445,0,0
-0.0010951466000000002,0.0026540236000000004,-0.0034231319999999997,-0.005031678,-0.0046158372,3.446,0,0
-0.0014015185999999998,0.0015199296000000004,-0.00327494,-0.004958264,-0.0030387791999999998,3.447,0,0
-0.0024881765999999997,-0.0003665283999999998,-0.00291137,-0.005135680000000001,-0.0006848971999999999,3.448,0,0
-0.004250726999999999,-0.0032420644000000004,-0.0023116200000000003,-0.004579880000000001,0.0030056828000000002,3.449,0,0
-0.006111667,-0.0047174643999999995,-0.001330998,-0.00242483,0.0057759608,3.45,0,0
-0.004026774,-0.0052974400000000005,-9.037800000000001e-05,4.955999999999537e-06,0.00678677,3.451,0,0
0.0028611660000000005,-0.005701308,0.0013689540000000004,0.0026650959999999996,0.007078752000000001,3.452,0,0
0.009529886000000001,-0.004607334,0.0019873508000000004,0.0056028480000000006,0.00554404,3.453,0,0
0.013221652,-0.0020855820000000003,0.0008989688000000003,0.007871754,0.00275489,3.454,0,0
0.014078414000000001,-0.0003205059999999999,-0.0011774851999999999,0.008772276,0.00131446,3.455,0,0
0.012405182000000002,0.0008732900000000001,-0.0028798592000000003,0.009293754000000001,0.0004278834000000001,3.456,0,0
0.007696850200000001,0.0035116140000000006,-0.0032372812000000003,0.00979922,-0.0012399526,3.457,0,0
0.0019051621999999998,0.006301394,-0.0013832120000000004,0.01028068,-0.0021632926,3.458,0,0
-0.0014631098000000003,0.006717194,0.002592506,0.011109758,-0.0018514306000000003,3.459,0,0
-0.0028984378000000005,0.0057787412,0.005608906,0.011851532000000001,-0.002032524,3.46,0,0
-0.0038136658,0.0053486952,0.006220212,0.011921306000000001,-0.0022287582000000005,3.461,0,0
-0.0040145044000000005,0.004301309200000001,0.0057469958,0.010613644000000002,-0.0008101122000000002,3.462,0,0
-0.0034435724000000003,0.0023564792,0.003793191800000001,0.008140570000000001,0.00042099840000000004,3.463,0,0
-0.0026000504000000006,0.0011141176,0.0007270618000000001,0.004373185999999999,0.0006655264,3.464,0,0
-0.0013895454,0.00022971439999999992,-0.0006437786000000001,-0.0006151939999999999,0.0017541658,3.465,0,0
-0.0005604293999999999,-0.0013739636000000002,-0.00012970460000000003,-0.0055907000000000005,0.0031211306,3.466,0,0
0.00022761500000000013,-0.0037612876000000005,-3.72402e-05,-0.010342338,0.0033282446,3.467,0,0
0.0015300970000000002,-0.0062169576,0.0001284318,-0.015623584000000001,0.0036161840000000006,3.468,0,0
0.0021252938,-0.00808919,0.0007468858,-0.02027114,0.004449678,3.469,0,0
0.0026637788000000006,-0.009646362,0.0009184712,-0.02279336,0.0037520440000000004,3.47,0,0
0.0035899348000000006,-0.009992194,0.0012869492000000002,-0.024186060000000002,0.001965828,3.471,0,0
0.0037306068000000007,-0.0074966979999999996,0.001823781,-0.023493700000000003,0.000643026,3.472,0,0
0.0017350728,-0.0015825780000000003,0.0016651708,-0.019209376,-0.0011691700000000002,3.473,0,0
-0.0013419539999999998,0.005520782,0.0010190228,-0.014004802,-0.004242424,3.474,0,0
-0.00392303,0.011142322,6.873779999999976e-05,-0.009487708000000001,-0.007471508000000001,3.475,0,0
-0.007353702,0.014456902000000002,-0.0015183342000000002,-0.004907297020000001,-0.010446808000000002,3.476,0,0
-0.010416488000000002,0.0138729178,-0.0028280022000000005,-0.00121285102,-0.013501178,3.477,0,0
-0.008816926000000003,0.009100477800000003,-0.003266616,0.0018834449800000004,-0.01490494,3.478,0,0
-0.004123445999999999,0.0028180538000000003,-0.003298146,0.005964930980000001,-0.013356878000000003,3.479,0,0
-0.0019953414000000004,-0.0015212061999999998,-0.0031509,0.00981769698,-0.010505692000000002,3.48,0,0
-0.0009520494000000002,-0.0036030462000000004,-0.0030335020000000004,0.012320966000000001,-0.006727012,3.481,0,0
0.0012723705999999999,-0.004518094,-0.0031248700000000005,0.013395992,-0.001822072,3.482,0,0
0.0012605626,-0.004811220000000001,-0.003439984,0.01221155,0.002028114,3.483,0,0
-0.0005614808,-0.0049800980000000005,-0.0033923,0.009070439999999999,0.003968752,3.484,0,0
-0.0012387674000000001,-0.004319076000000001,-0.0025913384,0.005810367,0.005893266000000001,3.485,0,0
-0.0018207374000000004,-0.0031463500000000004,-0.0009984864,0.003809671,0.008059326,3.486,0,0
-0.0026043474,-0.0024045872,0.0011730555999999999,0.0031271190000000003,0.009153446,3.487,0,0
-0.0016884294,-0.0018776412,0.0032308156,0.0026321030000000002,0.010502760000000002,3.488,0,0
0.00010321999999999979,-0.0013418931999999999,0.0045147996,0.001385023,0.0115171,3.489,0,0
0.0022492980000000003,-0.0014179992000000002,0.0045457562,-8.311999999999903e-06,0.009613982,3.49,0,0
0.006297296000000001,-0.0016493111999999997,0.0029880662000000002,-0.002409828,0.005194842000000001,3.491,0,0
0.010356046,-9.097399999999953e-05,9.088419999999991e-05,-0.006444708,0.000320262,3.492,0,0
0.01028149,0.004352926,-0.0023501218000000004,-0.00998787,-0.004456578,3.493,0,0
0.00748474,0.008833220000000001,-0.0027026558000000007,-0.011282259999999999,-0.008693564,3.494,0,0
0.0057503066,0.00994311,-0.0013529840000000004,-0.011008532000000001,-0.00974381,3.495,0,0
0.0022046466000000004,0.00860123,-0.00012797800000000022,-0.009419697999999999,-0.0079438482,3.496,0,0
-0.0041874734,0.006001736000000001,0.00030362200000000014,-0.005108114,-0.005739888200000001,3.497,0,0
-0.0073353614000000004,0.0008056400000000007,0.0006698059999999999,0.0009426260000000002,-0.0031215902000000005,3.498,0,0
-0.0063933104,-0.004945380000000001,0.0007939460000000001,0.007214626000000001,-0.0002698962000000002,3.499,0,0
-0.004466341000000001,-0.0069595640000000005,0.0018037840000000001,0.013720666000000001,0.0013749518,3.5,0,0
-0.0011627610000000004,-0.006014799000000001,0.0037547260000000003,0.020257884,0.00237644,3.501,0,0
0.002320201,-0.0048711224000000004,0.004342986,0.02506504,0.0037908180000000005,3.502,0,0
0.0033543590000000008,-0.0040480504,0.0040192000000000005,0.02729098,0.004391412000000001,3.503,0,0
0.001755666,-0.0024980704,0.0029453960000000003,0.02709858,0.0038865640000000003,3.504,0,0
0.0005474979999999999,-0.0020836524,-0.0009630299999999999,0.024228740000000002,0.0037213919999999996,3.505,0,0
0.001682518,-0.0037314474,-0.00579023,0.019470854,0.004109168,3.506,0,0
0.002557704,-0.003940682,-0.007328492000000001,0.013601838,0.004119316,3.507,0,0
0.0027511980000000007,-0.001843462,-0.007001936,0.007658328,0.003750296,3.508,0,0
0.004584477400000001,0.0002582140000000001,-0.0064254004000000005,0.001675288,0.0032526502,3.509,0,0
0.005412547400000001,0.002066,-0.0047060204,-0.004480952,0.0015064121999999998,3.51,0,0
0.0039164314,0.004038888,-0.0025815844,-0.011120306,-0.0015388358000000004,3.511,0,0
0.0034030874000000005,0.003942508000000001,0.0005198116000000002,-0.01868701,-0.0041011578000000005,3.512,0,0
0.0037814794,0.0013417060000000005,0.0037465136,-0.02597198,-0.006316295800000001,3.513,0,0
0.00424467,-0.001781582,0.004158238,-0.0311397,-0.00755355,3.514,0,0
0.0033364980000000002,-0.004110848,0.0030282100000000004,-0.03266468,-0.00592498,3.515,0,0
0.00036267000000000005,-0.0047750660000000006,0.003602386,-0.030520679999999998,-0.003152002,3.516,0,0
-0.002747874,-0.0034925119999999997,0.0041033680000000005,-0.024524748,-0.0011865219999999998,3.517,0,0
-0.005760098,-0.0006424779999999993,0.00293033,-0.016272436,0.0007227746000000001,3.518,0,0
-0.009890222,0.002565744,0.0025708986000000005,-0.008625319999999999,0.0025694446000000004,3.519,0,0
-0.014272824,0.005129750000000001,0.0033176110000000003,-0.0025515899999999994,0.0027717786,3.52,0,0
-0.01758482,0.007313868000000001,0.0029200828000000008,0.0017296240000000001,0.0017558390200000003,3.521,0,0
-0.019179480000000002,0.007715022000000001,0.0009670928000000001,0.004590154000000001,0.00131945482,3.522,0,0
-0.016465174000000003,0.005199941999999999,-0.00014299719999999997,0.006958982000000001,0.00149155622,3.523,0,0
-0.010262954000000001,0.002682352,0.00034113020000000005,0.009388526000000001,0.0015437002200000003,3.524,0,0
-0.0032228739999999993,0.0012797399999999997,0.0008041698,0.011365976000000002,0.0023135162200000003,3.525,0,0
0.003065206,-0.0006358898000000001,0.001124945,0.013029482000000002,0.0040895258,3.526,0,0
0.006838525999999999,-0.0016333718,0.0013841877999999999,0.013998660000000001,0.005339916,3.527,0,0
0.0066077819999999995,-0.0004990958,0.0002995897999999999,0.013769800000000002,0.007146324000000001,3.528,0,0
0.004540232,-0.0005495698,-0.0017557302000000001,0.0129321,0.01026669,3.529,0,0
0.004235292,-0.0022454558,-0.0041009682,0.010940338,0.011780335999999999,3.53,0,0
0.004786392,-0.0033470300000000004,-0.006788227200000001,0.0074666360000000005,0.01102434,3.531,0,0
0.005632100000000001,-0.00451087,-0.008544954,0.0024254160000000006,0.00882535,3.532,0,0
0.005639104000000001,-0.004686652,-0.007224458,-0.004173684,0.0032345299999999994,3.533,0,0
0.0024131140000000005,-0.0022864120000000007,-0.00314095,-0.011267964,-0.00544485,3.534,0,0
-0.0029617660000000002,0.0002622499999999997,0.0009610500000000002,-0.017328162,-0.012994130000000001,3.535,0,0
-0.006752658000000001,0.000698532,0.0045654860000000005,-0.02084766,-0.018061180000000003,3.536,0,0
-0.006816402000000001,0.0005350720000000002,0.006969868,-0.02049932,-0.021437280000000003,3.537,0,0
-0.0022451879999999995,1.2633999999999866e-05,0.006549981000000001,-0.015792894000000002,-0.0212098,3.538,0,0
0.005240712000000001,-0.0017643280000000001,0.0039352575999999995,-0.008159694,-0.017455798,3.539,0,0
0.010856292,-0.0024264472,0.0017142708000000002,0.0005358860000000002,-0.013165262000000002,3.54,0,0
0.013848868000000002,-0.0006938952,0.00046166720000000004,0.007763006,-0.008824384000000001,3.541,0,0
0.014833784000000003,0.0014807808000000002,-0.0004094928,0.011373424,-0.004173772,3.542,0,0
0.012637022000000001,0.0026577548000000003,-0.0007360658,0.011151205999999999,-0.001215716,3.543,0,0
0.00930807,0.0035387868,-0.0018795004000000002,0.007846045999999999,-0.0007245999999999999,3.544,0,0
0.007585458,0.0038609840000000005,-0.0036574336,0.0035684740000000007,-0.0003992462,3.545,0,0
0.006614828,0.0023914240000000005,-0.0044904260000000005,0.0010745760000000003,0.0006442818,3.546,0,0
0.0051096019999999995,0.0005615100000000001,-0.0040696374,0.00142128,0.0025434298,3.547,0,0
0.00341723,-0.0006338320000000001,-0.0029556074000000004,0.003157966,0.0064637738,3.548,0,0
0.002117336,-0.00228648,-0.0012556974000000002,0.00529443,0.011637415800000002,3.549,0,0
0.0012429900000000002,-0.004076494,0.00041586339999999996,0.007163587999999999,0.015430426,3.55,0,0
0.000871182,-0.004630166,0.0012360314,0.008120234,0.017309480000000002,3.551,0,0
0.0006335913999999999,-0.0039934544399999996,0.0007788687999999999,0.008360392000000001,0.018618380000000004,3.552,0,0
1.7597399999999975e-05,-0.0030903964399999996,-0.0009339072000000002,0.008312936000000002,0.01914228,3.553,0,0
-0.0013844986,-0.0014204304399999998,-0.0022787272000000004,0.009030772000000001,0.01917972,3.554,0,0
-0.0031824666000000003,0.0004907755600000001,-0.0025920400000000003,0.010279026,0.02046308,3.555,0,0
-0.0050500746,0.0008859915600000001,-0.0020518380000000003,0.011460038,0.02268242,3.556,0,0
-0.007928478000000001,0.0009444644000000001,-0.0009199820000000002,0.012875238000000002,0.02316478,3.557,0,0
-0.01133415,0.0016529144000000003,-1.9139200000000008e-05,0.013741340000000001,0.021835519999999997,3.558,0,0
-0.014354948000000001,0.0018424224,0.0007573911999999999,0.013664200000000001,0.018954618000000003,3.559,0,0
-0.016632321999999998,0.0016782964,0.0018820351999999999,0.013685160000000002,0.012680876,3.56,0,0
-0.01773392,0.0025616424000000004,0.0022768531999999998,0.01348238,0.004943196,3.561,0,0
-0.016922100000000002,0.0034688080000000003,0.0027591892,0.011162464,-0.0019349040000000007,3.562,0,0
-0.014498942000000003,0.0024268626000000003,0.0043386144,0.006901666000000001,-0.009230644,3.563,0,0
-0.011582324000000001,0.0005118365999999999,0.004706862,0.0012109260000000006,-0.016775862000000002,3.564,0,0
-0.009450736,-0.0012612394000000003,0.0034960460000000005,-0.006643234,-0.022763820000000004,3.565,0,0
-0.009315376000000002,-0.0023092354000000003,0.0018288179999999996,-0.015729574,-0.02885978,3.566,0,0
-0.010209196,-0.0021799834,2.2379999999999796e-05,-0.023426278000000002,-0.034181460000000004,3.567,0,0
-0.011370994000000002,-0.001983164,-0.00143424,-0.027512760000000004,-0.03439206,3.568,0,0
-0.012568852000000002,-0.001613924,-0.0008848200000000001,-0.02821686,-0.029704018,3.569,0,0
-0.012608882000000002,2.7346199999999992e-05,0.00138809,-0.02632876,-0.022400961599999998,3.57,0,0
-0.0099070238,0.0016654442,0.00234654522,-0.02306586,-0.014367531599999999,3.571,0,0
-0.004194663800000001,0.0012545882000000001,0.0019623432200000005,-0.01890622,-0.0075602316,3.572,0,0
0.003421736200000001,0.0010984024,0.00167587802,-0.014471962000000001,-0.0059084916,3.573,0,0
0.0118624162,0.0027334864,0.0004658880199999999,-0.012313822000000002,-0.010477393599999999,3.574,0,0
0.020664618200000002,0.0038245882000000004,-0.00144634598,-0.012157602,-0.016224730000000003,3.575,0,0
0.02897702,0.0036778782000000004,-0.0013063276000000001,-0.012594282,-0.019610280000000004,3.576,0,0
0.03436256,0.0037250042000000006,-9.59356e-05,-0.015049762000000001,-0.021655780000000003,3.577,0,0
0.036781339999999996,0.004125404,-0.0008448863999999999,-0.020777300000000002,-0.02168192,3.578,0,0
0.037332420000000005,0.0032286448000000004,-0.0029048264,-0.02628286,-0.017165896,3.579,0,0
0.035446820000000004,0.0013731188000000003,-0.0049988384,-0.02772938,-0.010600450000000003,3.58,0,0
0.03138612,-0.0007607832,-0.006797568,-0.02464843,-0.0030657900000000014,3.581,0,0
0.025884440000000005,-0.0035087012000000004,-0.00663717,-0.015226189999999999,0.00804895,3.582,0,0
0.019591178,-0.0062273132,-0.003972056000000001,0.0018779500000000015,0.02186145,3.583,0,0
0.012569708,-0.008150082,0.00018440800000000005,0.021674290000000002,0.034395886,3.584,0,0
0.004460548000000001,-0.008898586,0.004911368,0.03627313,0.04170122,3.585,0,0
-0.004898912000000001,-0.008268164,0.00798695,0.04351178000000001,0.041956719999999996,3.586,0,0
-0.014542352000000001,-0.006191179600000001,0.0073712984,0.044702320000000004,0.036030530000000005,3.587,0,0
-0.022377170000000002,-0.003291841600000001,0.0042412564,0.03986648,0.025993741999999997,3.588,0,0
-0.02766102,-0.0006309756,0.0007746584,0.031886819999999996,0.014518686,3.589,0,0
-0.030391700000000004,0.0012554664000000001,-0.003996641600000001,0.025385960000000003,0.005265618,3.59,0,0
-0.0298494,0.0029791964,-0.0081990276,0.02156436,-8.225200000000032e-05,3.591,0,0
-0.02487742,0.004382718000000001,-0.008929596,0.018346059999999997,-0.0020964834000000003,3.592,0,0
-0.017362896,0.005540054000000001,-0.007109970000000001,0.01593916,-0.0008508094000000003,3.593,0,0
-0.01292589,0.007981656,-0.0023287360000000005,0.015389420000000001,0.0025115665999999996,3.594,0,0
-0.01279195,0.010410254,0.004255003999999999,0.01508914,0.0077136146,3.595,0,0
-0.01314757,0.010372914,0.00897127,0.01395741,0.0137163246,3.596,0,0
-0.014178310000000001,0.008514464,0.010729278000000002,0.010950892,0.016213166,3.597,0,0
-0.016503172,0.005507164,0.010487664,0.005897072000000001,0.015061384000000002,3.598,0,0
-0.016104832,0.0011588459999999998,0.0065046,0.0002250920000000001,0.012725206000000003,3.599,0,0
-0.012002986,-0.002327542,0.0005353739999999999,-0.0047135,0.009065026,3.6,0,0
-0.0073017938,-0.0034913798000000005,-0.0035967720000000003,-0.00826962,0.006661666,3.601,0,0
-0.0018352737999999995,-0.0034294598000000004,-0.0064402420000000005,-0.009906042,0.008622906,3.602,0,0
0.0052199842000000005,-0.0028062158,-0.0075956,-0.010332582,0.010805342,3.603,0,0
0.012157958200000001,-0.0021188538000000002,-0.00737682,-0.011599082000000002,0.0096235,3.604,0,0
0.018999532200000002,-0.0030822058000000005,-0.0055100546000000005,-0.014742490000000002,0.00433546,3.605,0,0
0.02547232,-0.005711782,-0.0019776665999999997,-0.018778760000000002,-0.00708752,3.606,0,0
0.028468220000000002,-0.006358864,0.0012750474000000004,-0.022501640000000003,-0.02371538,3.607,0,0
0.02514013,-0.004066496,0.0039773394,-0.025685720000000002,-0.04052862,3.608,0,0
0.018788726000000002,-0.0018201539999999994,0.0062327134,-0.026765080000000004,-0.05132362000000001,3.609,0,0
0.013511,0.0001329200000000005,0.006820354,-0.024817099999999998,-0.054332040000000005,3.61,0,0
0.008862424,0.0030907314000000003,0.005676654000000001,-0.02147828,-0.0508681,3.611,0,0
0.0061915040000000005,0.0041918294,0.004192688,-0.017775140000000002,-0.04083472,3.612,0,0
0.006920254000000001,0.0017660474,0.002156786,-0.012896574000000003,-0.026391360000000003,3.613,0,0
0.008603232,-0.0004672986000000002,9.321999999999998e-05,-0.007847434,-0.013141176,3.614,0,0
0.008174662000000001,-0.0013389506000000002,-0.001424308,-0.004487257999999999,-0.002483796,3.615,0,0
0.0065507612000000005,-0.002936434,-0.00270437,-0.0019992109999999994,0.006443344000000001,3.616,0,0
0.005100103200000001,-0.0047967,-0.0034767319999999997,0.000445945,0.011500044000000001,3.617,0,0
0.0037247732000000003,-0.005705678,-0.0038294679999999995,0.001928777,0.012793908000000001,3.618,0,0
0.0031718872,-0.00668379,-0.0034666543999999997,0.0027586950000000002,0.012609204000000002,3.619,0,0
0.0026465192,-0.007518254,-0.0017332483999999997,0.004613359,0.011502958,3.62,0,0
-0.00044246400000000005,-0.006108461999999999,0.0009141836000000003,0.007198352,0.009561008,3.621,0,0
-0.005571426000000001,-0.0035556619999999994,0.0024897176,0.009168476,0.008703598,3.622,0,0
-0.009322096,-0.0012429979999999995,0.0028580376000000005,0.011022418,0.009036214,3.623,0,0
-0.011913424,0.0022128760000000003,0.0030523956000000005,0.0128775,0.008713752000000002,3.624,0,0
-0.01359558,0.006202298,0.0026032596000000003,0.01348238,0.00868636,3.625,0,0
-0.012509186,0.008606038000000002,0.0017683176000000004,0.013251700000000002,0.00948145,3.626,0,0
-0.010461352,0.009617158,0.0014214836,0.0131514,0.009526390000000001,3.627,0,0
-0.010314111999999999,0.010163312,0.0012762516000000004,0.012582939999999999,0.009547670000000001,3.628,0,0
-0.010872912,0.008685362000000002,0.0005015000000000002,0.011037728,0.010072212,3.629,0,0
-0.010698612,0.005377556,-0.0008444380000000001,0.009499346000000002,0.009427692000000001,3.63,0,0
-0.010250454,0.0023809480000000004,-0.00261694,0.008147476,0.008427402,3.631,0,0
-0.009002152,-0.0004482039999999997,-0.004056732,0.006985814000000001,0.008081944,3.632,0,0
-0.007165588000000001,-0.003153776,-0.004401876000000001,0.006087416000000001,0.007654182000000001,3.633,0,0
-0.005459772,-0.0047251559999999995,-0.0037227986000000005,0.005764164,0.008746702,3.634,0,0
-0.0033707916,-0.004920108,-0.0020674046000000003,0.006938826,0.01205838,3.635,0,0
-0.0008746456000000001,-0.004736428,0.0008661714000000001,0.009066715999999999,0.01515491,3.636,0,0
0.0010155303999999997,-0.0037875408,0.0034457794,0.010463238,0.016180318,3.637,0,0
0.0024793424,-0.0020812968000000005,0.0027853793999999994,0.008386037999999998,0.014353350800000001,3.638,0,0
0.0041419284,-0.0006992488000000001,0.0004811579999999993,0.0029070419999999994,0.009352926800000001,3.639,0,0
0.004857456,0.0005657991999999999,-0.0012804399999999999,-0.0048175380000000005,0.00037964680000000025,3.64,0,0
0.0036953116,0.0019635932,-0.0029454760000000003,-0.015374338000000001,-0.0113619532,3.641,0,0
0.0020865716,0.0031454280000000005,-0.0034006900000000005,-0.027015778,-0.0225953932,3.642,0,0
0.0010039895999999998,0.003820908,-0.001249258,-0.03658412,-0.031681264,3.643,0,0
-0.0003008424000000001,0.00407942,0.0009171882000000003,-0.044096680000000006,-0.03810244,3.644,0,0
-0.0010406818000000002,0.0032484740000000003,0.0007973802000000002,-0.050086200000000004,-0.04052954,3.645,0,0
-0.0009560818,0.0014608440000000002,-0.0016257738000000001,-0.051455020000000004,-0.03859524000000001,3.646,0,0
-0.0012409338000000001,-0.00034281200000000006,-0.0058635298,-0.046481320000000007,-0.0335486,3.647,0,0
-0.0023812578,-0.0022532,-0.0085254938,-0.03699700400000001,-0.025837574,3.648,0,0
-0.0024303738,-0.004809472,-0.007125918,-0.024113136,-0.0170486,3.649,0,0
-6.488240000000018e-05,-0.007089176,-0.00392085,-0.007218895999999998,-0.008267330000000002,3.65,0,0
0.0038448639999999995,-0.0073442360000000005,-0.0013355580000000001,0.011147164000000001,0.0011989499999999998,3.651,0,0
0.008254824000000001,-0.006094272,0.0031271960000000005,0.027942944,0.011909030000000001,3.652,0,0
0.010851032,-0.004005896,0.007988128,0.045020348,0.023276524,3.653,0,0
0.011574608,-0.000382238,0.0068422686000000005,0.06127536000000001,0.03298319,3.654,0,0
0.010859328000000001,0.0034046200000000006,0.0013235486000000006,0.07114022,0.0397681,3.655,0,0
0.0071833420000000005,0.005105982,-0.0038563034,0.0739955,0.042758380000000006,3.656,0,0
0.0018583319999999999,0.005109486,-0.007473197399999999,0.07149974,0.04188272000000001,3.657,0,0
-0.0005263920000000005,0.004688764000000001,-0.0075746573999999995,0.06284884,0.03852936,3.658,0,0
-0.0019290160000000002,0.004761530000000001,-0.0033854999999999996,0.0494909,0.03261982,3.659,0,0
-0.006120696,0.005838192000000001,0.003197700000000001,0.035510955999999996,0.025988412000000002,3.66,0,0
-0.00994271,0.007174456000000001,0.010776360000000002,0.021202596,0.021510492000000003,3.661,0,0
-0.01473512,0.007953014000000001,0.014905636000000002,0.005423075999999999,0.018042812000000002,3.662,0,0
-0.023038214,0.007698538,0.012365036000000001,-0.009438704000000001,0.012735906000000002,3.663,0,0
-0.03111434,0.0060463014200000005,0.008263282,-0.021569024,0.006469366000000001,3.664,0,0
-0.035948919999999995,0.0034440114200000004,0.00570284,-0.03036906,0.0007247939999999991,3.665,0,0
-0.03683426,0.00034310942000000014,0.003301562,-0.036784300000000006,-0.007622566000000001,3.666,0,0
-0.031667096,-0.0028085385800000005,0.0015448150000000002,-0.04210986,-0.019194526000000003,3.667,0,0
-0.02159428,-0.0055838245800000005,0.000485373,-0.04461418000000001,-0.0294428,3.668,0,0
-0.010687512,-0.008098612000000002,-0.0011265950000000002,-0.0427548,-0.0341559,3.669,0,0
-0.0010596520000000003,-0.009372874,-0.002935743,-0.03753874000000001,-0.03451162000000001,3.67,0,0
0.0063662680000000004,-0.0083507396,-0.004044913000000001,-0.029031374800000002,-0.03216242,3.671,0,0
