bandpass 1,bandpass 2,bandpass 3,bandpass 4,bandpass 5,time,onset,mark
0.0018700360000000003,-0.01633634,0.00048797200000000004,-0.007845340000000001,-0.002501554,6.117,0,0
0.0028505500000000003,-0.022421080000000003,9.882800000000002e-05,-0.01009924,-0.003222298,6.118,0,0
0.0032361980000000005,-0.027537400000000004,-0.00098449,-0.011005672000000001,-0.003581954,6.119,0,0
0.0032856340000000004,-0.028236820000000003,-0.0021250320000000002,-0.0082748074,-0.0031824320000000002,6.12,0,0
0.0032624160000000006,-0.02692096,-0.00265187,-0.005005047400000001,-0.002171522,6.121,0,0
0.001960534,-0.023638820000000005,-0.0026733934,-0.0007396074000000003,-0.0004306879999999998,6.122,0,0
-0.00031053000000000027,-0.0173696224,-0.0022459392000000002,0.0036390726,0.0011168480000000001,6.123,0,0
-0.0024288280000000005,-0.009006302400000003,-0.0015343652000000003,0.0068546446,0.002704966,6.124,0,0
-0.004457320000000001,-0.0003696424000000009,-0.0009792312000000002,0.009580360000000001,0.004515882000000001,6.125,0,0
-0.005807642000000001,0.007440957600000001,-0.0008497448000000001,0.011489800000000001,0.00526116,6.126,0,0
-0.005182040000000001,0.0142930176,-0.0007036874,0.011015822000000002,0.004954116000000001,6.127,0,0
-0.0031229320000000006,0.02042148,-0.0005513212,0.008976808200000002,0.0043241078,6.128,0,0
-0.0016100060000000002,0.02389862,-1.3778200000000003e-05,0.0060132582000000006,0.0031366060000000005,6.129,0,0
-0.0006869059999999999,0.023637580000000002,0.0007112218,0.0014361442000000006,0.001097654,6.13,0,0
0.0006464980000000001,0.020829594,0.0011614354,-0.0034707158000000004,-0.00088407,6.131,0,0
0.0013809440000000003,0.015060194,0.0019481134,-0.006757357800000001,-0.002128156,6.132,0,0
0.001610204,0.005580114000000001,0.0025272790000000003,-0.008824987999999999,-0.0033045818000000003,6.133,0,0
0.00246128,-0.0037996060000000005,0.0024494216,-0.010369598,-0.004294092,6.134,0,0
0.003251059,-0.009165718,0.0021544776000000003,-0.010258942,-0.00419809,6.135,0,0
0.003144929,-0.010032412000000003,0.0018205558,-0.008591542,-0.00320953614,6.136,0,0
0.002638163,-0.007721013120000001,0.0006402138000000001,-0.006443038200000001,-0.00236317234,6.137,0,0
0.0020514110000000004,-0.005033359120000001,-0.0011012182,-0.0037133682,-0.00130412114,6.138,0,0
0.0015421516000000003,-0.00185050512,-0.0026113758000000003,1.3047800000000028e-05,0.00025626486000000006,6.139,0,0
0.0012694528,0.0025841268800000003,-0.0036804398,0.0037900858,0.0013851768600000001,6.14,0,0
0.0004771548000000002,0.006847626880000001,-0.0036190964400000004,0.0065690658,0.0020621470000000003,6.141,0,0
-0.0003343191999999998,0.010318288,-0.0024650064400000005,0.008666822000000001,0.0026833852,6.142,0,0
-0.0003825371999999999,0.013178374000000001,-0.00035301044000000015,0.009596066,0.002997236,6.143,0,0
0.0006181142,0.013162186,0.00221477756,0.008397302,0.0025271632,6.144,0,0
0.0017284420000000002,0.008810232000000001,0.00402047956,0.005747828,0.0016101432000000001,6.145,0,0
0.0021148200000000003,0.0026613720000000004,0.004374767999999999,0.002720468,0.0006468172000000001,6.146,0,0
0.002794312,-0.0048803480000000005,0.0038013940000000005,-0.001459712,-0.0007281828000000001,6.147,0,0
0.0030322720000000004,-0.014374008,0.0028795120000000003,-0.0056638420000000005,-0.0022989028,6.148,0,0
0.0022158340000000003,-0.024476234,0.0020929240000000003,-0.0076981260000000004,-0.00302817,6.149,0,0
0.0013602062,-0.03104364,0.0019384760000000002,-0.009026816,-0.00301546,6.15,0,0
0.0008620762,-0.03133868,0.002245458,-0.009795424,-0.002998816,6.151,0,0
0.00013176420000000005,-0.0272081302,0.0022190540000000003,-0.008123910000000002,-0.002203948,6.152,0,0
-0.00011512780000000003,-0.020671346200000003,0.0013580780000000004,-0.005260648000000001,-0.0008004580000000001,6.153,0,0
0.0003584161999999999,-0.012247294200000002,5.36979999999997e-05,-0.0028783920000000005,0.00023879999999999995,6.154,0,0
0.00033345439999999993,-0.0040281522,-0.001251682,0.0003716139999999997,0.0017335139999999998,6.155,0,0
0.0005190324,-0.00046774619999999986,-0.002250404,0.004225762,0.0033627960000000004,6.156,0,0
0.0009661751999999998,0.0005255020000000002,-0.0026234900000000005,0.006326564,0.004032898,6.157,0,0
-0.00033586080000000016,0.005929038,-0.0018970682000000005,0.007196728000000001,0.004324950000000001,6.158,0,0
-0.0031768508,0.016398646,-0.0010466906,0.007665252000000001,0.0044300220000000005,6.159,0,0
-0.0044363632,0.025433024000000002,-0.0008625126,0.006671454,0.0032171614000000006,6.16,0,0
-0.004008516,0.030120798,-0.0013801646,0.00453874348,0.0012207034,6.161,0,0
-0.0035481367999999998,0.031961800000000005,-0.0030635386000000004,0.00295812068,0.0001298293999999999,6.162,0,0
-0.0024557840000000004,0.029469560000000002,-0.005225448400000001,0.00202513668,-0.0006494306000000001,6.163,0,0
-0.00063503,0.02176358,-0.0070530720000000005,0.0008404778800000001,-0.0017186066,6.164,0,0
0.00047968700000000007,0.012240084000000002,-0.007458028,-0.00016715011999999998,-0.0020262300000000004,6.165,0,0
0.0002131474000000001,0.005239032000000001,-0.0043912199999999995,-0.0007833336,-0.001702588,6.166,0,0
-0.0006135226,0.0004901819999999996,0.0016128100000000005,-0.0017439488000000002,-0.002076216,6.167,0,0
-0.0008817814,-0.005304158000000001,0.0074481700000000005,-0.0027657628000000004,-0.0024818780000000003,6.168,0,0
-0.0005134762,-0.010463498,0.012023112,-0.0027838986,-0.0023317380000000003,6.169,0,0
-0.0004687492,-0.011558494,0.013749132,-0.0021893008,-0.002347828,6.17,0,0
-0.00039315760000000003,-0.011217149999999999,0.01122721,-0.0019830128000000004,-0.002409322,6.171,0,0
-0.0002983896,-0.01145572,0.006482512000000001,-0.0010382738,-0.002004494,6.172,0,0
-0.0006909736000000001,-0.009857716,0.0016331020000000002,0.0006388182,-0.0011740956,6.173,0,0
-0.0006185688000000001,-0.006665642,-0.002627992,0.0012905408,-0.0003400916,6.174,0,0
-5.776879999999998e-05,-0.0049306359999999995,-0.006088644000000001,0.001675489,0.0005700384000000001,6.175,0,0
-2.1612599999999936e-05,-0.0032753400000000003,-0.008469282,0.0028677470000000004,0.0015781224,6.176,0,0
-0.0004229526000000001,-0.0002637319999999997,-0.009132938,0.003027194,0.0022254344000000002,6.177,0,0
-0.0006131166000000001,0.0011097939999999999,-0.007553883999999999,0.0013522559999999998,0.0019936402,6.178,0,0
-0.0010610526,0.0007273159999999999,-0.005556990000000001,-1.373599999999987e-05,0.0014662782,6.179,0,0
-0.0013078666,0.000714256,-0.0036255939999999998,-0.001303614,0.0010035960000000003,6.18,0,0
-0.0012757699999999999,0.000700834,-0.00021987200000000008,-0.00303922,0.0004251358,6.181,0,0
-0.0011766100000000002,-9.342999999999987e-05,0.0029495140000000003,-0.0033785506000000003,0.00034074379999999996,6.182,0,0
-0.00026092000000000004,-7.180000000000023e-06,0.00395564,-0.0026220048,0.0005755596,6.183,0,0
0.0001119154,0.0010002880000000002,0.004496906,-0.0024160588000000003,0.00013907160000000004,6.184,0,0
-0.00019651060000000002,0.0013354220000000002,0.005460326000000001,-0.0019421828000000003,-0.0005219982,6.185,0,0
-1.6704199999999995e-05,0.001965702,0.004685910000000001,-0.00047964480000000015,-0.0009184320000000001,6.186,0,0
0.0004005368,0.003248816,0.0023978400000000005,7.5737999999998156e-06,-0.001727122,6.187,0,0
0.00025624680000000007,0.003971912,0.00048448200000000016,-0.00026946200000000015,-0.002192302,6.188,0,0
-0.00036361460000000005,0.002864952,-0.001075364,0.0008036399999999999,-0.001822792,6.189,0,0
-0.0008805086000000001,-0.0005304560000000003,-0.00222388,0.0022347540000000003,-0.0011158840000000001,6.19,0,0
-0.00048082699999999986,-0.005679282000000001,-0.0025554120000000004,0.002164004,-0.000289558,6.191,0,0
0.0008929700000000001,-0.011259640000000001,-0.0023762120000000004,0.0022532920000000005,0.000549916,6.192,0,0
0.001791192,-0.015146216,-0.001973864,0.003267428,0.001062306,6.193,0,0
0.00261244,-0.01677364,-0.0012708808,0.0029933760000000007,0.0010497172,6.194,0,0
0.0033597420000000006,-0.01644468,-0.0006552010000000001,0.0018116964000000001,0.0009882266,6.195,0,0
0.003245928000000001,-0.014115406,-0.0005026210000000001,0.0009718564,0.0008525386,6.196,0,0
0.0020682316,-0.008404296,-0.000542163,-0.00028285960000000004,0.0005959402000000001,6.197,0,0
0.0002797715999999998,0.0019503240000000007,-0.0008016430000000001,-0.0019555656000000005,0.00039465258,6.198,0,0
-0.0004905664,0.011949704,-0.0009732788000000002,-0.0027239176000000004,0.00057553358,6.199,0,0
-0.00025625840000000007,0.016792164000000002,-0.0007018626000000001,-0.0030188480000000006,0.00024511738,6.2,0,0
-0.0004951364,0.018318903194,-0.00039150520000000007,-0.0035119480000000004,-0.0009120026200000001,6.201,0,0
-0.0007299354000000002,0.015478183194,-5.655140000000006e-05,-0.0032547540000000003,-0.00144863222,6.202,0,0
-5.890000000000013e-06,0.007826575193999999,0.0005507346,-0.0025021618,-0.0015633518,6.203,0,0
0.00045247552000000007,0.0023723151940000004,0.0012170852,-0.0023971597999999997,-0.0019905500000000002,6.204,0,0
0.00020735352000000003,0.0013623671940000003,0.0013894752,-0.0019987607999999994,-0.0020694952000000003,6.205,0,0
-4.832047999999999e-05,0.0006815760000000005,0.0012843394000000001,-0.00042118280000000014,-0.0011104296000000002,6.206,0,0
-0.00047212108,6.820400000000053e-05,0.0010491776,0.0004594392000000001,-0.00033934760000000003,6.207,0,0
-0.00165267648,0.0005229640000000003,0.0003184215999999998,0.000745807,0.0001681996,6.208,0,0
-0.0035617,0.0036709439999999998,-0.0005200284,0.001837627,0.0009947656,6.209,0,0
-0.005236578,0.010540112,-0.000868888,0.002348408,0.0012046576,6.21,0,0
-0.00521234,0.01603031,-0.0007525986,0.001231466,0.0011469828,6.211,0,0
-0.003814682,0.017249208,-0.0003580366000000001,0.0005003259999999999,0.0011071208000000003,6.212,0,0
-0.001583596,0.012825316,0.0004680594,0.0006807860000000001,0.0006838908000000001,6.213,0,0
0.0015260159999999998,-0.0002594840000000008,0.0010921334,-0.00018845400000000004,0.00039599920000000003,6.214,0,0
0.003904808,-0.017234003999999997,0.001435705,-0.000926226,0.0007714132,6.215,0,0
0.0046657899999999995,-0.028688204000000002,0.0016305159999999998,-0.000244142,0.0010609124,6.216,0,0
0.00444974,-0.032212500000000005,0.001060906,-1.5056799999999974e-05,0.0010659864,6.217,0,0
0.004172008,-0.029694560000000002,-8.44760000000001e-05,-0.0006916408,0.0010983104800000002,6.218,0,0
0.0034773219999999997,-0.021999526200000005,-0.001500622,-0.0003280272,0.0007174040799999999,6.219,0,0
0.0026266452,-0.010744766199999999,-0.003108258,0.00019662280000000006,-0.00023774992,6.22,0,0
0.0013675132,0.0032825538,-0.004236576000000001,-0.00023564299999999995,-0.00124898392,6.221,0,0
-0.0008541608000000003,0.017540333800000002,-0.0038338684,0.00023091380000000005,-0.00162484732,6.222,0,0
-0.0027043988000000005,0.028665153800000003,-0.0025933744,0.0012820878000000002,-0.0015230554000000003,6.223,0,0
-0.0033213586000000006,0.03352430000000001,-0.0011854284,0.0013012848000000003,-0.0012601872000000004,6.224,0,0
-0.0033493512000000005,0.029819324,0.0005341556,0.0010658664,-0.00044695,6.225,0,0
-0.0031332372000000006,0.020096084,0.0017406916,0.0014011128000000002,0.0008378220000000001,6.226,0,0
-0.0012847992000000002,0.008692002,0.0020948280000000004,0.0009473268000000001,0.0014044894,6.227,0,0
-3.5074000000000024e-05,-0.0015724480000000006,0.0021963800000000004,7.209080000000005e-05,0.001195518,6.228,0,0
-0.0008731022,-0.007505296000000001,0.0026725380000000003,0.00018480820000000002,0.0013955778000000001,6.229,0,0
-0.0018774108000000002,-0.006915206,0.0032484799999999998,0.00032676440000000003,0.0015861206,6.23,0,0
-0.0024315828,-0.00514389,0.0035892800000000002,-0.00010017020000000003,0.0007568374,6.231,0,0
-0.0029474568,-0.005542114000000001,0.0035790720000000004,-0.00010411619999999998,0.0004552186,6.232,0,0
-0.0031700174,-0.005653358000000001,0.0030810526,0.00013327460000000003,0.0010622780000000003,6.233,0,0
-0.0020220273999999997,-0.005367358000000001,0.00227318414,-0.00036448139999999997,0.000810314,6.234,0,0
-0.0006257074,-0.0057500220000000005,0.0013238933400000002,-0.0006381248,0.0006283698,6.235,0,0
0.0005856466,-0.006561768000000001,0.00055512494,-0.00019408460000000004,0.001200147,6.236,0,0
0.0021170366000000003,-0.007135622,9.917469999999999e-05,-0.00011381460000000005,0.0011526022,6.237,0,0
0.00420006,-0.008555248000000001,-0.0002043287,-0.000268123,0.0007023648,6.238,0,0
0.005953778,-0.0112113,-0.00103450424,0.0002602230000000001,0.0009980008,6.239,0,0
0.006612844,-0.01268981,-0.00245326144,0.0007530866,0.0008430306000000001,6.24,0,0
0.0062123038,-0.009718609999999999,-0.0032748850400000002,0.0005272488000000002,-0.00012929940000000007,6.241,0,0
0.0042820398,-0.00368751,-0.0029917368000000003,0.0007642508000000001,-0.000278526,6.242,0,0
0.0016828857999999997,0.00248903,-0.0022297160000000005,0.0016157424,-0.00020738320000000004,6.243,0,0
-0.0006910782,0.008374050000000001,-0.0015357682000000006,0.0013885199999999999,-0.0008409232000000001,6.244,0,0
-0.0017563746000000002,0.011389908,-0.0007337682000000002,0.0005730199999999999,-0.0011084028,6.245,0,0
-0.0014889884,0.009105499999999999,-0.0006840962000000001,0.0006441513999999998,-0.0005745258,6.246,0,0
-0.00041884239999999997,0.002593119999999999,-0.0025693602,0.00012491539999999994,-0.0007176736,6.247,0,0
0.0012242956,-0.00593832,-0.0053156482,-0.0013392186000000003,-0.0012183810000000002,6.248,0,0
0.0027792755999999997,-0.014362220000000002,-0.007292392000000001,-0.0016219692000000003,-0.0009243132,6.249,0,0
0.003914298,-0.020017118,-0.007622978000000001,-0.0009568992000000002,-0.0006548028,6.25,0,0
0.004562294,-0.02199866,-0.005499984,-0.0007599690000000001,-0.0007197278,6.251,0,0
0.0039767392,-0.019587709999999998,-0.001591098,-7.925100000000007e-05,-0.0008199158,6.252,0,0
0.0019250252000000002,-0.010168410000000001,0.002218174,0.001017215,-0.0010046938000000001,6.253,0,0
-0.00020995479999999967,0.004147989999999999,0.005132772,0.000734414,-0.0011578456,6.254,0,0
-0.0020545588,0.01761741,0.006715586000000001,0.00020715999999999985,-0.0007976260000000001,6.255,0,0
-0.0032770627999999997,0.02671985,0.006463344,0.000655094,-0.00020191600000000023,6.256,0,0
-0.0029988712,0.028332954,0.005169108,0.00030970600000000003,0.0005406599999999999,6.257,0,0
-0.0012919212,0.020989633999999997,0.004148172,-0.000690004,0.0014461139999999999,6.258,0,0
0.0009318248,0.006915093999999998,0.0035541780000000003,-0.000426134,0.0016354852000000002,6.259,0,0
0.0024197628,-0.008738486,0.0026636900000000002,-0.000377658,0.0011243018,6.26,0,0
0.0024028848,-0.017601106,0.0011323939999999997,-0.001497812,0.00034963980000000006,6.261,0,0
0.0015303159999999994,-0.013539880000000004,-0.00019489600000000007,-0.0015932486000000002,-0.0006114862000000001,6.262,0,0
-0.0001483439999999998,-0.0003190000000000016,-0.00020865800000000002,-0.0006948506000000001,-0.0013055242000000002,6.263,0,0
-0.0028622860000000003,0.013991519999999999,0.00081116,-0.0003015978,-0.0013631180000000002,6.264,0,0
-0.004259098,0.0238176,0.0021525299999999997,-2.1751000000000084e-05,-0.0014528406000000002,6.265,0,0
-0.003327538,0.02555895,0.003237488,0.000753999,-0.0012274648,6.266,0,0
-0.0022308859999999996,0.01942294,0.003042024,0.0011610436,-0.000744365,6.267,0,0
-0.0011198488,0.008679313999999999,0.00113801,0.0008808296,-0.000991869,6.268,0,0
0.0004891024,-0.0004190340000000001,-0.0015734960000000004,0.0007271570000000001,-0.001086223,6.269,0,0
0.0007924744,-0.00354526,-0.004070544000000001,0.0006398302,-0.001163309,6.27,0,0
-0.00040052759999999996,-0.004219810000000001,-0.00521486,-0.0003018478,-0.0016598008000000002,6.271,0,0
-0.0015965096,-0.0055163,-0.003667316,-0.0015159918,-0.001716782,6.272,0,0
-0.0025799348,-0.006104562,-0.00141128,-0.0023479438,-0.00157221,6.273,0,0
-0.0035672840000000004,-0.00594605,-0.00035186,-0.0037124899999999997,-0.0016963474,6.274,0,0
-0.0035082159999999998,-0.006630308,0.0010914944000000003,-0.004408948,-0.0013611324,6.275,0,0
-0.002661212,-0.007107878,0.0016661375200000004,-0.003363044,-0.0006309776,6.276,0,0
-0.0017821876400000002,-0.006601112000000001,-0.00068706448,-0.0020244739999999996,-4.896620000000002e-05,6.277,0,0
-0.0006763636399999999,-0.006486245999999999,-0.00288826648,-0.000503164,0.0008188578,6.278,0,0
9.650636e-05,-0.005692055999999999,-0.0026496438799999997,0.002075976,0.0018814138,6.279,0,0
0.00023037475999999999,-0.0031078539999999993,-0.00229445628,0.003919584,0.0028373468000000004,6.28,0,0
0.00017157656,-0.0007692939999999999,-0.0016273014,0.0038396560000000003,0.00309407,6.281,0,0
0.0004414442,0.00020546400000000025,0.0006476706,0.0037446780000000004,0.0027994752,6.282,0,0
0.0005069542,0.0011268380000000002,0.0025878826000000003,0.0035855140000000006,0.0026928492000000003,6.283,0,0
0.0002683802,0.0012052120000000004,0.0029677600000000003,0.002340952,0.0020244284,6.284,0,0
-0.0004823862000000002,0.00013205600000000008,0.0022971340000000006,0.0011644036,0.0012206406,6.285,0,0
-0.0019519900000000002,-0.0003695739999999999,0.001570626,0.0011806116,0.0011926106,6.286,0,0
-0.003003774,-0.00043825999999999994,0.0006648894,0.0009499576,0.0008406463999999999,6.287,0,0
-0.0027668920000000004,-0.0017664540000000002,-0.00018178539999999996,-0.00015083239999999997,0.00017831039999999997,6.288,0,0
-0.0013323120000000004,-0.0032265239999999997,-0.00040084139999999995,-0.0005377004,2.8402399999999964e-05,6.289,0,0
-4.889600000000015e-05,-0.001652788,-0.0004802494,-0.0008725080000000001,-0.0004830918,6.29,0,0
0.0014689940000000002,0.00031715800000000054,-0.0005912178000000001,-0.002096558,-0.0014340758,6.291,0,0
0.0033221000000000006,-0.000889232,-0.000570693,-0.003070792,-0.0015282328,6.292,0,0
0.0040201920000000006,-0.00411947,-0.00018324420000000004,-0.002772538,-0.0010541110000000002,6.293,0,0
0.004413716,-0.009389068,0.0006576158000000001,-0.0024525790000000003,-0.0010527490000000002,6.294,0,0
0.005258972000000001,-0.016262506,0.0018109718000000003,-0.0024921270000000002,-0.0007148950000000001,6.295,0,0
0.0052363568,-0.017051678,0.0023265882,-0.0014919954,0.000181189,6.296,0,0
0.0029927988000000008,-0.009980266,0.0022840144,-0.00026291739999999996,0.00046234910000000006,6.297,0,0
0.0002426208000000003,-0.0032113179999999977,0.00205762886,0.00019749740000000004,0.00032409730000000007,6.298,0,0
-0.0014220498000000002,0.0025346060000000004,0.0014345408600000002,0.0009833384000000002,0.0004810245000000001,6.299,0,0
-0.0024801898,0.007729404000000002,0.0009483788600000001,0.0024704344,0.0006291059000000001,6.3,0,0
-0.0023400406,0.007787540000000001,0.00074176666,0.0031093028000000003,0.0004206809,6.301,0,0
-0.0008972506,0.004792300000000001,0.00041117426,0.0035462588000000003,0.0003430464,6.302,0,0
9.956940000000012e-05,0.0050667920000000005,-0.0010208142000000002,0.004062238,0.000391043,6.303,0,0
-0.00019697800000000005,0.005916310800000001,-0.0034316062000000003,0.0030039980000000003,0.0001748546,6.304,0,0
-0.00068993,0.0050324608,-0.0054953082,0.00126132,-0.0003609348,6.305,0,0
-0.0022933320000000004,0.009049790800000002,-0.006303532000000001,-8.177600000000009e-05,-0.0007786977999999999,6.306,0,0
-0.004110244,0.0170092508,-0.005118646000000001,-0.001745664,-0.0009574774,6.307,0,0
-0.004132878,0.0221387708,-0.002143818000000001,-0.0032955019999999996,-0.00123219,6.308,0,0
-0.004351862000000001,0.024485028,0.001163642,-0.0033732560000000003,-0.0012268609999999999,6.309,1,1
-0.0045679480000000005,0.024009164000000003,0.0038498940000000004,-0.0028136168000000004,-0.001111379,6.31,0,0
-0.0025387880000000006,0.015299183999999999,0.0046270168,-0.0025275168000000003,-0.0009456854000000001,6.311,0,0
0.0005633639999999998,0.00038440399999999965,0.0025219027999999998,-0.0020010688,-0.0006382682000000001,6.312,0,0
0.002552048,-0.011355916,-0.0006509712,-0.0009759928,-0.00039114270000000005,6.313,0,0
0.004280726,-0.017260296,-0.0033406792,-0.00017631280000000003,-5.1397700000000004e-05,6.314,0,0
0.005675572,-0.01817008,-0.0048180912,5.529179999999993e-05,0.0005765903,6.315,0,0
0.005120420200000001,-0.014467134,-0.003840022,0.0007394758,0.0011595347,6.316,0,0
0.0030606802000000006,-0.006491113999999999,-0.001161474,0.0016003317999999998,0.0013971495,6.317,0,0
0.0003680802000000005,0.0034455660000000006,0.0013333440000000002,0.0016888718,0.0015712674,6.318,0,0
-0.0019004138000000002,0.010301226,0.00318971,0.0017688218,0.0015707034,6.319,0,0
-0.0030462778,0.012709846,0.003763993,0.001965848,0.0013349896000000002,6.32,0,0
-0.0033194586,0.011144822,0.002647727,0.0010481980000000002,0.0008404796000000001,6.321,0,0
-0.0028647464,0.0047189020000000005,0.0009528610000000002,-0.0001646480000000001,0.0005401936,6.322,0,0
-0.0011635424000000002,-0.005776618,-3.7334599999999966e-05,-0.0007163860000000001,0.0005256998,6.323,0,0
0.0011409716,-0.015697018,0.00016939740000000003,-0.001870202,0.00014657179999999996,6.324,0,0
0.0027235076,-0.022174518,0.0010888664,-0.002941716,-0.00020069840000000002,6.325,0,0
0.0035299362000000005,-0.024940380000000005,0.0019261984000000002,-0.002478487,-0.0001400502,6.326,0,0
0.0034516614,-0.023217756000000003,0.0022186560000000003,-0.001838555,-0.00020101040000000003,6.327,0,0
0.0026043634000000003,-0.018664674000000003,0.0019863576,-0.0017796590000000003,-0.0005007044000000001,6.328,0,0
0.0010094834000000002,-0.010968662000000002,0.0011011076000000002,-0.0009130382,-0.00021120499999999998,6.329,0,0
-0.0009171725999999999,-0.0005428619999999999,-0.00012561839999999995,0.00041482780000000005,0.000244527,6.33,0,0
-0.0022751266,0.008362658000000002,-0.0009427794400000001,0.0009134788000000001,4.2990799999999995e-05,6.331,0,0
-0.002768342,0.014702014000000001,-0.0011196486400000003,0.0016499968000000002,0.00030696400000000006,6.332,0,0
-0.002977944,0.019558552,-0.00107388264,0.0030538108,0.0011063384,6.333,0,0
-0.0029029640000000005,0.020743820000000003,-0.00106798664,0.0038918880000000005,0.001326207,6.334,0,0
-0.0018477160000000003,0.016798906000000002,-0.0014367366400000001,0.004213004,0.001306225,6.335,0,0
-0.00021714400000000006,0.011230878000000001,-0.0023218716,0.004313748,0.0016376172,6.336,0,0
0.0010652720000000001,0.004889172,-0.002859194,0.0033196980000000003,0.0016146966,6.337,0,0
0.0020088280000000003,-0.0024614679999999996,-0.002838312,0.0012938860000000002,0.0010317642,6.338,0,0
0.003137854,-0.009329848,-0.0024452280000000002,-0.00038624199999999975,0.0006820024400000001,6.339,0,0
0.0037846460000000005,-0.015919494,-0.0018520016,-0.0016721840000000002,0.00020621044000000008,6.34,0,0
0.004060974,-0.020548726000000003,-0.0013929716,-0.00295297,-0.00056387176,6.341,0,0
0.0038177280000000003,-0.021605560000000003,-0.0012987376,-0.003167698,-0.00094104416,6.342,0,0
0.0025799760000000003,-0.017666834,-0.0011893862,-0.002551426,-0.00071607576,6.343,0,0
0.0013200280000000004,-0.009338194000000001,-0.0013126744000000004,-0.00259119,-0.0006979582000000001,6.344,0,0
0.00016981860000000006,-0.0008042339999999996,-0.00127292038,-0.00269821,-0.000642947,6.345,0,0
-0.0015854354000000002,0.006124606000000001,0.0007756056200000002,-0.0016643279999999999,0.000241841,6.346,0,0
-0.0031671774000000003,0.009935028000000002,0.0029076376200000004,-0.000788848,0.0005473660000000001,6.347,0,0
-0.0033702374,0.010362212000000003,0.0032462352200000005,-0.00035944419999999996,0.0001078126,6.348,0,0
-0.0034542074000000005,0.009889352,0.0038636594200000002,0.0013152898000000001,0.0003731528,6.349,0,0
-0.0037256620000000007,0.008684264,0.004666195000000001,0.0031044078000000003,0.0007454282000000001,6.35,0,0
-0.0023598560000000005,0.003980544000000001,0.003388241,0.0033373158,0.00027523420000000003,6.351,0,0
0.0006631500000000002,-0.0023661779999999996,0.0017080834,0.0033281737999999996,3.7867399999999996e-05,6.352,0,0
0.003203694,-0.0070502279999999995,0.0015769464,0.0034945239999999997,-0.00018209320000000002,6.353,0,0
0.004175712000000001,-0.009890058,0.0009810323999999999,0.002150234,-0.0012712132,6.354,0,0
0.004192594000000001,-0.00585161,-0.0005760076000000001,0.000293174,-0.0019981758000000003,6.355,0,0
0.0020117019999999998,0.006256749999999998,-0.0012349376000000002,-0.000689446,-0.0023879718000000003,6.356,0,0
-0.002286,0.01848741,-0.00043190600000000024,-0.001833142,-0.0033226140000000006,6.357,0,0
-0.005097154,0.02421979,0.0008740940000000001,-0.00303296,-0.00358493,6.358,0,0
-0.0053295764,0.023003272,0.002596246,-0.002981716,-0.0027187820000000003,6.359,0,0
-0.004346180400000001,0.015809272,0.004686794000000001,-0.0025634652,-0.0021503512,6.36,0,0
-0.0021625984,0.0037289120000000005,0.0051624938,-0.0025907432,-0.0018280052000000005,6.361,0,0
0.0007957476000000002,-0.007515088,0.0032916818,-0.0017867545999999998,-0.0007526404600000001,6.362,0,0
0.0027378696,-0.013141568000000001,0.00035399179999999995,-0.00031364260000000003,0.00033054954,6.363,0,0
0.0031168800000000003,-0.013329318,-0.0032519302,0.0004784434000000002,0.00062724554,6.364,0,0
0.0023720316000000003,-0.0113625598,-0.0067708122,0.0010262726000000002,0.0010060927400000002,6.365,0,0
0.0013168386,-0.007502035799999999,-0.008302512,0.0023680246,0.0018192467400000001,6.366,0,0
0.0003083786,0.0012459041999999996,-0.007487492,0.003173026,0.002078166,6.367,0,0
-0.0007941314000000001,0.0097806242,-0.005379076000000001,0.002799642,0.0016192498000000002,6.368,0,0
-0.0012757634,0.011810670200000001,-0.002685884,0.0024731856000000003,0.0013161192000000002,6.369,0,0
-0.0008239809999999999,0.010516646000000001,-0.00018428199999999991,0.0021928886000000002,0.0009980794,6.37,0,0
-0.00040925199999999976,0.008744416,0.000741764,0.0005229005999999997,0.0005234500000000001,6.371,0,0
-1.076819999999999e-05,0.0037470540000000005,-0.0005633540000000001,-0.0014116174000000001,0.0002902994,6.372,0,0
0.0005014584,-0.004059066,-0.0030334920000000005,-0.0023525694000000002,0.0001778506,6.373,0,0
-0.0004188715999999998,-0.008791334,-0.005143128,-0.0037630770000000005,-0.00017624480000000002,6.374,0,0
-0.0016523495999999998,-0.009327894,-0.005288541800000001,-0.004873378000000001,-0.000643619,6.375,0,0
-0.0013464056,-0.009987685999999999,-0.002049415800000001,-0.004235518000000001,-0.0010036656000000001,6.376,0,0
-0.0003872074000000001,-0.011484118,0.0031201482,-0.0029167980000000004,-0.0013001870000000002,6.377,0,0
0.000513778,-0.010965274,0.007157076200000001,-0.0020661598000000004,-0.001458464,6.378,0,0
0.0021098080000000003,-0.0089425,0.009373096200000002,-0.0004073238,-0.0014436079999999999,6.379,0,0
0.0037446380000000002,-0.006422452,0.009102564400000002,0.0011761462,-0.001237377,6.38,0,0
0.0032637776,-0.002352194,0.005834566400000001,0.0014748308,-0.0008737928,6.381,0,0
0.0013285056,0.001774,0.002174254000000001,0.0019836348,-0.0001438708,6.382,0,0
-0.00021389040000000035,0.005977836,-2.765739999999989e-05,0.0031525606,0.0005224171999999999,6.383,0,0
-0.0010757176000000001,0.009750022,-0.0011673054,0.0036916586,0.0011811052,6.384,0,0
-0.0018253548000000004,0.010390238,-0.0013568777999999999,0.0033379966000000004,0.0020214782000000002,6.385,0,0
-0.0018342724000000002,0.008682608,-0.000821486,0.003426490000000001,0.002551182,6.386,0,0
-0.0014035964000000001,0.006544049000000001,-0.0006960308000000001,0.0024527440000000006,0.0022455138,6.387,0,0
-0.0020121784,0.0033726190000000003,-0.0005040122000000001,0.000258586,0.0010530717999999999,6.388,0,0
-0.0020114228,-0.0004221489999999999,-9.32219999999999e-06,-0.0012130880000000002,-8.96441999999999e-05,6.389,0,0
-0.0011623016000000001,-0.0024471910000000005,-6.35562e-05,-0.0019004159999999998,-0.0013123602000000001,6.39,0,0
-0.0009873436000000003,-0.0032275768000000005,-0.0003289788,-0.0029552240000000002,-0.0029304082000000003,6.391,0,0
-0.0004432726000000002,-0.0036068657999999997,-0.0006888176,-0.003679104,-0.0038161980000000002,6.392,0,0
0.000839433,-0.0029750897999999996,-0.0012571708,-0.003206184,-0.0033477900000000002,6.393,0,0
0.0007189665999999999,-0.0016555410000000002,-0.0018575668,-0.003188508,-0.002974238,6.394,0,0
-0.0004946094,-0.0014449330000000002,-0.0021692668,-0.0027364048000000003,-0.00270544,6.395,0,0
-0.0005398914000000002,-0.0033495572,-0.002401464,-0.0007674227999999999,-0.0013021439999999999,6.396,0,0
0.00014499760000000005,-0.0063625492,-0.002139108,0.0011271652,9.96440000000003e-05,6.397,0,0
0.0013707220000000002,-0.0102156152,-0.00141557,0.0022588632000000003,0.0007974420000000002,6.398,0,0
0.0034936600000000004,-0.015008916,-0.0002963000000000001,0.0037927332000000005,0.0017338960000000002,6.399,0,0
0.005213562000000001,-0.01935932,0.0013508680000000003,0.004806030000000001,0.002541784,6.4,0,0
0.0054521560000000005,-0.022207980000000002,0.0025747720000000003,0.00409723,0.002402484,6.401,0,0
0.0050235406,-0.023837900000000002,0.00323008,0.003175068,0.002078358,6.402,0,0
0.0042628246,-0.023638520000000003,0.0031634556,0.0025494542,0.0019260280000000002,6.403,0,0
0.0023025517999999997,-0.018490441800000004,0.0020087356000000004,0.0011852922,0.0013703844934,6.404,0,0
-0.0005862681999999999,-0.004116741800000004,5.186359999999996e-05,-0.0009716858000000002,0.0006433104934000001,6.405,0,0
-0.0031496522,0.0178491982,-0.0018122324000000001,-0.0025208298000000003,0.00028240429340000003,6.406,0,0
-0.0047519288,0.03803547820000001,-0.0030526484,-0.0039613558,-0.00014979810659999996,6.407,0,0
-0.0049291928,0.0483610982,-0.0033326364,-0.005818148,-0.0007929141065999999,6.408,0,0
-0.004110626,0.048919352,-0.0020224564,-0.006496412,-0.0011832546,6.409,0,0
-0.0028810660000000003,0.039818538,0.00013275160000000017,-0.005555282,-0.0013874686,6.41,0,0
-0.0007812800000000001,0.021902310000000005,0.0018835396000000003,-0.003929864,-0.001441171,6.411,0,0
0.000440506,0.005335112,0.0034734416,-0.0017130539999999999,-0.0009667206,6.412,0,0
-0.00010320799999999998,-0.001695402,0.004272586,0.00120563,-0.0003815183999999999,6.413,0,0
-0.0008834156,-0.0018503359999999997,0.0032690484000000002,0.003418508,-0.00014571400000000005,6.414,0,0
-0.0007187088,-0.000864758,0.0016850244000000002,0.004556586,0.00020461800000000005,6.415,0,0
-0.0004924468,0.000882456,0.0007639724,0.005453984,0.0004238850000000001,6.416,0,0
-0.0013138328,0.003164998,-0.00024759919999999995,0.0057585579999999996,0.000294609,6.417,0,0
-0.0022007528000000005,0.004335224,-0.0012011352,0.0051551520000000005,0.0006141508,6.418,0,0
-0.0021420310000000004,0.0037570259999999997,-0.0012671496000000002,0.004700986000000001,0.0012689284,6.419,0,0
-0.0015697058000000003,0.0018244639999999996,-0.0009520498,0.004249692000000001,0.00133721788,6.42,0,0
-0.0010200978,-0.0012688019999999999,-0.0008113472000000001,0.002372896,0.0009486354799999999,6.421,0,0
0.0007547941999999999,-0.007192866000000001,-0.0009946816,0.000564634,0.00033243148000000014,6.422,0,0
0.0021905702,-0.014333818000000002,-0.0011297196000000002,-0.0005352159999999999,-0.0002858809200000001,6.423,0,0
0.0019531839999999997,-0.020686898000000002,-0.0011765316,-0.0025708199999999997,-0.0010627269200000002,6.424,0,0
0.0012987886000000001,-0.026201099999999998,-0.0006321974000000001,-0.0043364300000000005,-0.0017014964,6.425,0,0
0.00018481060000000008,-0.02984444,9.675000000000005e-05,-0.004583546,-0.0012631984000000002,6.426,0,0
-2.524739999999997e-05,-0.02966542,0.0005189260000000001,-0.00446239,-0.0006045963999999999,6.427,0,0
0.0017003186,-0.02577456,0.00047809200000000006,-0.004430342,-0.00039672880000000006,6.428,0,0
0.0036720486,-0.020320829999999998,-0.000961338,-0.0033931960000000007,0.00017174520000000002,6.429,0,0
0.004084308,-0.010551650000000001,-0.003063314,-0.0017977719999999998,0.0010506912000000001,6.43,0,0
0.0033291200000000005,0.004410849999999999,-0.004047314,-0.0008460719999999998,0.0011508772,6.431,0,0
0.0013110919999999998,0.01670729,-0.0032497579999999993,0.0001592840000000001,0.0012412812,6.432,0,0
-0.001784594,0.022646350000000003,-0.0017754039999999997,0.001659138,0.0018581320000000002,6.433,0,0
-0.003564424,0.025539370000000002,8.767520000000032e-05,0.002730502,0.0018061079999999998,6.434,0,0
-0.0034806800000000003,0.02442795,0.0019855592,0.002851056,0.001506722,6.435,0,0
-0.0024662664000000005,0.01843113,0.0027555372000000002,0.002982644,0.0018728540000000002,6.436,0,0
-0.0010992331999999999,0.01300349,0.0027033372,0.0024684804000000005,0.001978994,6.437,0,0
-8.216420000000001e-05,0.00975611,0.0032322212000000005,0.0003272123999999998,0.001498622,6.438,0,0
0.00013469640000000001,0.00610899,0.0038719060000000005,-0.0013474636000000001,0.001660916,6.439,0,0
0.0005958524000000001,0.0010618900000000002,0.0028225260000000005,-0.0021420856,0.0016627033999999999,6.44,0,0
0.0015973148000000001,-0.004746230000000001,0.0007238500000000003,-0.0033728516000000003,0.0003827793999999999,6.441,0,0
0.0022260976,-0.00929551,-0.002103526,-0.004006332,-0.0006190266,6.442,0,0
0.0026549466000000002,-0.011244710000000002,-0.004210376,-0.0028973552000000004,-0.0008816646000000001,6.443,0,0
0.002232434,-0.010215608000000001,-0.0028482100000000008,-0.00201405642,-0.0012552938,6.444,0,0
0.00042359000000000016,-0.0078632656,0.0004980180000000002,-0.0017565204200000002,-0.0010065732,6.445,0,0
-0.00148181,-0.0053226948000000005,0.0035787960000000004,-3.413641999999988e-05,0.00027662080000000005,6.446,0,0
-0.002739084,-0.0016447987999999999,0.005978052,0.0018269115800000004,0.0012130128000000001,6.447,0,0
-0.0031757584,0.0018381452,0.006231254,0.0027781047800000003,0.0013752512,6.448,0,0
-0.0025160204,0.0026024258,0.0033775560000000003,0.0038011020000000006,0.0016859304000000001,6.449,0,0
-0.0011247724000000001,0.0017222513999999996,-0.0005431500000000001,0.004817738,0.0018697804,6.45,0,0
-3.658340000000001e-05,0.0008149826000000001,-0.0035825100000000006,0.004585276,0.0013810598,6.451,0,0
0.0007792728,-0.0013025794,-0.005333686000000001,0.0032506256000000002,0.0011564698,6.452,0,0
0.0018671532,-0.0048530034,-0.005509440000000001,0.0022310726000000004,0.0012322324000000001,6.453,0,0
0.0029796872,-0.007778376,-0.004336048,0.0008994606000000001,0.0003951203999999999,6.454,0,0
0.0033504412,-0.009088704,-0.0028588794000000005,-0.0010996834,-0.0005384436000000001,6.455,0,0
0.0026867842000000003,-0.007551039999999999,-0.0016473234,-0.0024855214000000002,-0.0007069596,6.456,0,0
0.001780008,-0.003436074,-0.00036292819999999995,-0.003101667,-0.001110542,6.457,0,0
0.00011552399999999988,0.0003642719999999997,0.0002940892000000001,-0.004217548000000001,-0.001898781,6.458,0,0
-0.0023089960000000002,0.0046289420000000005,-1.1390799999999959e-05,-0.004707816000000001,-0.001896603,6.459,0,0
-0.003948186,0.008698788,0.00027095059999999993,-0.0038067340000000004,-0.001647043,6.46,0,0
-0.003975754,0.008890922,0.0015669466,-0.0032546420000000003,-0.0022527124,6.461,0,0
-0.0033167966,0.007234170000000001,0.0024735294,-0.0024028288,-0.0026632360000000002,6.462,0,0
-0.0027753293999999997,0.008088424,0.0024876244,-0.0003820468000000002,-0.0024158580000000003,6.463,0,0
-0.0021714214,0.009848054,0.0019596844,0.0011134451999999999,-0.0023084040000000004,6.464,0,0
-0.0014105778,0.010916608000000001,0.0009421723999999999,0.0020405512,-0.0021199924000000004,6.465,0,0
-0.00033818780000000005,0.012475968,-0.00026756359999999995,0.0038209592,-0.0013781092,6.466,0,0
0.00028743879999999994,0.013106620000000001,-0.0012527045999999999,0.005187740000000001,-0.0008112156000000001,6.467,0,0
0.0005507482000000001,0.010573381000000001,-0.00143469712,0.004933186000000001,-0.0004908888,6.468,0,0
0.0012147722,0.005365773000000001,-0.0006662791199999998,0.004789718,0.00014017119999999998,6.469,0,0
0.0019032825999999998,-0.0007242469999999999,8.851727999999997e-05,0.004381062,0.0004182742,6.47,0,0
0.0020005806,-0.009238087,0.00043411127999999996,0.0019305580000000004,0.000274823,6.471,0,0
0.0019925546,-0.019597687000000003,0.0008159382800000001,-0.0006327660000000001,0.0004332774,6.472,0,0
0.00212153,-0.027815728000000005,0.0010723664,-0.0018799160000000004,0.00027320839999999996,6.473,0,0
0.002077064,-0.031668520000000006,0.0008830164,-0.003291098,-0.0005143316000000001,6.474,0,0
0.001735144,-0.029349228,0.000650903,-0.004877842,-0.0010474262000000002,6.475,0,0
0.0009623979999999998,-0.019210988,0.00019329699999999988,-0.004425594000000001,-0.0010661210000000002,6.476,0,0
0.0004326307999999999,-0.004222948,-0.0007590410000000001,-0.0031552646000000003,-0.0010799251999999999,6.477,0,0
0.0002918734,0.009115392000000002,-0.0012305936000000003,-0.0030442606000000002,-0.0008436682,6.478,0,0
-1.472400000000003e-05,0.017612512,-0.0011047656,-0.0020630699999999997,0.00013365179999999999,6.479,0,0
-0.0005782020000000001,0.020550594000000002,-0.00026433260000000025,0.0003431940000000001,0.0011172197999999999,6.48,0,0
-0.0007563019999999999,0.018498020000000004,0.0014868854,0.0018945300000000002,0.0014648246,6.481,0,0
-0.0008995248,0.014668460000000003,0.0027123494000000003,0.0027019606000000004,0.0016646547999999998,6.482,0,0
-0.0016069674,0.013251140000000002,0.002353928,0.0045457926,0.002004778,6.483,0,0
-0.001723408,0.0130773,0.0003773399999999999,0.0057198480000000005,0.0014555098,6.484,0,0
-0.0012019390000000002,0.012164422,-0.0026672880000000003,0.0049240659999999995,0.0007776386,6.485,0,0
-0.0010342810000000002,0.010685438,-0.0054315940000000005,0.0039475188,0.0008636586000000001,6.486,0,0
-0.00098856,0.006508032,-0.006796588,0.0027913528000000007,0.0003068786,6.487,0,0
-0.00034270359999999996,-0.0006437279999999997,-0.0068696880000000005,0.00030861279999999983,-0.0005972874000000001,6.488,0,0
0.00026215639999999996,-0.008231248,-0.005783514000000001,-0.0023514572000000004,-0.0006591602000000001,6.489,0,0
0.0010036694000000001,-0.015587724000000002,-0.0039034400000000006,-0.0039520232,-0.0009470430000000001,6.49,0,0
0.0027792694,-0.024344626,-0.0021410280000000005,-0.005625398,-0.0019268970000000001,6.491,0,0
0.0044825784,-0.03206586,-0.0002767479999999996,-0.006880546,-0.001958319,6.492,0,0
0.005909648000000001,-0.03644116000000001,0.002271078,-0.006474186,-0.0013547074000000003,6.493,0,0
0.00643144,-0.0356939,0.004804504,-0.006010238,-0.0011897563999999998,6.494,0,0
0.00471817,-0.027547770000000006,0.005760594,-0.005381362000000001,-0.0006606084000000001,6.495,0,0
0.0018630420000000003,-0.014103310000000004,0.004612494,-0.0035243759999999996,0.0008072456,6.496,0,0
-0.000583322,0.0004625899999999997,0.0023760780000000002,-0.001337342,0.0018497316,6.497,0,0
-0.0024515500000000003,0.015071710000000002,3.191399999999975e-05,0.0003627039999999998,0.0022867680000000002,6.498,0,0
-0.004359504,0.02952867,-0.001120304,0.002819904,0.003107532,6.499,0,0
-0.005762548000000001,0.03760616,-0.00032599599999999984,0.005650542,0.003425392,6.5,0,0
-0.0056291959999999995,0.03742112,0.0013458239999999998,0.006596516,0.0027744552,6.501,0,0
-0.005172990000000001,0.034411840000000006,0.002859486,0.006692086,0.0017498632,6.502,0,0
-0.005478846000000001,0.029729600000000005,0.003533758,0.0064667760000000005,0.0007386191999999998,6.503,0,0
-0.004798906,0.019718251600000004,0.002971596,0.0047880178,-0.0004959928000000001,6.504,0,0
-0.0023847760000000003,0.007193151600000001,0.002044824,0.0019725598,-0.0016422168,6.505,0,0
-0.0008428120000000002,0.00014997160000000025,0.0019440940000000004,8.185180000000025e-05,-0.001893315,6.506,0,0
-0.00012258200000000004,-0.0023717841999999997,0.0022242440000000002,-0.0013326602000000001,-0.0014453480000000002,6.507,0,0
0.001524182,-0.0052085402,0.002264186,-0.0033481602000000003,-0.0010460402,6.508,0,0
0.00269337,-0.0077588118,0.0014563520000000002,-0.004129844000000001,-0.0005129938000000001,6.509,0,0
0.003051474,-0.008739671800000001,-0.0006448780000000002,-0.003811948,0.00034578020000000003,6.51,0,0
0.0032474540000000003,-0.0109314518,-0.0029354040000000004,-0.003940512,0.00017347119999999998,6.511,0,0
0.002821469,-0.014071436000000001,-0.004452884000000001,-0.003685218,-0.00041242380000000003,6.512,0,0
0.0014198350000000002,-0.014050036,-0.004613092,-0.0019328200000000002,-7.485559999999996e-05,6.513,0,0
0.00030357699999999997,-0.011913574000000001,-0.002897422,-0.000516472,0.00018757400000000008,6.514,0,0
-0.000649233,-0.008923512000000001,-0.0007197080000000003,0.0003446720000000001,0.00040322800000000005,6.515,0,0
-0.002319807,-0.0044854198,4.717800000000004e-05,0.002325616,0.0013133740000000002,6.516,0,0
-0.0023420520000000003,-0.0006378158000000002,-0.000168498,0.0044147660000000005,0.0023022620000000002,6.517,0,0
-0.000804894,0.0012336802,-0.001283032,0.005196064,0.0021269500000000003,6.518,0,0
0.00012213200000000006,0.0027245162,-0.002518028,0.005975664,0.0011231200000000002,6.519,0,0
0.0008237100000000001,0.0045817962,-0.0019872120000000004,0.006543452000000001,0.00014343200000000009,6.52,0,0
0.002134938,0.00538414,0.00025989600000000013,0.00488075,-0.0008636059999999999,6.521,0,0
0.002673742,0.004166148,0.0028417200000000003,0.00230577,-0.001684664,6.522,0,0
0.0017232654000000002,0.0014293219999999998,0.0045954260000000005,0.00030490400000000037,-0.002046062,6.523,0,0
0.0007180914,-0.002285636,0.005273216000000001,-0.002260864,-0.001871978,6.524,0,0
-0.00011715660000000003,-0.006139178,0.004767534,-0.005062762,-0.0016314080000000002,6.525,0,0
-0.0008541966000000002,-0.005900718000000001,0.0030077840000000003,-0.005837426000000001,-0.0013594096000000002,6.526,0,0
-0.0013317602000000003,-0.0014828899999999997,0.0007006880000000001,-0.005580992000000001,-0.0009641296000000002,6.527,0,0
-0.0012888054000000002,0.0018400240000000004,-0.000648934,-0.005386244000000001,-0.0002955376000000001,6.528,0,0
-0.0006502514,0.002811946,-0.0012248642,-0.003957784600000001,0.0006176084000000001,6.529,0,0
-0.0002492128,0.0023823260000000006,-0.0016340786000000004,-0.0013562286000000003,0.0013693744000000002,6.53,0,0
2.8545200000000006e-05,-0.00202873,-0.0013056271000000002,0.0005982014000000001,0.0018385360000000002,6.531,0,0
0.0006970908000000001,-0.010085170000000001,-0.0004639165,0.0019001514,0.001817755,6.532,0,0
0.0015157786,-0.014927917999999998,-0.0001828485,0.0034964354,0.001416687,6.533,0,0
0.0019767326,-0.014567,-0.0007081103,0.004004684,0.0006301450000000001,6.534,0,0
0.002490458,-0.010777684000000003,-0.0012386699,0.0034061300000000003,-0.00026640300000000007,6.535,0,0
0.002372952,-0.003571744000000001,-0.0018535814000000001,0.0027180232,-0.001040235,6.536,0,0
0.0006302379999999998,0.006907296,-0.002429618,0.0018677786000000003,-0.0018446180000000001,6.537,0,0
-0.0014979060000000002,0.018774116,-0.0023219906,0.0003269446,-0.0025355220000000006,6.538,0,0
-0.0030686660000000003,0.027726976,-0.0020879726,-0.0012544714000000002,-0.002808098,6.539,0,0
-0.0039845620000000005,0.030888660000000002,-0.0022295006,-0.0023695874000000004,-0.0027636480000000005,6.54,0,0
-0.0033575520000000006,0.02698392,-0.0024294566,-0.0035790366,-0.002645536,6.541,0,0
-0.0011481300000000002,0.01739468,-0.0027582386000000003,-0.004299146,-0.002022789,6.542,0,0
0.0006667520000000001,0.0049799000000000015,-0.0019412360000000003,-0.004066952,-0.001074939,6.543,0,0
0.002166008,-0.0085768,0.001259526,-0.00363867,-0.000352018,6.544,0,0
0.0031488440000000005,-0.01970076,0.00490571,-0.003256538,0.0004706880000000001,6.545,0,0
0.00228874,-0.025102760000000002,0.007344738,-0.0020752394,0.0014949680000000002,6.546,0,0
0.001082354,-0.026111420000000003,0.00855143,-0.0008128233999999998,0.002288005,6.547,0,0
0.0010611400000000001,-0.024450006,0.007145058,-0.0001438453999999999,0.002765955,6.548,0,0
0.000764062,-0.017869234,0.002598402,0.0011151246,0.00312868,6.549,0,0
-0.00031516000000000004,-0.006137194,-0.002395276,0.0027186466,0.0032079540000000003,6.55,0,0
-0.000551628,0.004919666,-0.006315192000000001,0.003362414,0.002623246,6.551,0,0
-0.001099166,0.011136766000000001,-0.009068504000000002,0.0035124180000000002,0.0016490040000000004,6.552,0,0
-0.002716248,0.014922678000000002,-0.009674197999999998,0.003910846,0.0006402040000000001,6.553,0,0
-0.00368824,0.016941286000000003,-0.007679924,0.0033128389999999997,-0.0005242720000000001,6.554,0,0
-0.0030031674,0.012003988,-0.0029984659999999995,0.0013894810000000001,-0.001620204,6.555,0,0
-0.0014184774,0.0025917479999999996,0.0026946939999999996,0.00011256299999999988,-0.002031344,6.556,0,0
0.0004559465999999998,-0.0038276119999999993,0.006474508,-0.000725187,-0.0022408740000000003,6.557,0,0
0.0021527786,-0.008817598000000001,0.00808773,-0.002354733,-0.00265577,6.558,0,0
0.0018746706,-0.010278166000000002,0.007685132000000001,-0.003266816,-0.0022134620000000002,6.559,0,0
8.379000000000004e-05,-0.005889828000000001,0.0044742620000000006,-0.0024619166000000004,-0.00159193672,6.56,0,0
-0.0015751760000000002,-0.0008565360000000008,0.0005834780000000001,-0.0018182116,-0.00148131892,6.561,0,0
-0.0028771928,0.0037910979999999997,-0.001291234,-0.0011178256,-0.0007989489199999999,6.562,0,0
-0.0032326928000000004,0.008486912000000001,-0.001955112,0.0007360304,0.00032493108000000004,6.563,0,0
-0.0018673408,0.0097749,-0.002187996,0.0019981584,0.0008191390800000001,6.564,0,0
0.00032884920000000005,0.007141474000000001,-0.0016666446,0.002412603,0.0010312238000000002,6.565,0,0
0.0013596928000000003,0.005932681800000001,-0.0011657277,0.003142502,0.0015653720000000002,6.566,0,0
0.0011359836000000001,0.0064110878000000005,-0.0007191948999999999,0.003358364,0.00133213158,6.567,0,0
0.0007002464000000001,0.005459931800000001,-3.346899999999973e-06,0.002620126,0.0004192495800000001,6.568,0,0
0.00022118220000000007,0.0036502878,0.0006085331000000001,0.0026139000000000006,1.763318000000001e-05,6.569,0,0
-0.0004729838,0.0035223038,0.0008612937000000002,0.0024992680000000002,-0.00016081241999999998,6.57,0,0
-0.0008274094000000001,0.00443011,0.0005464788,0.0008755519999999999,-0.00081406242,6.571,0,0
-0.0004146224700000001,0.0033197440000000003,2.6374000000000015e-05,-0.001084204,-0.001101234,6.572,0,0
-0.00016519727000000007,0.0012559499999999996,4.09740000000001e-05,-0.002575576,-0.0005132146,6.573,0,0
0.00015265292999999994,-0.0008140740000000001,0.0005704960000000001,-0.004456698,-0.0002686794,6.574,0,0
0.00111785893,-0.003766904,0.000574558,-0.005965852000000001,-0.0002460829999999999,6.575,0,0
0.00212918893,-0.007413009999999999,0.00041854600000000005,-0.005578784,0.000426031,6.576,0,0
0.003251996,-0.010829403999999999,0.000201358,-0.00464691,0.001182293,6.577,0,0
0.003475712,-0.013261747999999999,-0.0009858,-0.0035449866,0.0017677156,6.578,0,0
0.0025984919999999996,-0.0140761,-0.0019835176,-0.0016330006,0.0024457648,6.579,0,0
0.002340618,-0.013219896000000002,-0.0019601596,0.0003776614,0.002991502,6.58,0,0
0.002630158,-0.012135618,-0.00149489126,0.0016962494,0.002978966,6.581,0,0
0.0027012700000000004,-0.010737018,-0.0011168492599999999,0.0030776394,0.002768512,6.582,0,0
0.0023211876,-0.008011054000000002,-0.00101877326,0.004513856,0.002442548,6.583,0,0
0.0016026935999999999,-0.005052458000000001,-0.00147652366,0.005056168000000001,0.0016439624,6.584,0,0
0.00031048359999999984,-0.003314276,-0.00195357566,0.00506349,0.0010311047,6.585,0,0
-0.0015250184000000003,-0.0012838159999999997,-0.0018824471999999996,0.00505701,0.0011739187000000002,6.586,0,0
-0.0034024224000000006,0.0013768139999999999,-0.0014827468000000001,0.004413308,0.0012742167000000001,6.587,0,0
-0.00385802,0.0031593340000000006,-0.0005812765999999999,0.0024513879999999997,0.00014133669999999996,6.588,0,0
-0.0030334620000000002,0.008166538000000001,0.0007251114,0.00026581,-0.0009350237000000001,6.589,0,0
-0.002581598,0.015871552,0.0019397994,-0.0017216600000000003,-0.001687722,6.59,0,0
-0.0019199050000000002,0.019967494000000002,0.0027012846,-0.004214252000000001,-0.00313056,6.591,0,0
-0.001474085,0.02085124,0.0032264382,-0.006203414,-0.0042146219999999995,6.592,0,0
-0.0013310630000000002,0.019058918,0.003352304,-0.006365806000000001,-0.003916254,6.593,0,0
-0.0008784578000000001,0.010853758,0.0026771093999999997,-0.005929902000000001,-0.0031627459999999997,6.594,0,0
-0.0003569112000000001,-2.366200000000025e-05,0.0015746114,-0.005368892,-0.00285083,6.595,0,0
3.06638e-05,-0.005987628,0.0004318874,-0.00338931,-0.0020786482,6.596,0,0
0.00019285259999999996,-0.007355744200000001,-0.0009604946000000001,-0.0009673960000000002,-0.0012468238,6.597,0,0
0.0006129561999999999,-0.0061510188000000006,-0.0022469546,0.00084971,-0.0005177658000000002,6.598,0,0
0.001283817,-0.004674766800000001,-0.003000116,0.003340786,0.0005182322,6.599,0,0
0.0015644343999999999,-0.0033781508,-0.0033105000000000005,0.00593161,0.0012160002000000001,6.6,0,0
0.0010556464,-0.0015129967999999998,-0.002098768,0.006770432000000001,0.0012246418000000001,6.601,0,0
0.00015162360000000002,-0.0009373765999999998,-5.723999999999703e-06,0.006576062000000001,0.0011215410000000002,6.602,0,0
-0.00058179,-0.0014749779999999998,0.001044494,0.006014928,0.0006526270000000002,6.603,0,0
-0.0007265080000000002,-0.002419334,0.00149401,0.003944240000000001,-0.000997033,6.604,0,0
0.00012552400000000012,-0.00470681,0.001690194,0.0009948320000000002,-0.002342699,6.605,0,0
0.0016684260000000002,-0.008506637999999999,0.0006851006,-0.0007936140000000001,-0.0024833904,6.606,0,0
0.0029333680000000004,-0.009906166,-0.00046967940000000006,-0.001977952,-0.002296538,6.607,0,0
0.003319733,-0.006822711999999998,-0.0003155364000000001,-0.0035217139999999996,-0.0018098840000000003,6.608,0,0
0.0027462892000000004,-0.0021035079999999987,0.00018303560000000003,-0.00406852,-0.00053203,6.609,0,0
0.0014345952,0.001820378000000001,0.00030493560000000004,-0.0031081324,0.000939144,6.61,0,0
0.0001140612,0.004945642,0.00015417700000000008,-0.0024256128000000004,0.001548346,6.611,0,0
-0.00013857360000000003,0.007247718,0.00016729366000000005,-0.0016131324,0.001558242,6.612,0,0
1.2150599999999998e-05,0.0075025380000000004,6.600806000000004e-05,0.0004272636000000001,0.001942932,6.613,0,0
-0.0003558816,0.0070280180000000005,-0.00034866394,0.0020249656000000003,0.0022079400000000002,6.614,0,0
-0.0006283776,0.007494528,-0.00041515754,0.0025671360000000002,0.002134968,6.615,0,0
-0.0008938396,0.008705092000000001,-0.00048425154,0.0034231384,0.0023761760000000002,6.616,0,0
-0.0011582548000000001,0.008417850000000001,-0.0018458742,0.004397378,0.00249695,6.617,0,0
-0.0011782744000000001,0.0048632020000000005,-0.004829131600000001,0.004125834,0.001834218,6.618,0,0
-0.0007595904,0.0001638220000000001,-0.007473349600000002,0.0034281858,0.0009145000000000002,6.619,0,0
-0.0004991469999999999,-0.0032209139999999996,-0.008679528000000002,0.0027024616,0.00017489600000000012,6.62,0,0
-0.000879507,-0.005873732,-0.007051418000000001,0.0008375536,-0.0011574080000000002,6.621,0,0
-0.001408791,-0.00857203,-0.0009270520000000011,-0.0018501084000000002,-0.0024872160000000004,6.622,0,0
-0.0017923766,-0.010000142,0.006924668000000001,-0.0038822524000000002,-0.0030264080000000004,6.623,0,0
-0.0009307145999999998,-0.011490682000000002,0.013033568,-0.0051848042,-0.0033045760000000005,6.624,0,0
0.0009305580000000004,-0.013805162000000001,0.01639678,-0.006288952,-0.003364898,6.625,0,0
0.002378022,-0.014589332,0.015293172,-0.006176816000000001,-0.0024247260000000003,6.626,0,0
0.0025172180000000003,-0.014182694000000003,0.009555246000000002,-0.00505829,-0.0007765000000000001,6.627,0,0
0.0015299939999999998,-0.014802394,0.003498407999999999,-0.004130218,0.0003613519999999999,6.628,0,0
-0.0001312440000000004,-0.014570474,-0.0006987340000000002,-0.002965066,0.001244422,6.629,0,0
-0.0017769002000000006,-0.011208936000000001,-0.0033792379999999997,-0.0009983379999999997,0.0019085584,6.63,0,0
-0.0024906780000000005,-0.005908175999999999,-0.004256602,0.000605312,0.0017857388,6.631,0,0
-0.0029877200000000006,0.005975258000000001,-0.004042206,0.001688076,0.0013539428000000002,6.632,0,0
-0.0033984780000000003,0.024278558,-0.0034234540000000007,0.003378776,0.0012195168000000002,6.633,0,0
-0.003704278,0.038301498,-0.0031882440000000002,0.004462150000000001,0.0012727188000000002,6.634,0,0
-0.004015736400000001,0.044503100000000004,-0.0030917,0.00412426,0.0013487704000000001,6.635,0,0
-0.0037011866,0.04413304000000001,-0.0024312280000000006,0.0037975080000000002,0.0014409284,6.636,0,0
-0.0019541286,0.034070032,-0.002051874,0.0032158212000000003,0.0012366566000000002,6.637,0,0
0.0008097574,0.01779739,-0.0022553340000000003,0.0010036252,0.0007345338000000002,6.638,0,0
0.0028013734,0.006163943999999999,-0.002193386,-0.0015668648,0.0005141888,6.639,0,0
0.003385604,-0.00046399799999999997,-0.001900236,-0.0034219968,0.00021906980000000001,6.64,0,0
0.0032499160000000003,-0.006211758000000001,-0.0015854099999999998,-0.0054786008,-0.0003313326000000001,6.641,0,0
0.0032988440000000004,-0.01302695,-0.0007269339999999997,-0.00692549,-0.00038921740000000005,6.642,0,0
0.0033854680000000004,-0.022755408000000005,0.00015712440000000002,-0.006657652,-0.00029137240000000006,6.643,0,0
0.0029492640000000005,-0.032141382,0.0004555744,-0.005838698000000001,-0.0009386174,6.644,0,0
0.0026809748,-0.03654478,0.0004079383999999999,-0.00494372,-0.0012708964,6.645,0,0
0.0027866368,-0.035459279999999996,0.0001610212,-0.0030591680000000006,-0.00028571040000000003,6.646,0,0
0.0018685488,-0.029891942000000005,8.084319999999994e-05,-0.0007602640000000003,0.0005849402000000001,6.647,0,0
0.00014493480000000016,-0.018950622000000004,0.00041903080000000003,0.0011055600000000002,0.0014138840000000002,6.648,0,0
-0.0005206048,-0.006803934000000002,0.0007334780000000001,0.0035258800000000003,0.0029087540000000004,6.649,0,0
-0.0006498696,0.0022746859999999997,0.00062248,0.006668917999999999,0.004000058000000001,6.65,0,0
-0.0017240956000000001,0.010069106000000001,0.00012134520000000009,0.008757006000000001,0.0035546702000000003,6.651,0,0
-0.0023966736,0.016525028,-0.00020896559999999996,0.009297122000000001,0.0023772582000000002,6.652,0,0
-0.0021969856000000005,0.020429068,-0.0004091436,0.009362045999999999,0.0012052362,6.653,0,0
-0.0029946380000000004,0.02335916,-0.0004489568,0.008257575999999999,-0.00036882380000000006,6.654,0,0
-0.0040439460000000005,0.024319100000000003,-0.00015670839999999998,0.004973112,-0.0020881958000000004,6.655,0,0
-0.0035157922000000003,0.020770760000000003,-0.00038091239999999993,0.0016106100000000002,-0.003117924,6.656,0,0
-0.0020174742,0.014982766599999999,-0.0015276235999999999,-0.000449458,-0.0030191980000000003,6.657,0,0
-0.0008226122000000002,0.0096867826,-0.0028694256000000003,-0.002457822,-0.00307989,6.658,0,0
0.0004562438,0.0044572086,-0.0040417596,-0.0035274700000000004,-0.0029290180000000002,6.659,0,0
0.0016441818000000003,-0.0015303314000000008,-0.005318242,-0.002498068,-0.0019566478,6.66,0,0
0.0021188920000000003,-0.0059885114,-0.005426624,-0.001053658,-0.0005061218000000002,6.661,0,0
0.002332978,-0.008271198,-0.0042928654,8.457399999999991e-05,0.0003587162,6.662,0,0
0.0017043327999999999,-0.008406278000000001,-0.0024196253999999996,0.00022833399999999996,-0.0005608278,6.663,0,0
0.0009689307999999998,-0.00702089,0.0008601086000000003,-0.002635166,-0.0021333118000000004,6.664,0,0
0.0012573708000000001,-0.0072022100000000006,0.004291066600000001,-0.007511104000000001,-0.0035560220000000003,6.665,0,0
0.0014009608,-0.00941821,0.006345096600000001,-0.012502112,-0.005313674000000001,6.666,0,0
0.0012094268,-0.01421995,0.007335504,-0.017558272,-0.0068770260000000005,6.667,0,0
0.001984192,-0.022220226000000003,0.00741852,-0.01997064,-0.005786637000000001,6.668,0,0
0.0029523200000000005,-0.030202200000000002,0.006246208,-0.017109278000000002,-0.002794841,6.669,0,0
0.0028099360000000007,-0.03292998,0.004963476,-0.010909204,6.821300000000013e-05,6.67,0,0
0.0024302186000000003,-0.031042880000000002,0.004227864,-0.0027557240000000015,0.0030798730000000003,6.671,0,0
0.0017559130000000002,-0.024385738000000004,0.003329439,0.007394515999999999,0.006309235,6.672,0,0
0.000597173,-0.011684778000000003,0.001726633,0.017307416,0.008869464,6.673,0,0
-0.0007885430000000001,0.002415082,-0.0001893909999999997,0.024740674,0.010054608000000001,6.674,0,0
-0.002709731,0.018533882,-0.001974119,0.029746820000000004,0.010363042000000001,6.675,0,0
-0.004754949600000001,0.038104542,-0.003254561,0.031405560000000006,0.009479528000000001,6.676,0,0
-0.005950142,0.05317814,-0.004398458,0.0279917,0.007333799,6.677,0,0
-0.0057173726,0.05721954,-0.006199128,0.020557082000000004,0.004419711000000001,6.678,0,0
-0.0053017766,0.05404042,-0.007655272000000001,0.011064562,0.000988647,6.679,0,0
-0.0043648686,0.043718691999999997,-0.007231942000000001,-0.00017463799999999953,-0.002487861,6.68,0,0
-0.0019418566000000003,0.023962912000000003,-0.004817946,-0.011577158,-0.005296645,6.681,0,0
-0.0002049785999999999,0.004013072000000001,-0.0005460500000000006,-0.020009317999999998,-0.007208726,6.682,0,0
0.00045083399999999995,-0.010399008000000001,0.0050271299999999994,-0.025304399999999998,-0.008415848,6.683,0,0
0.0016096700000000001,-0.022337828000000004,0.009135694,-0.02830912,-0.008562576,6.684,0,0
0.002602848,-0.031832780000000005,0.010450544,-0.027139840000000005,-0.007275778000000001,6.685,0,0
0.0026879600000000005,-0.037061960000000005,0.008509724,-0.021432486000000004,-0.004737678,6.686,0,0
0.0030141800000000004,-0.0387169,0.003990886000000001,-0.014036816,-0.0019511880000000002,6.687,0,0
0.0029724900000000004,-0.03764554,-0.0004941080000000003,-0.005403736,0.001007836,6.688,0,0
0.0019674920000000004,-0.03331486,-0.002905512,0.005182763999999999,0.004026518,6.689,0,0
0.0011944060000000003,-0.026043986,-0.003381098,0.014640484000000002,0.0060478139999999994,6.69,0,0
0.0007154808000000002,-0.01684123,-0.003922508,0.02091463,0.006924278,6.691,0,0
-0.00012277360000000005,-0.005680850000000001,-0.00490139,0.02515754,0.007075696,6.692,0,0
-0.0011146556000000002,0.006704150000000001,-0.0063031960000000005,0.02629464,0.0060412602,6.693,0,0
-0.0011898756000000002,0.019558230000000003,-0.00695012,0.022630228000000002,0.0036605042,6.694,0,0
-0.0009827316000000001,0.030355476,-0.005456641999999999,0.015665468,0.0009601742000000001,6.695,0,0
-0.0007807464000000002,0.033854220000000004,-0.0022968920000000005,0.007086067999999999,-0.0020706918,6.696,0,0
-0.0004372780000000002,0.03231402,0.0017274040000000003,-0.002766152,-0.0050966578,6.697,0,0
-0.000522944,0.02888138,0.005940268,-0.011746432000000001,-0.006888466,6.698,0,0
-0.00023956900000000002,0.018690388000000002,0.00802684,-0.01826812,-0.007513822000000001,6.699,0,0
0.000884045,0.003237847999999999,0.006415151400000001,-0.02293856,-0.007765478000000001,6.7,0,0
0.001756329,-0.008879572000000002,0.0039247530000000004,-0.025329420000000002,-0.00744034,6.701,0,0
0.002383161,-0.016432772000000002,0.0019224730000000005,-0.02437362,-0.005981122,6.702,0,0
0.0033995790000000007,-0.019476374,0.00010026499999999999,-0.020758932000000004,-0.0041565759999999995,6.703,0,0
0.0033854942000000002,-0.015761562000000003,-0.001393771,-0.015286912,-0.0019053559999999998,6.704,0,0
0.0019713562,-0.007377862,-0.0027609804,-0.007156971999999999,0.0011132220000000003,6.705,0,0
-0.00010079780000000018,0.0036051980000000004,-0.003587782,0.0018404479999999989,0.003816938,6.706,0,0
-0.0013127238,0.012933258,-0.0035894860000000002,0.009361668,0.005535716,6.707,0,0
-0.0012894878,0.01679684,-0.003219492,0.01559498,0.006722336000000001,6.708,0,0
-0.0016527280000000002,0.0182385,-0.002877152,0.020016060000000002,0.007295298,6.709,0,0
-0.0017136360000000002,0.018865840000000002,-0.002328118,0.021164080000000002,0.006109544,6.71,0,0
-0.0008759592,0.016251091999999998,-0.0017829620000000001,0.019485640000000002,0.004363416199999999,6.711,0,0
-0.0002780452,0.01099537,-0.00190362,0.015857464,0.0031915140000000003,6.712,0,0
-0.0007330224600000001,0.00524558,-0.0020724619999999997,0.009483908000000001,0.0013849340000000002,6.713,0,0
-0.00094284646,-0.00171576,-0.0008252139999999999,0.0015400080000000007,-0.0012600480000000002,6.714,0,0
-0.00010395245999999999,-0.00950522,0.001612512,-0.005527712,-0.003162962,6.715,0,0
0.0005338647400000001,-0.016052052,0.004094096,-0.011231792,-0.004218812200000001,6.716,0,0
0.0004979847400000001,-0.02083963,0.006108036000000001,-0.015363536,-0.005390356000000001,6.717,0,0
0.0007298660000000002,-0.02428082,0.007385032,-0.01621852,-0.005155320600000001,6.718,0,0
0.0014134024000000004,-0.02536808,0.0066501886,-0.013946010000000002,-0.0033416366,6.719,0,0
0.0011946856,-0.023436039999999998,0.0038838265999999993,-0.010456509600000002,-0.0014715546,6.72,0,0
0.0005442508000000001,-0.019404302000000002,0.0005717746000000004,-0.005472765600000001,0.0005799313999999999,6.721,0,0
-5.408720000000004e-05,-0.013328042000000002,-0.0022535834,0.0012565144000000002,0.0030264114000000003,6.722,0,0
-0.0006554672,-0.005612362000000001,-0.0035385814,0.007223114400000001,0.00430209,6.723,0,0
-0.0010326616,0.0021674380000000003,-0.0030688999999999994,0.011267084400000002,0.004664248,6.724,0,0
-0.0015107828000000003,0.008319958,-0.001672976,0.014358504000000001,0.005201778000000001,6.725,0,0
-0.0014787796000000001,0.013002,-0.0002987104,0.015603380000000002,0.0045740814,6.726,0,0
-0.0009334776000000001,0.0163832,0.0006585596000000001,0.014096334,0.0029963528,6.727,0,0
-0.0006788698000000002,0.01701348,0.00012948959999999998,0.010382182000000002,0.0015458748,6.728,0,0
-0.0005042860000000002,0.014857274,-0.0020322003999999998,0.005821398,-0.0001807352000000002,6.729,0,0
9.121179999999999e-05,0.011166464000000001,-0.0046600164,0.0004448179999999996,-0.0022510592,6.73,0,0
0.00042019539999999997,0.005749564,-0.006638144,-0.005668422,-0.0036213526,6.731,0,0
0.000300484,-0.002522216,-0.0063678978,-0.010534496,-0.004716056000000001,6.732,0,0
0.0005836858000000001,-0.012767896,-0.0034518938,-0.013621663999999999,-0.005547398,6.733,0,0
0.001138612,-0.022305730000000003,0.0006944382,-0.01536326,-0.00547222,6.734,0,0
0.0013666802000000002,-0.028487280000000004,0.004652710200000001,-0.014728328,-0.0049058,6.735,0,0
0.0010919608000000002,-0.029347240000000004,0.007310026200000001,-0.011583998000000002,-0.0037444460000000002,6.736,0,0
0.0006146762,-0.023051300000000004,0.007214234,-0.007886834,-0.0023443372000000002,6.737,0,0
0.0007355326000000001,-0.011251020000000004,0.00446559,-0.0030030119999999993,-0.0005634151999999999,6.738,0,0
0.0006892906000000002,0.0030294000000000015,0.0014537639999999998,0.0031553680000000004,0.0015583888,6.739,0,0
-0.0006186893999999999,0.018740680000000003,-0.0005524860000000003,0.007958056000000002,0.0032741648,6.74,0,0
-0.0020935600000000004,0.030275540000000004,-0.001550571,0.011265726,0.0044445348,6.741,0,0
-0.0029914440000000002,0.03335880000000001,-0.0011206410000000001,0.013935802,0.005249918000000001,6.742,0,0
-0.003971742,0.0317887,-0.0006041627999999999,0.01460468,0.004926266000000001,6.743,0,0
-0.004087908,0.026960498000000003,-0.0010235468,0.01193331,0.0029438360000000005,6.744,0,0
-0.0025723640000000006,0.017501678000000003,-0.0014494608000000001,0.008007918000000001,0.0007280800000000001,6.745,0,0
-0.0009817492,0.008724012,-0.0016711338000000003,0.003938996,-0.001100326,6.746,0,0
0.00038385359999999996,0.0039571566,-0.0014778698000000004,-0.0014606240000000004,-0.003075074,6.747,0,0
0.0015203876,-0.0005380234,-0.0001945740000000001,-0.006763164,-0.00459686,6.748,0,0
0.0018011436,-0.0049413414,0.001565294,-0.010188834,-0.0046125820000000005,6.749,0,0
0.0020932716,-0.0083838014,0.0027914540000000005,-0.012269822000000001,-0.0038218780000000003,6.75,0,0
0.0031210408000000005,-0.0117694754,0.0030168294000000005,-0.013456200000000001,-0.0030396758,6.751,0,0
0.003757728,-0.014887180000000002,0.0013994914,-0.012187242000000001,-0.0014102338000000002,6.752,0,0
0.0033888106,-0.01571316,-0.0011811686,-0.008660544000000001,0.0007312721999999999,6.753,0,0
0.0022732586,-0.012606447800000002,-0.0032921126,-0.004739252,0.0021183582,6.754,0,0
0.0008414646000000002,-0.0081823298,-0.0044763766,-0.00023282800000000024,0.0033817542,6.755,0,0
-0.0007666934,-0.0038423577999999996,-0.004010648,0.004561672,0.004267372,6.756,0,0
-0.0027472994,0.0012734222,-0.0026349100000000003,0.0076807540000000014,0.0039489780000000006,6.757,0,0
-0.003589434,0.0061730021999999996,-0.0012797800000000001,0.009094150000000002,0.003477206,6.758,0,0
-0.003018270832,0.00881351,-0.00042697400000000005,0.010243386000000002,0.00296139,6.759,0,0
-0.0023851318319999997,0.010166612,-0.0009106280000000001,0.009457688,0.001701,6.76,0,0
-0.0013107498319999997,0.010594772,-0.002320048,0.006356634,0.00020421200000000006,6.761,0,0
0.00037861816800000003,0.007991954,-0.004009366,0.0034986540000000008,-0.000845922,6.762,0,0
0.001257129368,0.003664976000000001,-0.0045701019999999995,0.0006883360000000001,-0.002057474,6.763,0,0
0.0014392892000000001,-0.0023688040000000004,-0.0024785399999999996,-0.0029751680000000003,-0.003368504,6.764,0,0
0.0016735642,-0.009940744000000001,0.0005744460000000002,-0.005564054000000001,-0.003650638,6.765,0,0
0.0015575662,-0.014490636,0.0036974140000000004,-0.006034480000000001,-0.003402344,6.766,0,0
0.0013959722000000002,-0.015283966000000001,0.007361898,-0.00658755,-0.003313626,6.767,0,0
0.0013973262000000002,-0.015888228,0.009016408,-0.007254778,-0.002815698,6.768,0,0
0.0015376632000000002,-0.015953508,0.0074399672000000005,-0.006136712000000001,-0.001711898,6.769,0,0
0.0016357152000000001,-0.014684788,0.0052259052,-0.0044254556,-0.0010652506,6.77,0,0
0.0018032172000000003,-0.016112388,0.0030079232,-0.0028235796000000003,-0.00021925459999999988,6.771,0,0
0.0021280632000000004,-0.01809692,0.00042510719999999994,0.0003499244000000001,0.0016896834000000001,6.772,0,0
0.0017835700000000002,-0.015245934000000001,-0.0013245908000000001,0.004103656400000001,0.0030225954000000005,6.773,0,0
0.0013277626000000003,-0.008109194000000002,-0.001999158,0.006221636400000001,0.0042702074,6.774,0,0
0.00032510060000000003,0.004380726,-0.002299032,0.007511948000000001,0.005499828000000001,6.775,0,0
-0.0015496694,0.018280746,-0.002975356,0.008026148,0.005594018000000001,6.776,0,0
-0.0022744662,0.025720066,-0.0035917100000000006,0.0063525838000000005,0.005018200000000001,6.777,0,0
-0.002246437,0.028013060000000003,-0.0034776240000000003,0.0039846458,0.003984510860000001,6.778,0,0
-0.0027998196,0.029421500000000003,-0.0027101098000000007,0.002334349,0.00227823086,6.779,0,0
-0.0030726456,0.02918316,-0.0013495098000000003,0.00014284699999999977,0.00010506086000000017,6.78,0,0
-0.0028102596,0.02585778,0.00033758819999999995,-0.0026275390000000004,-0.00191721314,6.781,0,0
-0.0032714548000000003,0.022361634000000002,0.0015667002,-0.0040130748,-0.00342116314,6.782,0,0
-0.003629344,0.019444891800000003,0.002097634,-0.004794040800000001,-0.003929674,6.783,0,0
-0.002773518,0.0128492058,0.0021875958,-0.006109848000000001,-0.0038841120000000003,6.784,0,0
-0.001123374,0.0015887858000000004,0.0019415618000000001,-0.0058927020000000005,-0.002724324,6.785,0,0
0.00021734400000000023,-0.0081792142,0.0019373598,-0.003948888,-0.0008408840000000002,6.786,0,0
0.0009921500000000002,-0.0148118082,0.0026103178000000003,-0.0023956620000000002,0.0001768694,6.787,0,0
0.0027295,-0.021286946,0.0033890360000000002,-0.0010990740000000002,0.0010841334,6.788,0,0
0.004058422,-0.024644900000000004,0.0034331200000000004,0.00117793,0.0017265334,6.789,0,0
0.004179992,-0.025066160000000004,0.0031534140000000002,0.0029766280000000003,0.0012196112,6.79,0,0
0.004552308,-0.024351100000000004,0.0028215780000000004,0.003552752,0.0006163756,6.791,0,0
0.004671698,-0.020355704,0.002010464,0.00435564,0.0005191426,6.792,0,0
0.0038433140000000005,-0.011232883999999999,0.000800648,0.004988132,-0.0003034734,6.793,0,0
0.0018341500000000005,0.001457036000000001,-0.000575586,0.004231436000000001,-0.0012323134,6.794,0,0
-0.001412934,0.013010956,-0.00194986,0.0029807286,-0.0014987671999999999,6.795,0,0
-0.004394006000000001,0.020800756000000004,-0.002993702,0.0018216646,-0.0019362316000000003,6.796,0,0
-0.005678792,0.022452560000000003,-0.0039640560000000005,-0.0003235273999999999,-0.00230073,6.797,0,0
-0.006050038000000001,0.01633436,-0.004898482000000001,-0.0023934614,-0.001639356,6.798,0,0
-0.004958938,0.004397619999999999,-0.005116674000000001,-0.0030187674,-0.00048373000000000014,6.799,0,0
-0.0015188400000000003,-0.00768842,-0.004466572000000001,-0.0035450819999999997,0.00015526980000000004,6.8,0,0
0.002288338,-0.01535838,-0.003575392,-0.004199266,0.0009150838,6.801,0,0
0.004399490000000001,-0.01603829,-0.0028233706,-0.0031142264000000005,0.0013882562,6.802,0,0
0.0038862980000000003,-0.008441590000000002,-0.001331665,-0.0011987364000000003,0.0010905544,6.803,0,0
0.00189017,0.0012325500000000007,0.0006735030000000001,-0.0002584324000000001,0.0008720864000000001,6.804,0,0
-2.3139999999999836e-05,0.00724294,0.001459023,0.0009614076,0.0011421846,6.805,0,0
-0.0019078300000000001,0.0108086406,0.0009576170000000001,0.0026826816000000003,0.0014403366000000002,6.806,0,0
-0.002787854,0.011439436600000002,0.0008202354000000002,0.003267414,0.0012807411999999998,6.807,0,0
-0.0020030919999999997,0.0061664905999999995,0.00079812,0.003170322,0.0012460646,6.808,0,0
-0.0009881080000000001,-0.0011103994000000003,0.0001423256,0.003571152,0.0011746066,6.809,0,0
-0.0002755406,-0.0040396214,-2.1725999999999988e-05,0.003440504,0.0004933865999999999,6.81,0,0
0.00013638200000000002,-0.004339008,0.0002755808,0.0025224796,-0.00040196540000000003,6.811,0,0
-0.000519616,-0.003778378,0.00048198519999999995,0.0020655326,-0.0007309384000000001,6.812,0,0
-0.001164284,-0.0012588139999999996,0.000852195,0.0016270106000000001,-0.001202558,6.813,0,0
-0.00031899,0.0008647959999999999,0.0014145474,3.355059999999991e-05,-0.001880222,6.814,0,0
0.0010779286000000003,0.0007065639999999998,0.0017194150000000002,-0.0015132554000000002,-0.0015517132,6.815,0,0
0.0019168280000000002,-7.745200000000042e-05,0.0016770124000000002,-0.0020386310000000004,-0.0013303142,6.816,0,0
0.002733604,-0.0005959080000000002,0.0014613668000000002,-0.0033551580000000004,-0.0015726462,6.817,0,0
0.00350774,-0.0020971376,0.0007952668,-0.004762326000000001,-0.001194425,6.818,0,0
0.0028986996,-0.0020401335999999997,0.0003687108,-0.0042767560000000005,-0.00047596899999999997,6.819,0,0
0.0013098036000000002,0.0005894164000000001,0.0004590208,-0.0031920810000000003,-0.0004042932000000001,6.82,0,0
-2.258039999999999e-05,0.0025221084000000005,0.00046660659999999993,-0.0023657586000000006,-0.00022582879999999997,6.821,0,0
-0.0012650564000000002,0.0033709324000000002,0.000285302,-0.0006383205999999998,0.0009086212,6.822,0,0
-0.0015075594,0.002837198,-0.00027894400000000005,0.0011344794,0.001706744,6.823,0,0
-0.0004170390000000001,-0.0005463460000000005,-0.001203726,0.0017173494,0.0017861640000000002,6.824,0,0
0.0003892829999999999,-0.008991072000000001,-0.0019712320000000003,0.0019135784000000001,0.0018809034,6.825,0,0
0.0012341849999999998,-0.019802202,-0.0020604374000000006,0.0018232158,0.0018587690000000001,6.826,0,0
0.002577371,-0.026650866000000002,-0.0008488993999999999,0.0015100158000000002,0.0009017810000000002,6.827,0,0
0.002652864,-0.029075260000000006,0.0017136826,0.0010387116,-0.000399343,6.828,0,0
0.0014238899999999997,-0.028907960000000003,0.0034857026,0.00033006160000000013,-0.001059903,6.829,0,0
0.0008900330800000001,-0.02449828,0.0033859786,-0.0007963684000000001,-0.0015499790000000002,6.83,0,0
0.0014005050800000001,-0.016272356,0.002280038,-0.0021773602,-0.0022925940000000002,6.831,0,0
0.0019949630800000003,-0.009076750000000001,-0.0005631320000000005,-0.0031652762,-0.0023030340000000002,6.832,0,0
0.00161523668,0.00115043,-0.00472582,-0.003946216000000001,-0.0016632006,6.833,0,0
0.00028832268000000003,0.01655303,-0.0066334340000000006,-0.0043608480000000005,-0.0019863906,6.834,0,0
-0.0014646884000000002,0.03141041,-0.0049822880000000005,-0.0034032444,-0.0019686406,6.835,0,0
-0.0037547164,0.043871246,-0.002261008,-0.0013477763999999999,-0.0008938326,6.836,0,0
-0.0060777804,0.049433859999999996,0.00025145600000000005,-0.0004539854000000001,-0.0007852506000000001,6.837,0,0
-0.006666896,0.04385987400000001,0.002257784,0.0002906836,-0.0009620480000000001,6.838,0,0
-0.0049595988,0.031777152,0.0024227119999999996,0.0025779616000000003,0.00024372200000000004,6.839,0,0
-0.0027366447999999997,0.0198223396,0.0008832860000000002,0.004033666,0.0012422600000000002,6.84,0,0
-0.0013255482000000002,0.0088467168,-0.000456178,0.0038270740000000006,0.0013078080000000001,6.841,0,0
-0.0004974402,0.0014403608000000002,-0.0002657040000000002,0.004179755,0.00180078,6.842,0,0
4.330619999999997e-05,-0.0005418852,0.001265972,0.004731018,0.0021724330000000005,6.843,0,0
-0.0004203450000000001,-4.31772e-05,0.0032792620000000002,0.003222499,0.0014374666,6.844,0,0
-0.0014124790000000001,-0.0001308995999999999,0.004683940000000001,0.0013577370000000001,0.0003190945999999999,6.845,0,0
-0.0012834682000000001,-0.0012089408,0.004622879600000001,0.0007344896,-0.00026928300000000004,6.846,0,0
-0.00044265820000000014,-0.0016988328,0.0036915616000000005,-0.00048626440000000006,-0.0008013450000000002,6.847,0,0
-0.0004641326,-0.0038013008000000004,0.0025751692,-0.0020149784,-0.0013845440000000001,6.848,0,0
-0.0005011406000000001,-0.0081177068,0.0011757348000000004,-0.0021671948,-0.0014811376000000002,6.849,0,0
3.187400000000006e-06,-0.012067192000000001,-0.00042293319999999997,-0.0020230296,-0.0011892918000000001,6.85,0,0
0.00047378200000000007,-0.015052928,-0.0020797748,-0.0018427286000000003,-0.0005262582000000001,6.851,0,0
0.000807326,-0.01786914,-0.0038355388,-6.575859999999973e-05,0.0008676118,6.852,0,0
0.000506362,-0.01889218,-0.0049741324,0.0018503234000000002,0.0023018198,6.853,0,0
0.00038190800000000003,-0.017045920000000003,-0.0047170982,0.0019791782,0.0028896878,6.854,0,0
0.001035032,-0.014562156,-0.0035341101999999997,0.0017451609999999998,0.0033075920000000003,6.855,0,0
0.001449588,-0.012096132,-0.0018388862000000001,0.0013777814000000002,0.0031093460000000002,6.856,0,0
0.0017090579999999998,-0.009206358,-0.0006728022000000001,-0.0005688606,0.0017637519999999997,6.857,0,0
0.00321665,-0.0075646080000000004,-0.0007862582,-0.0023090726,0.000861776,6.858,0,0
0.00470319,-0.007805424000000001,-0.0015578100000000002,-0.0018819440000000002,0.000845094,6.859,0,0
0.004467112,-0.007319988000000001,-0.0018992140000000002,-0.0009309020000000002,0.00038813920000000003,6.86,0,0
0.0034659564,-0.005916196000000001,3.684200000000004e-05,-0.00022353599999999987,9.318199999999999e-05,6.861,0,0
0.0022538706,-0.005087692000000001,0.002958728,0.00128637,0.000916006,6.862,0,0
0.0006647226000000002,-0.00210897,0.003431852,0.002365534,0.001270846,6.863,0,0
-0.0008702354,0.005004746,0.0013109039999999995,0.0019397814000000002,0.0010922796,6.864,0,0
-0.0020455574,0.012270166,-0.0016083140000000004,0.001235065,0.0013733972,6.865,0,0
-0.0028896578000000006,0.01634825,-0.004516640000000001,0.000754367,0.0014842730000000001,6.866,0,0
-0.0028540424,0.018281264000000002,-0.005477056000000001,9.3419e-05,0.000902529,6.867,0,0
-0.0025748084,0.017687222,-0.0024254620000000006,-0.000542645,0.0003076826,6.868,0,0
-0.0025956404,0.012286914600000002,0.002617878,-0.000540177,8.074479999999996e-05,6.869,0,0
-0.0015513504,0.004968020600000001,0.006201632,-0.0007656306,-0.0005496240000000001,6.87,0,0
6.436959999999998e-05,-0.0001381173999999998,0.006558059999999999,-0.0019496945999999999,-0.0015644966,6.871,0,0
0.000951486,-0.0025768574000000002,0.004279567999999999,-0.0026252046,-0.0022314006,6.872,0,0
0.0016214500000000002,-0.0028945614,0.00045059799999999975,-0.0027254426,-0.0024772542,6.873,0,0
0.0021509498000000004,-0.0020016920000000002,-0.0034545380000000005,-0.0037317359999999994,-0.002968834,6.874,0,0
0.0017628360000000003,-0.000274218,-0.004193332000000001,-0.004309756,-0.003262482,6.875,0,0
0.000472188,0.001489894,-0.0017738140000000003,-0.0030393634,-0.002843804,6.876,0,0
-0.000996738,0.00177234,0.0006955920000000001,-0.0022593564,-0.002649742,6.877,0,0
-0.001571368,-0.002040386,0.002619704,-0.0021860424,-0.002859214,6.878,0,0
-0.00028303379999999987,-0.009219008,0.0040615202,-0.0007704884000000001,-0.0022994597999999996,6.879,0,0
0.001542412,-0.015347048000000002,0.0032564882000000006,0.0004904296,-0.0012278958,6.88,0,0
0.002463008,-0.018338982000000004,0.00041231220000000036,0.0003676778,-0.0006681982,6.881,0,0
0.0033356060000000005,-0.020118580000000004,-0.0021903677999999998,0.0009672688,0.00039338180000000005,6.882,0,0
0.004067792000000001,-0.021446979999999997,-0.0037951778000000005,0.0022336368,0.0018265278,6.883,0,0
0.0030547732,-0.016745272000000002,-0.004175988,0.0025607568000000002,0.0024259516,6.884,0,0
0.0012683630000000002,-0.005540312000000001,-0.0038560048,0.0029252508,0.0028725236,6.885,0,0
0.0008254542000000001,0.006151507999999999,-0.0032781168000000005,0.003524642,0.0034491340000000004,6.886,0,0
0.00013252420000000014,0.017843308000000002,-0.0012361168,0.0026287460000000004,0.0029690372000000004,6.887,0,0
-0.0013682397999999999,0.030031308,0.0022037912,0.000619142,0.0018844492000000001,6.888,0,0
-0.0022656729999999997,0.03670036,0.004831721200000001,-0.0005928779999999999,0.0011468514,6.889,0,0
-0.0031428588,0.03467088,0.005733002,-0.0016557499999999999,-0.0001391185999999999,6.89,0,0
-0.004182738,0.0277119,0.006620590000000001,-0.002795138,-0.0015695546000000001,6.891,0,0
-0.004155219999999999,0.018904956,0.0067972300000000005,-0.0022975340000000004,-0.0022500378,6.892,0,0
-0.0033858219999999997,0.010155836,0.004155914,-0.0006086499999999999,-0.0025907357999999997,6.893,0,0
-0.0028238114000000004,0.0018468760000000003,0.00055328,0.0004258640000000001,-0.0024744366,6.894,0,0
-0.0017188574,-0.005757784,-0.0014277480000000004,0.0012728220000000003,-0.0015510106000000002,6.895,0,0
-0.0008404882000000001,-0.011382743999999998,-0.0026127020000000006,0.00267159,-0.0003600086000000002,6.896,0,0
-0.0009419202000000001,-0.0155097,-0.0036483800000000005,0.0030163,0.00026930719999999995,6.897,0,0
-0.0008277578000000002,-0.01838782,-0.0038887920000000007,0.0024173838,0.0006064332,6.898,0,0
-0.00016551640000000002,-0.01867386,-0.004024628000000001,0.0024212298,0.000712536,6.899,0,0
0.00042216759999999986,-0.016256168,-0.005064112,0.0023651398000000003,2.6961999999999895e-05,6.9,0,0
0.0013501923999999998,-0.010756795999999999,-0.006279968,0.0010732197999999999,-0.000937354,6.901,0,0
0.0022518644000000003,-0.0030379559999999996,-0.006271668,0.0001826598,-0.0011727270000000001,6.902,0,0
0.0022124318,0.0025189440000000004,-0.00488724,0.0004266039999999999,-0.001132657,6.903,0,0
0.0018230191999999998,0.0045579620000000005,-0.00110671,-0.00030740000000000005,-0.0013490342,6.904,0,0
0.0009266314000000002,0.004641262,0.00395823,-0.001158456,-0.0007045682000000001,6.905,0,0
-6.163400000000003e-06,0.00332188,0.006888854000000001,-0.000824376,3.9299799999999965e-05,6.906,0,0
1.0104600000000025e-05,0.000493298,0.007309462000000001,-0.0008615140000000001,0.0001617004,6.907,0,0
0.0002487224000000001,-0.0006465519999999999,0.006402332000000001,-0.0012100298000000001,0.0008174384000000001,6.908,0,0
-6.310199999999999e-05,0.0027103500000000003,0.003442476000000001,-0.0007957394000000002,0.0015768974,6.909,0,0
0.00021966320000000003,0.0046150340000000005,-0.0011512900000000001,-0.00042830619999999995,0.0016124334,6.91,0,0
0.0008787720000000001,-0.0001200159999999997,-0.0043008460000000005,-0.0006606762000000001,0.0016017294000000002,6.911,0,0
0.0007001342000000001,-0.006407594000000001,-0.005485574,-0.0006657322,0.0020202760000000005,6.912,0,0
0.0009251185999999999,-0.011408784000000002,-0.004819084,-0.00059763168,0.0019113860000000002,6.913,0,0
0.0019858736,-0.018337564,-0.001020708,-0.00107898208,0.0014577020000000002,6.914,0,0
0.0025621082,-0.02164684,0.004848837999999999,-0.0008339822799999999,0.0014774340000000001,6.915,0,0
0.0020899414000000002,-0.0154957,0.008590351999999999,0.00046489972,0.0015802740000000002,6.916,0,0
0.0018876578,-0.006815440000000001,0.008687176,0.00123828572,0.0011566164,6.917,0,0
0.0014981804000000001,0.0021297200000000003,0.007209758000000001,0.001076586,0.0004994484000000001,6.918,0,0
-0.0005803656,0.01595876,0.0045118319999999995,0.0011489399999999998,9.191240000000001e-05,6.919,0,0
-0.0025348676000000003,0.027410620000000004,0.0011961040000000004,0.0010390778,-0.0007111756000000001,6.92,0,0
-0.0031130928000000007,0.02831616,-0.0009708099999999999,-0.00017173620000000004,-0.0018767676,6.921,0,0
-0.0041246974,0.024407303999999998,-0.0015211740000000001,-0.0009834322,-0.002546252,6.922,0,0
-0.005108522000000001,0.018759697999999998,-0.0015776260000000002,-0.0007910203999999999,-0.002892972,6.923,0,0
-0.004100095600000001,0.007680497999999999,-0.003449244,-0.0008286723999999998,-0.0033783280000000003,6.924,0,0
-0.0029186094,-0.0030018560000000007,-0.006693696000000001,-0.0013305672,-0.00330204,6.925,0,0
-0.0022892028000000004,-0.006466202000000001,-0.008102684,-0.0011447392000000002,-0.0026239493999999997,6.926,0,0
-0.0010523606,-0.0055112500000000005,-0.007700994000000001,-0.0010923732,-0.0023317234,6.927,0,0
6.588839999999998e-05,-0.0035594740000000013,-0.006375242,-0.00171911,-0.0020420574,6.928,0,0
0.000752178,-0.0017029380000000002,-0.0033289499999999994,-0.0014217004,-0.0012385986,6.929,0,0
0.0013107278,-0.0010255940000000001,0.0006200679999999999,-3.551640000000011e-05,-0.0003507806000000002,6.93,0,0
0.0013412754000000002,-0.002668488,0.002990808,0.0011690736,0.0007559208,6.931,0,0
0.0018694072,-0.005439364,0.0035133820000000002,0.0024755736,0.0022617708,6.932,0,0
0.0028774642,-0.0068123,0.0032909528,0.004338745600000001,0.0033948048000000002,6.933,0,0
0.0024708094,-0.006908692000000001,0.0023542288,0.004833380000000001,0.0036666780000000005,6.934,0,0
0.0012468613999999999,-0.006527748000000001,0.0020136708,0.0037922102000000004,0.0031752980000000004,6.935,0,0
0.00016785520000000003,-0.005315384,0.0030679728,0.0027259930000000003,0.0021636484,6.936,0,0
-0.0008745788,-0.003933604,0.0038995588000000003,0.0012999050000000003,0.0009643532000000001,6.937,0,0
-0.0014010288000000002,-0.004001038,0.0040068302,-0.0008512670000000001,1.226299999999996e-05,6.938,0,0
-0.0008821060000000002,-0.004219798,0.0040482942,-0.001871395,-0.000577531,6.939,0,0
0.000133176,-0.002635904,0.0030908468000000002,-0.0019421646,-0.0011869110000000001,6.94,0,0
0.0012161476,-0.00215349,0.0016129938000000001,-0.0024426294,-0.0013508014000000001,6.941,0,0
0.0017018172,-0.004087950000000001,-0.0005308562,-0.0024540194000000006,-0.0008457381999999999,6.942,0,0
0.0013764292,-0.006307270000000001,-0.0038165804,-0.0020540234,-0.0003991319999999999,6.943,0,0
0.0009847132,-0.009907514000000001,-0.005631316400000001,-0.0023315954000000002,-0.00023364559999999987,6.944,0,0
0.0005758788,-0.013747222,-0.0059589377999999995,-0.0025549160000000004,5.1852400000000046e-05,6.945,0,0
0.00014622519999999995,-0.012697524,-0.0062051262,-0.0017660540000000002,0.0002668019999999999,6.946,0,0
0.00014077179999999999,-0.008096796,-0.0042146842,-0.0011155440000000002,-0.00011538900000000002,6.947,0,0
0.0004484278,-0.0028882219999999993,0.00028958580000000003,-0.00024543,-0.0003419032,6.948,0,0
0.0005648237999999999,0.005384318000000001,0.0028683958000000004,0.0016784060000000003,0.0003457264,6.949,0,0
0.0010170602,0.014145838,0.0024759066,0.0028249500000000006,0.0010971884,6.95,0,0
0.0011614020000000002,0.019025002000000003,0.001359192,0.0025664372000000005,0.0013386507999999999,6.951,0,0
0.00014771179999999997,0.021737274,2.726799999999978e-05,0.0026134152,0.0019191718,6.952,0,0
-0.0016522842,0.022497200000000002,-0.003532462,0.0024520692000000004,0.002251678,6.953,0,0
-0.0033301762,0.018966942,-0.008517004,0.0005847491999999999,0.0012640140000000002,6.954,0,0
-0.003834822,0.011660009999999998,-0.011462406,-0.0011858768,0.000366028,6.955,0,0
-0.0026185158,0.0037554500000000005,-0.011587724,-0.0019834300000000004,0.00011411220000000004,6.956,0,0
-0.00024784380000000025,-0.0028286300000000004,-0.006483122,-0.00372995,-0.0009514018,6.957,0,0
0.0020077842,-0.006728008,0.0021663180000000004,-0.005899802,-0.0022950098,6.958,0,0
0.0037785362,-0.006642296,0.009511338000000001,-0.006350944000000001,-0.0023623278000000003,6.959,0,0
0.00344533,-0.0025114640000000006,0.015257858000000001,-0.006029888000000001,-0.0018068532000000003,6.96,0,0
0.0011866180000000002,0.0024444560000000007,0.017604766,-0.005873348,-0.0014005874000000001,6.961,0,0
-0.0008791100000000001,0.004154274,0.013680994,-0.003923424,-0.00018123140000000015,6.962,0,0
-0.0021984380000000005,0.0026730319999999997,0.006312618000000001,-0.0002209880000000001,0.0017570766,6.963,0,0
-0.0023319940000000004,-0.0015223220000000004,-3.716199999999987e-05,0.002760914,0.0027424246,6.964,0,0
-0.0011712720000000001,-0.007112722,-0.005090042,0.005328808000000001,0.003069232,6.965,0,0
0.0007050400000000001,-0.012328202,-0.007713494,0.00801023,0.0033249480000000003,6.966,0,0
0.0018881360000000001,-0.014170120000000001,-0.007260280000000001,0.008561076,0.0026801192000000004,6.967,0,0
0.0021352084,-0.012288890000000002,-0.005126506000000001,0.006959636000000001,0.0014056772000000002,6.968,0,0
0.0012273204000000002,-0.008032382000000001,-0.002015774,0.00534148,0.0004871972000000001,6.969,0,0
-0.0005302635999999999,-0.000510682000000001,0.0011010959999999998,0.0030931400000000003,-0.00019521960000000007,6.97,0,0
-0.0013350936,0.004840018,0.0032614000000000002,-0.00011561600000000003,-0.0012046116000000002,6.971,0,0
-0.0009754696000000001,0.003864338,0.0030844999999999996,-0.00177,-0.0016576888000000003,6.972,0,0
-2.0241999999999743e-05,-0.0006451320000000014,0.0016487598000000001,-0.0023344660000000003,-0.0015503588000000002,6.973,0,0
0.0016460420000000001,-0.00647812,0.0008133738000000002,-0.00350425,-0.0018917068000000002,6.974,0,0
0.004158628,-0.014989560000000002,0.00025507579999999985,-0.003883544,-0.0024234160000000003,6.975,0,0
0.005181362,-0.019834220000000003,-0.0006690502000000001,-0.003073104,-0.0024468280000000003,6.976,0,0
0.003952860000000001,-0.014864004,-0.0014149322,-0.003068534,-0.002430284,6.977,0,0
0.0023218619999999996,-0.006828924,-0.0014723000000000002,-0.003614152,-0.0024053398,6.978,0,0
-8.009000000000033e-05,0.003118436,-0.0015207760000000002,-0.0028449028,-0.0013997158000000002,6.979,0,0
-0.00345059,0.016188896,-0.001514752,-0.0018513908000000003,-0.0004323618,6.98,0,0
-0.006252388000000001,0.026765156,-0.000850272,-0.0012010148000000003,0.00013469099999999996,6.981,0,0
-0.007219480000000001,0.031569139999999996,0.000379098,0.0003708892000000001,0.001085657,6.982,0,0
-0.006743342,0.032105879999999996,0.0011802380000000001,0.0025425712,0.0019748668000000003,6.983,0,0
-0.005169312,0.0272332174,0.0015875280000000002,0.004042974,0.0021130088000000003,6.984,0,0
-0.002572464,0.0164848014,0.0020059596,0.005009304000000001,0.0020838208,6.985,0,0
0.00024031999999999992,0.004907821399999998,0.0019045958,0.0052673780000000005,0.0021041724,6.986,0,0
0.00236149,-0.004833258600000001,0.0009173258,0.00398325,0.0013687448,6.987,0,0
0.003359616,-0.011111278600000002,-0.0010071322,0.0021120600000000007,0.0004346867999999999,6.988,0,0
0.0036380680000000004,-0.013694636000000001,-0.0040172922000000005,0.00032118800000000003,-0.00018469520000000003,6.989,0,0
0.0028643264,-0.013682106000000001,-0.006578239800000001,-0.001358812,-0.0010126292,6.99,0,0
0.002046088,-0.012110006,-0.0065631710000000005,-0.0023071339999999997,-0.0014410415999999999,6.991,0,0
0.001593222,-0.010733352,-0.004146031,-0.0019299372,-0.000827978,6.992,0,0
0.00020870799999999994,-0.008624108,3.017700000000059e-05,-0.0009631272000000001,-0.00033398999999999983,6.993,0,0
-0.0003496966000000001,-0.005705834,0.0045669510000000005,-0.00017336519999999994,4.690400000000012e-06,6.994,0,0
0.0007031489999999999,-0.0040207174,0.006713227,0.0009220108,0.0007548024000000001,6.995,0,0
0.0011490774,-0.0033257914,0.005505454000000001,0.0023026768,0.0011500256,6.996,0,0
0.0008804925999999999,-0.0027228013999999997,0.0022970079999999997,0.0033289419999999997,0.0007179422,6.997,0,0
0.0009513085999999999,-0.0033126034,-0.002080648,0.0037403799999999997,0.0002220782000000001,6.998,0,0
-0.00010654280000000011,-0.0039673354,-0.0054590080000000004,0.003955212,6.406100000000001e-05,6.999,0,0
-0.0022631688000000006,-0.0007372459999999996,-0.004547838,0.003718528,-0.000466245,7.0,0,0
-0.0038273748000000004,0.005264168000000001,-0.0002640019999999997,0.002192486,-0.0013032442,7.001,0,0
-0.0042036420000000005,0.009572604000000002,0.0035345840000000003,0.00048086599999999993,-0.0020840968,7.002,0,0
-0.0030198480000000003,0.011752838000000002,0.005537524,-0.0008474640000000001,-0.0028551268,7.003,0,0
-0.0010150960000000003,0.01141484,0.006163124,-0.0031277760000000005,-0.003658586,7.004,0,0
0.0014169,0.007178216000000001,0.004695344000000001,-0.0055419300000000005,-0.004057254,7.005,0,0
0.003518802,0.001111716,0.0015505237999999999,-0.006804098000000001,-0.003713474,7.006,0,0
0.00432184,-0.0039266119999999995,-0.0021974702,-0.007708642000000001,-0.0028755228,7.007,0,0
0.004398102,-0.007297648,-0.0050314942,-0.00827442,-0.0013553248000000005,7.008,0,0
0.003472047600000001,-0.008797032,-0.0055122182,-0.007029008000000001,0.0008427371999999998,7.009,0,0
0.0013306316000000005,-0.009126758,-0.0051919382,-0.004821596,0.0029701532,7.01,0,0
-0.0004784184,-0.009367868000000001,-0.004640092,-0.0031746774,0.0039394352,7.011,0,0
-0.0017896124,-0.00868912,-0.0019688860000000004,-0.0011358874,0.0043533999999999995,7.012,0,0
-0.0029170724000000003,-0.007238608,0.0015985000000000003,0.0014701686000000002,0.004759036,7.013,0,0
-0.0025412440000000007,-0.005824546,0.0026307780000000003,0.0034863386000000005,0.003877554,7.014,0,0
-0.0015168594,-0.003522812000000001,0.0018972380000000003,0.0053057586,0.0028888539999999997,7.015,0,0
-0.0017009854,0.0006483779999999998,0.000650034,0.007742172000000001,0.003127912,7.016,0,0
-0.0024249754000000004,0.005019558,-0.0017116780000000001,0.009135558,0.0029354460000000004,7.017,0,0
-0.0028722154,0.007348162000000002,-0.0028621610000000007,0.008492938,0.0019876286,7.018,0,0
-0.0029937234,0.008006061600000001,-0.0014329950000000003,0.006894179200000001,0.0013966010000000001,7.019,0,0
-0.002183192,0.0071222376,8.858900000000014e-05,0.004296515200000002,0.00035654100000000004,7.02,0,0
-0.0003844899999999999,0.0050433376,0.0003577010000000001,0.00046321720000000043,-0.001258679,7.021,0,0
0.0013671540000000002,0.0030864176,1.8073000000000286e-05,-0.0029354408000000004,-0.002181169,7.022,0,0
0.0023536720000000002,0.002139574,-0.0011771859999999998,-0.0050271788000000005,-0.0027676556,7.023,0,0
0.002374478,0.0018778944000000003,-0.0006889459999999997,-0.00676186,-0.0038648840000000003,7.024,0,0
0.001972206,0.0007918003999999995,0.0028972840000000004,-0.007629344000000001,-0.004721884,7.025,0,0
0.001605626,-0.00047856960000000035,0.00575927,-0.007095222,-0.005128968,7.026,0,0
0.001550176,-0.0006740795999999999,0.0074475800000000005,-0.006415552,-0.005563462,7.027,0,0
0.001949026,0.0003918419999999999,0.008822618,-0.0052672612,-0.0051238624,7.028,0,0
0.0017820912,0.002518592,0.006959624000000001,-0.0025771072000000004,-0.0034124384,7.029,0,0
0.0010254092,0.005189806,0.0025595659999999997,0.0004346408000000003,-0.0011761884,7.03,0,0
0.0004540166,0.006187462,-0.00012534180000000003,0.0027319868,0.0008128896000000002,7.031,0,0
0.00022522640000000003,0.0049678074,-0.0011785516000000001,0.0047837188,0.0026155256000000003,7.032,0,0
-0.00017637080000000002,0.0051790774,-0.0017630676,0.0065263380000000005,0.0036259680000000002,7.033,0,0
-0.0004134982,0.0054964654,-0.0016837776000000002,0.0068281,0.0035048300000000004,7.034,0,0
-7.497620000000001e-05,0.0024574813999999993,-0.0017837936000000003,0.005634604,0.0027045164000000003,7.035,0,0
-0.00027344960000000003,-0.0006707446000000009,-0.0020629838000000003,0.004036164000000001,0.0013788364,7.036,0,0
-0.0011278174,-0.003047520000000001,-0.0018309202000000003,0.002009348,-3.20756000000001e-05,7.037,0,0
-0.0016798742,-0.009057004,-0.0013809204000000002,-0.0006450560000000002,-0.0014133236000000002,7.038,0,0
-0.0016559106000000002,-0.016076764,-0.0010039734000000002,-0.002614902,-0.0022403696,7.039,0,0
-0.0016664474000000003,-0.0192844,-0.0004138242400000001,-0.0036061080000000002,-0.002751332,7.04,0,0
-0.0007555574000000002,-0.02139336,0.00015377156,-0.00425295,-0.002513038,7.041,0,0
0.0010481706,-0.02337096,0.00017466035999999998,-0.0037781900000000007,-0.0007915840000000001,7.042,0,0
0.0022247786000000004,-0.02160068,0.00023220116,-0.0023185680000000005,0.001028192,7.043,0,0
0.0029628772,-0.0167179788,0.00066350416,-0.0012012060000000002,0.002260864,7.044,0,0
0.0027222064,-0.0069469388,0.0005475014,-0.0003828038000000002,0.0038665240000000005,7.045,0,0
0.0009118104,0.0089005212,-0.0006169383999999998,0.0011120461999999998,0.005096082,7.046,0,0
-0.0007985516000000001,0.021320901200000002,-0.0021330610000000003,0.0020275622,0.00436534,7.047,0,0
-0.0013199050000000001,0.0249100452,-0.0031220296000000003,0.0018380862000000001,0.0029543484000000004,7.048,0,0
-0.001868471,0.023930154,-0.0037532236,0.0020854082,0.0021621964000000005,7.049,0,0
-0.0021448774,0.019665174,-0.003918404,0.0025146940000000005,0.0010292352000000002,7.05,0,0
-0.0015203034,0.011792554,-0.0034674220000000004,0.0022781900000000002,-0.0006861028,7.051,0,0
-0.0010313454,0.007803274000000001,-0.0031074560000000006,0.0016861220000000002,-0.0015414828,7.052,0,0
-0.0004838319999999999,0.00918469,-0.002920708,0.00147049,-0.0016657392000000001,7.053,0,0
0.0006429700000000002,0.009313532000000001,-0.0020987799999999997,0.0009012120000000001,-0.0018307140000000002,7.054,0,0
0.0017667700000000004,0.006328012000000001,-0.0001433859999999999,-0.0005596300000000001,-0.0017260428000000002,7.055,0,0
0.0028802800000000007,0.00043031200000000084,0.001760812,-0.0019434940000000003,-0.0014290828,7.056,0,0
0.003876786,-0.0064431079999999995,0.0023039540000000004,-0.0028399020000000005,-0.0013364228,7.057,0,0
0.004001928000000001,-0.011696988,0.0014090620000000004,-0.0036004020000000004,-0.0012792008,7.058,0,0
0.0034691140000000006,-0.01343492,-0.0010730319999999998,-0.0034921030000000003,-0.0010454448,7.059,0,0
0.0025796060000000003,-0.012406136,-0.003968672,-0.0021404270000000003,-0.0007126688,7.06,0,0
0.0009796360000000005,-0.011475046,-0.004068658,-0.0010745112,0.0001040312,7.061,0,0
-0.00108015,-0.011450726,-0.0006240280000000004,0.00019718079999999987,0.0013246732,7.062,0,0
-0.003135062,-0.008005246,0.0038290380000000003,0.0020408648,0.0025446532,7.063,0,0
-0.005248040000000001,0.0012799939999999996,0.007615891999999999,0.0026411438,0.003127374,7.064,0,0
-0.006531882000000001,0.010660810000000001,0.009319118,0.0027337578,0.0030375980000000003,7.065,0,0
-0.006312638000000001,0.017689760000000002,0.007603258,0.0035971520000000006,0.0028066714000000003,7.066,0,0
-0.0051440418000000005,0.022709800000000002,0.003945802,0.0036739320000000004,0.0020703208000000003,7.067,0,0
-0.0034572678000000007,0.021937974000000002,0.0003868360000000002,0.0023739080000000005,0.0007721068000000002,7.068,0,0
-0.0016775598000000002,0.014136682000000001,-0.002326124,0.00167369,-9.980720000000006e-05,7.069,0,0
-0.0007613678000000002,0.0049429140000000005,-0.0031607519999999997,0.001090644,-0.00025419700000000006,7.07,0,0
-0.00047505180000000004,-0.0013002380000000004,-0.0022797880000000005,-0.000813286,-0.0006736504000000002,7.071,0,0
0.00039951799999999997,-0.005299268,-0.0016077406000000003,-0.0024155620000000004,-0.0008545328000000001,7.072,0,0
0.0011165959999999999,-0.007775622000000001,-0.0014233886,-0.0030008739999999997,-0.00039578560000000005,7.073,0,0
0.0017141799999999998,-0.00999445,-0.0010992325999999999,-0.00388083,-0.00023271260000000003,7.074,0,0
0.0030051059999999996,-0.012601602,-0.0010379526,-0.00482659,-0.0002763938,7.075,0,0
0.003841972,-0.013982210000000002,-0.0006738026,-0.004183568,0.00010125760000000001,7.076,0,0
0.0032556186,-0.013041650000000002,0.0004993080000000002,-0.0030106822,0.0005279006,7.077,0,0
0.0019628052,-0.0101509426,0.0010973608000000002,-0.0021043032,0.0008299474000000001,7.078,0,0
0.0013365132,-0.0061608206,0.0006112208,0.0001307468,0.0019090644000000002,7.079,0,0
0.0012806872,-0.0010673505999999997,-0.0009028992,0.0027187008000000004,0.0029794234000000003,7.08,0,0
0.0010794370000000001,0.0038500494,-0.0029113252000000003,0.0039731408,0.0029528410000000003,7.081,0,0
0.0006739564000000001,0.006941419400000001,-0.0032908671999999995,0.005063477,0.002338493,7.082,0,0
2.7771800000000058e-05,0.008854874,-0.0017836059999999996,0.006192386,0.001571513,7.083,0,0
-0.0009459102,0.009925964,0.0002674779999999998,0.0053868679999999995,4.4429000000000235e-05,7.084,0,0
-0.0015196870000000003,0.00813182,0.001853522,0.003538918,-0.0019201290000000002,7.085,0,0
-0.0012373848000000003,0.00299016,0.0026952,0.002262586,-0.0029435380000000003,7.086,0,0
-0.0006373828000000002,-0.0028688200000000007,0.0027276,0.0003815339999999999,-0.0037395400000000004,7.087,0,0
0.0006654471999999999,-0.009288562,0.002480692,-0.00266926,-0.004632188000000001,7.088,0,0
0.0024147351999999995,-0.015737294000000002,0.002735556,-0.0051052580000000005,-0.004838928000000001,7.089,0,0
0.002881256,-0.018660380000000004,0.0031111292,-0.0060671380000000006,-0.004543618,7.09,0,0
0.0019512499999999999,-0.018576020000000002,0.0025438412,-0.006910386000000001,-0.003962196,7.091,0,0
0.0014940097999999998,-0.01813586,-0.00027173879999999994,-0.0069432600000000014,-0.0029128416000000004,7.092,0,0
0.0015456717999999996,-0.014566975999999999,-0.0042092708,-0.0050403868,-0.0016836296,7.093,0,0
0.0004763118,-0.0058895760000000005,-0.007169622800000001,-0.0030849212000000005,-0.0012214936,7.094,0,0
-0.0010112062000000002,0.004739204,-0.00757691,-0.0017475196000000003,-0.0010924516000000001,7.095,0,0
-0.0017058902000000001,0.014115144,-0.005266524000000001,0.00013748839999999977,-0.0007726059999999999,7.096,0,0
-0.002562196,0.020212184,-0.0013611400000000003,0.0019482164000000001,-0.0007024386199999999,7.097,0,0
-0.003403702,0.02112910456,0.002933272,0.0028587872000000003,-0.0005656904199999998,7.098,0,0
-0.0034394782000000002,0.01864226656,0.005852828,0.0039833736,0.00028815958000000014,7.099,0,0
-0.0031781502000000003,0.01508314656,0.0061577852,0.0051129240000000005,0.00144333958,7.1,0,0
-0.0019589602,0.009993482560000003,0.0029257852000000003,0.004890210000000001,0.00206810198,7.101,0,0
-0.0005384622,0.0058417185600000004,-0.0026951188,0.004017016,0.0025258462,7.102,0,0
-0.00031526220000000003,0.0033904340000000003,-0.0089717708,0.0029308436,0.002685074,7.103,0,0
0.000699318,-0.001894748,-0.0124208328,0.0008148996000000003,0.0020319098000000004,7.104,0,0
0.002906872,-0.010391128,-0.01062772,-0.0014118164000000003,0.0012657250000000003,7.105,0,0
0.003588136,-0.013511446,-0.004898715999999997,-0.0019608776000000004,0.0008792636000000001,7.106,0,0
0.002219342,-0.007947582,0.003557244,-0.0021368828000000004,0.00043435358,7.107,0,0
-0.0002550580000000003,0.001803298,0.011641224,-0.0026974264000000003,0.00023219738,7.108,0,0
-0.003152434,0.011607878,0.01561891,-0.0018695354,0.00074190358,7.109,0,0
-0.0047059642,0.017512842,0.01432666,-0.0005848674000000001,0.0012817263800000002,7.11,0,0
-0.004605102200000001,0.016639564,0.009982922,-0.00020875219999999994,0.00137078178,7.111,0,0
-0.0029085022000000004,0.008563404,0.0046826179999999995,0.0004827430000000001,0.0014508388000000001,7.112,0,0
0.00047418380000000015,-0.002430896,0.0005754220000000002,0.0020873610000000003,0.001710843,7.113,0,0
0.0029520118000000003,-0.011451776,-0.0010393709999999999,0.0031213680000000002,0.001745311,7.114,0,0
0.0038555320000000005,-0.0162001,-0.0014163777999999998,0.003746918,0.001586347,7.115,0,0
0.00395368,-0.01745414,-0.0012067858,0.004772182,0.0014987486000000005,7.116,0,0
0.0032334397999999997,-0.016249319999999998,-0.0012363018,0.005023746,0.0014722464,7.117,0,0
0.0021305018,-0.012311180000000001,-0.0020121198,0.0041224612,0.0008696510000000001,7.118,0,0
0.0005249777999999999,-0.00578914,-0.0034708768000000006,0.0026197732000000007,-3.854900000000003e-05,7.119,0,0
-0.0012975642,0.0015557200000000005,-0.004835776000000001,0.0006084972000000002,-0.000823807,7.12,0,0
-0.0024478282,0.0075582800000000006,-0.004927432000000001,-0.0025062188,-0.0016875186,7.121,0,0
-0.00249673936,0.010845602000000001,-0.003919004000000001,-0.005465710800000001,-0.0021125874,7.122,0,0
-0.0015095813600000002,0.009677344000000001,-0.0032084120000000003,-0.007052078,-0.0022463599999999998,7.123,0,0
0.0003163706400000001,0.00529589,-0.002308644,-0.008581734,-0.00284348,7.124,0,0
0.0017282126400000003,7.638400000000009e-05,-4.103200000000009e-05,-0.009861136000000001,-0.0036365900000000003,7.125,0,0
0.0024180986400000005,-0.0038245560000000002,0.0014227119999999998,-0.009419352,-0.004027154000000001,7.126,0,0
0.0024775642000000003,-0.00481508,0.0010997511999999998,-0.008152012,-0.004757268000000001,7.127,0,0
0.0016687925999999999,-0.004498934,0.0012426011999999997,-0.006529004800000001,-0.005353256000000001,7.128,0,0
0.0010190036,-0.004498169999999999,0.0013981332000000003,-0.0029119968000000003,-0.004223069800000001,7.129,0,0
0.0004805512000000001,-0.00350169,-0.00016558680000000012,0.0016449832,-0.0022265098,7.13,0,0
-0.00011430040000000003,-3.263000000000007e-05,-0.0017582068000000003,0.0050571312,-0.0004900218000000002,7.131,0,0
-0.0006775926000000001,0.004272072000000001,-0.0021832220000000003,0.0078734712,0.0018271182,7.132,0,0
-0.001234097,0.007492424000000001,-0.00223998,0.009929668000000001,0.004088242200000001,7.133,0,0
-0.00155005,0.0093063,-0.002145984,0.009640574,0.004621534,7.134,0,0
-0.0013957968,0.00919492,-0.001170926,0.007975582,0.0044648660000000005,7.135,0,0
-0.0005955052,0.0064756760000000005,0.0005853820000000001,0.006741416,0.004458196,7.136,0,0
0.0003215408000000001,0.0025216025999999997,0.002026874,0.004967352000000001,0.0036703160000000003,7.137,0,0
0.0011018572,-0.0002145454000000002,0.0027310742,0.00216797,0.0024451582000000003,7.138,0,0
0.0011748224,-0.0014194594000000002,0.0025370642000000004,0.00037501600000000026,0.0016629560000000002,7.139,0,0
0.00010140959999999999,-0.0013909394,0.0013367821999999995,-0.0009574359999999999,0.0008082019999999998,7.14,0,0
-0.0003547559999999999,-0.0016672154,-0.0005563877999999999,-0.003353282,-0.00037924800000000005,7.141,0,0
0.00027099800000000016,-0.003155282,-0.0019285298000000003,-0.004831012000000001,-0.00112822,7.142,0,0
0.00010067898000000014,-0.003761514,-0.002621538,-0.004520192,-0.0014085668,7.143,0,0
-0.00011624821999999994,-0.003860256,-0.0031340300000000003,-0.004142194200000001,-0.0018374986000000001,7.144,0,0
0.00068033378,-0.004993442,-0.002641444,-0.0036214142,-0.0017353360000000003,7.145,0,0
0.00049042318,-0.005598542,-0.0008115380000000001,-0.0016714642,-0.0009019620000000001,7.146,0,0
-0.0014216468200000001,-0.0041087955999999995,0.0016039399999999999,6.45798e-05,-0.0006481995999999999,7.147,0,0
-0.0030193922,-0.0027450376000000007,0.004154537999999999,0.0003977018000000001,-0.0006343424,7.148,0,0
-0.0033011302000000003,-0.0020528036000000004,0.006232092,0.001301478,6.548440000000001e-05,7.149,0,0
-0.0027092382,-0.0005979205999999999,0.0065496808,0.0026592440000000003,0.0003045748,7.15,0,0
-0.0018439800000000003,0.00017458939999999998,0.0048749668,0.0025896520000000004,-0.00035168320000000006,7.151,0,0
-0.000681596,-0.00033933499999999996,0.0018916348,0.0018722180000000001,-0.0006672496,7.152,0,0
0.0012879660000000002,-0.000613615,-0.0014223732000000003,0.0013781260000000004,-0.0008870082,7.153,0,0
0.0026027800000000003,0.0011195370000000003,-0.0035219912000000004,-0.0002460599999999999,-0.0017155550000000001,7.154,0,0
0.0020445752000000004,0.0038728860000000003,-0.004181978,-0.002561512,-0.002349662,7.155,0,0
0.00047885320000000007,0.007501796,-0.0044284220000000004,-0.003459162,-0.0018621468000000001,7.156,0,0
-0.0007584607999999999,0.011775194000000001,-0.0032064520000000003,-0.0033303746000000003,-0.0009297268000000002,7.157,0,0
-0.0016900728000000002,0.013228528000000002,-0.00031501800000000024,-0.0031177986,5.34791999999999e-05,7.158,0,0
-0.0023101248000000005,0.010522892,0.00153957,-0.0021155634,0.0014336172,7.159,0,0
-0.0015984620000000004,0.004447192,0.0019113218000000004,-0.0006741754000000001,0.0023131992000000002,7.16,0,0
-0.000156344,-0.003906868,0.0023636958000000006,-9.227880000000003e-05,0.002540636,7.161,0,0
0.0014710820000000003,-0.013446027999999999,0.0026331218000000003,0.0002166058,0.0025462220000000003,7.162,0,0
0.0031206560000000003,-0.02168728,0.0022489358000000004,0.0013523058,0.00222818,7.163,0,0
0.004345788000000001,-0.027245899999999997,0.0025244938000000003,0.0024804406,0.0016442058000000002,7.164,0,0
0.0048601980000000005,-0.029275499999999996,0.0034611660000000003,0.0031772766,0.0012905786,7.165,0,0
0.005217614000000001,-0.0273516,0.0027849020000000006,0.004505946,0.0009813658,7.166,0,0
0.005177636,-0.020688808000000003,0.0004419760000000002,0.005745194,0.0003112246,7.167,0,0
0.0029399799999999996,-0.005662668000000001,-0.002023342,0.005484086000000001,-8.734019999999999e-05,7.168,0,0
-0.00032610400000000024,0.013843952,-0.004532698,0.0043785198,1.9834000000000014e-05,7.169,0,0
-0.0025644680000000003,0.029044952,-0.006138434000000001,0.0031269318,0.0003160532,7.17,0,0
-0.0038187366000000003,0.037934652000000006,-0.005403764,0.0009107898000000002,0.00032219080000000003,7.171,0,0
-0.004717328600000001,0.04104748,-0.003465244,-0.0018604481999999999,0.00031387840000000005,7.172,0,0
-0.0046655986,0.03541258,-0.0014740320000000001,-0.0038035642,0.00036115100000000004,7.173,0,0
-0.0034009246000000003,0.022994544,0.0006404780000000001,-0.00570637,-0.00032693900000000005,7.174,0,0
-0.0022840854,0.012092579999999999,0.0019907580000000005,-0.007523856000000001,-0.001351021,7.175,0,0
-0.0019973280000000005,0.005490612,0.00252291,-0.00830223,-0.0018788298,7.176,0,0
-0.001768826,0.0009193440000000001,0.0022635466000000006,-0.008442848000000001,-0.0024722502,7.177,0,0
-0.0006534218000000001,-0.0033609180000000005,0.0014836722000000002,-0.007928126,-0.003170668,7.178,0,0
0.00017230320000000002,-0.0061199900000000005,0.0009532522,-0.005687920000000001,-0.002633257,7.179,0,0
0.00041631100000000005,-0.007739566,0.00046061238000000005,-0.001707754,-0.000938005,7.18,0,0
0.0008535842000000001,-0.011103818000000001,6.283218e-05,0.0024848600000000006,0.0007634830000000001,7.181,0,0
0.0016656502000000001,-0.015680950000000003,0.00034677158,0.006360260000000001,0.0023268850000000003,7.182,0,0
0.0024549380000000003,-0.019895068000000002,0.0008969059799999999,0.009270918000000001,0.0035844270000000003,7.183,0,0
0.0028921790000000004,-0.02366728,0.00051646918,0.009608176000000001,0.0034693322000000004,7.184,0,0
0.0036588880000000003,-0.02726394,-0.001252585,0.007667067000000001,0.0019619222000000006,7.185,0,0
0.004153706,-0.028723819999999997,-0.0051780448,0.0053657186,0.0002835022,7.186,0,0
0.0040995020000000005,-0.02781444,-0.0104044788,0.0027252426000000008,-0.0011140678,7.187,0,0
0.0031086748000000003,-0.021449488000000003,-0.015168032800000002,7.81286000000001e-05,-0.0020840538,7.188,0,0
0.0011467328,-0.006632188000000001,-0.015674502,-0.0010516614,-0.0021440496,7.189,0,0
-0.0010005912000000002,0.009672392,-0.008929900000000001,-0.0016805764000000002,-0.0016776914,7.19,0,0
-0.0032605132,0.022984772,0.0013861000000000004,-0.0029617059999999997,-0.0013437004000000001,7.191,0,0
-0.0051835232,0.032446472000000004,0.010909260000000002,-0.00345923,-0.0010633984,7.192,0,0
-0.006006788000000001,0.03367506,0.01815614,-0.0029118112000000003,-0.0008261804000000001,7.193,0,0
-0.004841882,0.02514915,0.020204456000000003,-0.0027096228,-0.0009211528,7.194,0,0
-0.0030273360000000003,0.014313844,0.015472488,-0.0020853706,-0.0008645626,7.195,0,0
-0.002010011,0.006391250000000001,0.008867596,-0.00038663460000000005,-0.00043126960000000006,7.196,0,0
-0.0008685619999999998,0.0011133736000000002,0.0038735700000000002,0.0010194614,4.112039999999993e-05,7.197,0,0
0.00047714200000000006,-0.0016355764000000003,0.0006904560000000001,0.0013489306000000001,0.0007812644,7.198,0,0
0.000939672,-0.0026007584,-0.0007701226000000001,0.0021421502000000003,0.0018478464,7.199,0,0
0.000607198,-0.0017731118000000004,-0.0011373919999999999,0.0031694,0.002329836,7.2,0,0
0.0010379010000000001,-0.0016943578000000003,-0.0010316574,0.0026908970000000003,0.0017862000000000004,7.201,0,0
0.0016879640000000001,-0.0025331474000000005,-0.0013800954000000002,0.0019333648,0.0010542220000000005,7.202,0,0
0.001555692,-0.0022597654000000005,-0.0022185774000000004,0.0014857826000000001,-0.00012706399999999997,7.203,0,0
0.0013576539600000002,-0.0020662054000000003,-0.0033382088000000008,-0.00026194140000000005,-0.0016940320000000003,7.204,0,0
0.0008661539600000002,-0.0034947740000000004,-0.004733939400000001,-0.0027198014,-0.0024586480000000003,7.205,0,0
0.00012274195999999995,-0.006020014000000001,-0.005759482000000001,-0.0034969444000000002,-0.0019884560000000004,7.206,0,0
-0.00045732124,-0.008652848000000001,-0.005314416000000001,-0.0035996790000000006,-0.001087188,7.207,0,0
-0.00023989923999999992,-0.01236938,-0.00367117,-0.0042639868,-0.0003590328000000001,7.208,0,0
0.00015209080000000007,-0.014635048000000001,-0.0013968440000000002,-0.004166862800000001,0.0004117034000000001,7.209,0,0
0.00026547560000000014,-0.011259362000000002,0.0011266919999999999,-0.0029934948000000005,0.0008376470000000001,7.21,0,0
0.0008769828000000002,-0.0041208220000000005,0.002548608,-0.0022462734000000006,0.0007310220000000001,7.211,0,0
0.0008506934000000002,0.0032832979999999996,0.0017557139999999996,-0.0016740126000000003,0.0007266000000000001,7.212,0,0
-1.5464599999999906e-05,0.011057698,-0.0009389160000000004,0.00043730340000000013,0.0015097348000000003,7.213,0,0
-0.0007264166,0.017219777999999998,-0.0038001980000000003,0.0027227954,0.0021473006,7.214,0,0
-0.0007123800000000001,0.0183677,-0.004669791800000001,0.004190083400000001,0.002286855,7.215,0,0
-0.0007311372,0.01627978,-0.0035272038,0.005762512000000001,0.002592874,7.216,0,0
-0.0007681026,0.013203934,-0.0023032222,0.0065201700000000005,0.002547048,7.217,0,0
0.0001831194,0.008597526,-0.0009114222000000001,0.005669330000000001,0.0017017360000000001,7.218,0,0
0.0014025894,0.003188746,0.0012766398,0.004783992000000001,0.0008717321999999999,7.219,0,0
0.002460642,-0.001762336,0.0024687676000000004,0.0037202584000000003,0.0005146626,7.22,0,0
0.002562665,-0.005751486,0.0022561936000000003,0.0013248484,0.00025037800000000005,7.221,0,0
0.0018072689999999996,-0.01026016,0.002937746,-0.0006978215999999999,0.000345032,7.222,0,0
0.0011531424,-0.016366192,0.00446054,-0.0016407736,0.00043156119999999997,7.223,0,0
0.00041978459999999986,-0.021939712,0.0046908440000000004,-0.0030798255999999998,0.00017945300000000005,7.224,0,0
-0.0008510454000000002,-0.02598321,0.0033072624,-0.00474165,-0.00018085739999999995,7.225,0,0
-0.0020149784,-0.025943656,0.0018237864000000003,-0.00521897,-0.0005469016,7.226,0,0
-0.0019967624,-0.019661076,0.0008615070000000002,-0.005551442,-0.0013273816,7.227,0,0
-0.0017691648000000004,-0.010454096,-0.00020544500000000012,-0.006484272,-0.0024042488,7.228,0,0
-0.0013426830000000003,-0.002377203999999999,-0.0013633130000000001,-0.006478258000000001,-0.0028996668000000002,7.229,0,0
-0.000515611,0.006376676,-0.0017605294000000002,-0.005366138000000001,-0.0033330048,7.23,0,0
0.000122139,0.015384152000000002,-0.0015169906000000002,-0.0046941840000000006,-0.004484198,7.231,0,0
0.00015912499999999998,0.019751292,-0.0018604312000000001,-0.004205094,-0.005055584,7.232,0,0
-0.0008133139999999999,0.021711872000000004,-0.0020788892,-0.002378126,-0.0040496183,7.233,0,0
-0.001877194,0.023419020000000002,-0.0014006078000000002,8.502400000000017e-05,-0.0027630022999999997,7.234,0,0
-0.0022740666,0.021878542000000004,-0.0008759617999999999,0.0026019220000000004,-0.0010481583000000003,7.235,0,0
-0.0014302866,0.015790558,-0.0006904837999999998,0.0058520560000000004,0.0016403917000000002,7.236,0,0
-0.0001742225999999998,0.009831474,0.00020469019999999995,0.00864436,0.0036189197000000006,7.237,0,0
0.0008439038000000002,0.006027846000000001,0.0010491182,0.00931969,0.004591240000000001,7.238,0,0
0.0018296378000000003,0.0027546259999999996,0.0006669928,0.008160242,0.005453264,7.239,0,0
0.0020195084,0.00010838199999999975,-0.0006342591999999999,0.0055179059999999995,0.005283562,7.24,0,0
0.0015985700000000001,-0.0036223740000000003,-0.002401432,0.0017221319999999997,0.0038435166,7.241,0,0
0.00158923,-0.00754041,-0.0036049579999999997,-0.0013081960000000002,0.0027201046000000003,7.242,0,0
0.0018551096,-0.009621342000000001,-0.004421042,-0.0022691318,0.0020023366,7.243,0,0
0.0013943342000000002,-0.010476882000000002,-0.0043652228,-0.0019450218000000002,0.0008474212000000001,7.244,0,0
0.0011635194000000001,-0.010983758,-0.0019992968000000005,-0.0009859918,-5.435080000000002e-05,7.245,0,0
0.001138905,-0.01001674,0.0009541292,0.0008770742000000001,-0.0004164234,7.246,0,0
0.00028617700000000004,-0.007966692000000001,0.0021164532,0.0024706782,-0.0009178694,7.247,0,0
-0.0002866294,-0.007726327999999999,0.0030307712000000007,0.0024055294,-0.0017274614000000002,7.248,0,0
-0.0006646099999999999,-0.007604798,0.004776952,0.0019143166,-0.002118454,7.249,0,0
-0.0015287932000000001,-0.005386068,0.0051644,0.0016972286000000003,-0.0022433460000000002,7.25,0,0
-0.0020892084,-0.004717596,0.0039859422,0.0006145166,-0.0028589520000000005,7.251,0,0
-0.0020575164000000003,-0.005290938,0.0018081261999999998,-0.0003771314000000001,-0.003277728,7.252,0,0
-0.0024296540000000003,-0.000857202,-0.0010583998,-0.0005952732000000001,-0.0034953760000000006,7.253,0,0
-0.002130772,0.005708528000000001,-0.0037048918000000004,-0.0013080724,-0.00385657,7.254,0,0
-0.00032596000000000014,0.007834076,-0.004703791800000001,-0.0022829024,-0.0035092466,7.255,0,0
0.00085063,0.009650502000000002,-0.003189212000000001,-0.0028185224,-0.0021596866000000003,7.256,0,0
0.001769226,0.011842964000000001,-0.00094276,-0.0033848263999999998,-0.0008369426000000001,7.257,0,0
0.002781224,0.008179576,0.0007991939999999998,-0.004002032,0.0005853114,7.258,0,0
0.002168002,0.0028730780000000003,0.0017162261999999998,-0.0039437840000000005,0.0020580833999999998,7.259,0,0
0.000533972,0.0012807360000000002,0.0009686981999999998,-0.0038295940000000004,0.0027189899999999997,7.26,0,0
-1.3792999999999927e-05,-0.000242122,-0.0004911944000000001,-0.0038942600000000005,0.002673624,7.261,0,0
-0.00011891099999999997,-0.0022890460000000003,-0.0006408824000000001,-0.0030659506,0.0026382099999999998,7.262,0,0
-0.0006492084000000001,-0.001755826,-0.0002369784,-0.0014480346,0.0026128839999999998,7.263,0,0
-0.0005300964,-0.000433728,5.223800000000016e-06,-0.00011273260000000014,0.0018118876,7.264,0,0
-0.0005712204,0.00045173000000000045,0.0007310378,0.0012992234,0.0013183558,7.265,0,0
-0.0011994554,0.0026210860000000003,0.0010176464,0.0035965214,0.0016700038,7.266,0,0
-0.0016105138000000003,0.005283022000000001,0.0010814604,0.005275094,0.0019939318000000003,7.267,0,0
-0.0018780184000000003,0.007228886000000001,0.0019599004,0.0055356699999999995,0.0017638438,7.268,0,0
-0.0021968024000000004,0.007239776000000001,0.0030239700000000004,0.005260091999999999,0.0017172084,7.269,0,0
-0.0020346104,0.005000478000000001,0.003600438,0.0043585839999999995,0.0016340214000000002,7.27,0,0
-0.0017132476,0.0020645900000000007,0.0040128180000000005,0.0022370199999999997,0.0003099954,7.271,0,0
-0.0016147569999999999,-0.0012430159999999998,0.00419615,-0.0002665600000000002,-0.0013167166,7.272,0,0
-0.0006318329999999999,-0.004791896,0.003172312,-0.002150522,-0.0023188326,7.273,0,0
0.000879707,-0.008218966000000001,0.0010497399999999995,-0.0035913540000000006,-0.0026652568,7.274,0,0
0.002532119,-0.012161084000000003,-0.000880242,-0.004974228000000001,-0.0031483160000000004,7.275,0,0
0.004383862200000001,-0.01560187,-0.0019624259999999998,-0.005981172,-0.0034204400000000003,7.276,0,0
0.005126474000000001,-0.017427884,-0.0016069639999999996,-0.006966122,-0.0034348499999999997,7.277,0,0
0.005183694,-0.01913246,-0.0005251979999999998,-0.007809484,-0.003956516,7.278,0,0
0.005376632000000001,-0.018576194,-1.6113999999999907e-05,-0.007411448,-0.004493016000000001,7.279,0,0
0.00447811,-0.014150334,-0.00010316000000000004,-0.005229608,-0.0039383158,7.28,0,0
0.003105202,-0.00818114,-0.0011786359999999998,-0.0013995720000000004,-0.0013137338,7.281,0,0
0.0020511996000000003,3.217999999999971e-05,-0.0031977460000000004,0.0028890519999999996,0.0020556282,7.282,0,0
-0.00015439839999999995,0.0117261,-0.005048706,0.00770544,0.0051564002,7.283,0,0
-0.0025746224,0.021840714,-0.005707930000000001,0.01080936,0.007486608200000001,7.284,0,0
-0.0036029424,0.024368573999999997,-0.005622366,0.012399819999999999,0.008136826,7.285,0,0
-0.0042933144000000005,0.023749474,-0.004003797999999999,0.011923818000000003,0.0074348339999999995,7.286,0,0
-0.004503362,0.017928925999999998,-0.00010387799999999996,0.007972094,0.005819659999999999,7.287,0,0
-0.002410172000000001,0.003320946000000001,0.0034391560000000005,0.0052573939999999994,0.004056140000000001,7.288,0,0
0.0003444899999999999,-0.006957874,0.004163572,0.005346794,0.0031228379999999997,7.289,0,0
0.0014275739999999998,-0.006122874000000002,0.00238981,0.0057673740000000005,0.0028058460000000003,7.29,0,0
0.0019286057999999997,-0.0006202480000000021,-0.0004937400000000003,0.005821438,0.0015887,7.291,0,0
0.0014351137999999999,0.009344519999999999,-0.004313606,0.007123344,-0.0010354820000000001,7.292,0,0
-0.0007662542000000004,0.023260379999999997,-0.007364212,0.00496298,-0.004910712,7.293,0,0
-0.0032365922,0.0315429,-0.0068363334,-0.0019021000000000003,-0.009761348000000001,7.294,0,0
-0.0045295682,0.03154816,-0.0026438133999999993,-0.00877086,-0.013779092000000001,7.295,0,0
-0.004651128,0.022142260000000004,0.0021302266,-0.012614882,-0.014954730000000001,7.296,0,0
-0.003262762,0.0037071000000000014,0.0058745726,-0.012600403999999999,-0.011724560000000002,7.297,0,0
-0.0002799599999999999,-0.01712184,0.0087058586,-0.011745614,-0.005395840000000001,7.298,0,0
0.002568952,-0.0361602,0.008834698,-0.010688674,0.0006628200000000002,7.299,0,0
0.0046563,-0.049002040000000004,0.007111981200000001,-0.011647454000000002,0.004749425999999999,7.3,0,0
0.005714556,-0.050653960000000005,0.005337507200000001,-0.015990734,0.006077737,7.301,0,0
0.0069769260000000005,-0.042253632,0.0021171572,-0.022006414,0.003866903,7.302,0,0
0.0075288740000000005,-0.028456998,-0.0017333388000000001,-0.026349300000000003,-0.000574443,7.303,0,0
0.0060306214,-0.010767418,-0.0034299768000000002,-0.025184610000000003,-0.004122141,7.304,0,0
0.0046670434,0.005994841999999999,-0.0031452480000000002,-0.017147370000000002,-0.0055244510000000005,7.305,0,0
0.0035253158000000005,0.016187402,-0.0022437180000000004,-0.003513650000000002,-0.0045478720000000005,7.306,0,0
0.0014141758000000002,0.021073014,-0.0007131279999999999,0.011903209999999997,-0.001655092,7.307,0,0
-0.0005615508,0.02313582,0.001059714,0.02612607,0.002005122,7.308,0,0
-0.0007980482000000001,0.0213185,0.0013298640000000003,0.03562516,0.004992444,7.309,0,0
-0.000354554,0.01727982,-0.0006020779999999998,0.03799566,0.006859132,7.31,0,0
-0.00029308580000000006,0.014768380000000001,-0.003785898,0.033847600000000005,0.008042396,7.311,0,0
-0.0021238617999999997,0.0172445,-0.005592136,0.026105296,0.008455476,7.312,0,0
-0.0059235812,0.02259214,-0.005187168,0.016784408,0.008932748,7.313,0,0
