bandpass 1,bandpass 2,bandpass 3,bandpass 4,bandpass 5,time,onset,mark
-0.006713608000000001,0.0017734127999999997,-0.005056018,0.001071731,-0.001310444,3.352,0,0
-0.007265490000000001,0.0050512528,-0.005771568,0.001540205,-0.0020588520000000003,3.353,0,0
-0.006613874000000001,0.0078038128,-0.004914643999999999,0.002050203,-0.002588416,3.354,0,0
-0.0051432000000000005,0.0103379774,-0.0016179600000000005,0.0024754959999999998,-0.0026975060000000006,3.355,0,0
-0.0025222379999999996,0.011035584,0.0010260059999999999,0.0022192326,-0.0026052920000000004,3.356,0,0
0.0012762220000000005,0.006962744000000001,0.002910292,0.0011436706,-0.0020737312,3.357,0,0
0.0023637580000000005,0.001124304,0.0034809693999999997,-7.11234e-05,-0.0017119732000000004,3.358,0,0
0.002482708,-0.004408416,0.002662907,-0.0018571714,-0.0017610292000000004,3.359,0,0
0.004168864,-0.010071216000000001,0.001521447,-0.0037886574,-0.0015828130000000002,3.36,0,0
0.005152582,-0.0129476,0.001119283,-0.004690046,-0.000720301,3.361,0,0
0.004224712,-0.01139007,0.001388139,-0.004513972,-7.89238e-05,3.362,0,0
0.002999834,-0.009332844,0.0019968976000000003,-0.004282552,0.0006303141999999999,3.363,0,0
0.0010851839999999999,-0.007031816000000001,0.002573988,-0.00384382,0.0014986982,3.364,0,0
-0.0031910780000000004,-0.0025347780000000006,0.002425074,-0.0028644760000000003,0.001334202,3.365,0,0
-0.0054597840000000005,0.0008624140000000001,0.0018639849999999999,-0.0024220640000000002,0.00043212799999999994,3.366,0,0
-0.003678474000000001,0.00278229,0.0012618969999999999,-0.00180883,0.0002249499999999999,3.367,0,0
-0.0034819700000000005,0.0064698640000000005,0.0005228429999999999,-7.005999999999983e-05,0.00045473199999999996,3.368,0,0
-0.00418693,0.010245616,-0.000502921,0.0024288840000000005,0.0007875599999999999,3.369,0,0
-0.0023806260000000003,0.011780858,-0.0012750230000000001,0.004503838000000001,0.0018791080000000002,3.37,0,0
-0.0031573620000000004,0.013333246,-0.0016927180000000002,0.0057099640000000005,0.002829796,3.371,0,0
-0.00661045,0.013740504,-0.0020778260000000005,0.0057439740000000015,0.0026076434000000003,3.372,0,0
-0.005560826,0.009642913999999999,-0.0019743390000000003,0.0042327960000000005,0.0019606428000000006,3.373,0,0
-0.0021441539999999997,0.0030306940000000004,-0.0014701736,0.0021450260000000004,0.0013699602,3.374,0,0
0.0008446000000000005,-0.0039763260000000005,-0.0011235722,0.0004139004,0.0006337514,3.375,0,0
0.005895102000000001,-0.012294066,-0.0007582722,-0.0009116836,0.00045705340000000004,3.376,0,0
0.009982510000000002,-0.01934479,-0.00021318860000000008,-0.0018861116000000002,0.000889386,3.377,0,0
0.009982760000000002,-0.020278972,6.054699999999999e-05,-0.0018953296,0.0012512266,3.378,0,0
0.009467874000000003,-0.016875668,0.0001337068,-0.0017792096000000003,0.0011901420000000002,3.379,0,0
0.010262176,-0.012691431000000001,0.0005707253999999999,-0.0019477680000000003,0.0010657962,3.38,0,0
0.007901646,-0.005753997,0.0010732274,-0.0013288360000000001,0.0005681484,3.381,0,0
0.0026654259999999994,0.0027478830000000004,0.000987015,-0.00020957999999999996,-0.0005448236,3.382,0,0
-0.0011163080000000003,0.0075892350000000015,0.0008433620000000001,0.000508058,-0.0012549136,3.383,0,0
-0.005295950000000001,0.010008791000000001,0.00044992679999999996,0.001229034,-0.0015218524000000003,3.384,0,0
-0.01110765,0.013035974,-0.0005077532,0.0023515360000000004,-0.0018317218000000002,3.385,0,0
-0.014410300000000001,0.014455260000000001,-0.0012724872,0.00296712,-0.0018571508000000002,3.386,0,0
-0.013026212,0.013135696,-0.0016711724000000002,0.0031952120000000007,-0.0013640044000000002,3.387,0,0
-0.009023288,0.011447100000000002,-0.00209359,0.0035298660000000004,-0.0012747144,3.388,0,0
-0.0029917079999999996,0.009320206000000001,-0.0022454980000000003,0.0031927924000000004,-0.0014899604,3.389,0,0
0.003504972,0.005702762,-0.0015071552,0.0018107344000000002,-0.0012061546,3.39,0,0
0.00722255,0.00198206,-0.0005038652,0.0004248984000000001,-0.0009009656000000002,3.391,0,0
0.009603744,-0.0014509420000000002,0.00040087879999999997,-0.0008377095999999999,-0.0006921682,3.392,0,0
0.01116224,-0.005291386,0.0013745388,-0.0022504876,0.00019211780000000006,3.393,0,0
0.009807670000000001,-0.008528972000000001,0.0019942788,-0.0027191200000000002,0.0015804898,3.394,0,0
0.007288556000000001,-0.010448328,0.0020215974,-0.002474492,0.0019923420000000002,3.395,0,0
0.006651374,-0.012614866,0.0019427434000000002,-0.002536848,0.0018991674000000001,3.396,0,0
0.00579937,-0.014341340000000001,0.0016749674,-0.002643042,0.0024722336,3.397,0,0
0.002819246,-0.012883776,0.0009115454000000001,-0.0022964860000000004,0.0021640896000000003,3.398,0,0
0.000985152,-0.009042894,0.0002538254,-0.0019385172,0.0007982515999999999,3.399,0,0
0.00029791899999999995,-0.0041076540000000005,-0.00017876000000000003,-0.0015888462000000002,0.0003155558000000001,3.4,0,0
-0.0024203970000000003,0.002629746,-0.000962092,-0.0006680802,0.00014543219999999999,3.401,1,1
-0.005721615000000001,0.009456786,-0.001726156,0.0005289397999999999,-0.0008517818000000001,3.402,0,0
-0.006983021,0.013048222000000002,-0.001737142,0.0012236638,-0.0014645058000000001,3.403,0,0
-0.008095827,0.013670698000000002,-0.0014850778000000003,0.0015646829999999999,-0.0012021378,3.404,0,0
-0.010044222000000002,0.012991730000000002,-0.0013660034,0.0019186399999999999,-0.0015768040000000002,3.405,0,0
-0.009165188,0.009784004,-0.0009981374000000002,0.00163270802,-0.0025496700000000004,3.406,0,0
-0.005469576,0.005017636000000001,-0.00010911140000000003,0.0009551380200000002,-0.0028691560000000003,3.407,0,0
-0.0029526600000000006,0.0021371360000000004,0.0006803085999999999,0.00058901548,-0.002603805,3.408,0,0
-0.0008424379999999999,-8.507799999999972e-05,0.0010834504,0.00020333268000000002,-0.002151297,3.409,0,0
0.0026909200000000003,-0.004410170000000001,0.00155097,-0.00080053532,-0.001076039,3.41,0,0
0.004244524,-0.008355564000000001,0.001823708,-0.00141911934,0.0005819889999999999,3.411,0,0
0.0030943859999999998,-0.010526596000000001,0.0018215619999999999,-0.0012138233399999999,0.001626583,3.412,0,0
0.00264701,-0.013678376,0.0017998340000000002,-0.0012641149999999997,0.0021710839999999998,3.413,0,0
0.0017592267999999999,-0.01591844,0.001653859,-0.0011787545399999998,0.0024204,3.414,0,0
-0.0008210332,-0.013727636,0.000992871,-0.00019588854000000003,0.002130626,3.415,0,0
-0.0024265792,-0.008191854,0.00029273299999999994,0.0008769314600000001,0.0015629810600000002,3.416,0,0
-0.0026271192,-0.001747714,-0.00035388700000000005,0.0012868354600000002,0.0010773838600000001,3.417,0,0
-0.0041562372,0.004646066000000001,-0.001522363,0.0021788516600000003,0.00083258486,3.418,0,0
-0.0066002660000000005,0.010249166,-0.002333302,0.0031492300000000003,0.0006354248599999999,3.419,0,0
-0.007837362,0.013427082,-0.0024611900000000003,0.003129712,0.00055650786,3.42,0,0
-0.007188632,0.013144168000000001,-0.0027437620000000003,0.002823386,0.0004153261999999999,3.421,0,0
-0.0045072260000000005,0.010754306,-0.0029292140000000003,0.0019978780000000002,0.00023236339999999997,3.422,0,0
3.4122000000000145e-05,0.00811185,-0.0021646454,0.00046766799999999997,1.823199999999997e-05,3.423,0,0
0.005494522,0.0051790922,-0.0010367714000000003,-0.0008571200000000001,-3.7141999999999964e-05,3.424,0,0
0.009082412000000002,0.0025563080000000006,0.0002599086000000001,-0.0019784900000000003,9.017900000000005e-05,3.425,0,0
0.010377964000000002,0.0005473420000000001,0.0015015426,-0.003252388,0.00043005760000000006,3.426,0,0
0.009865424000000001,-0.001954258,0.0019926744,-0.003970998,0.0009672596,3.427,0,0
0.007788992000000001,-0.004243082,0.0020853710000000004,-0.004191754000000001,0.0012174339999999999,3.428,0,0
0.005198318000000001,-0.0053779262,0.0018413812,-0.00443529,0.00121222,3.429,0,0
0.0038473988000000004,-0.0067862800000000004,0.0015755472000000001,-0.00398968,0.00128785,3.43,0,0
0.0038580928000000003,-0.008377289999999999,0.0016350392,-0.002655872,0.0013830080000000002,3.431,0,0
0.0032904068000000003,-0.008106466,0.0017265122,-0.000903286,0.0009440026,3.432,0,0
0.0027136088000000004,-0.007052720000000001,0.0017273072,0.0010647440000000003,0.0002752726,3.433,0,0
0.0017091888,-0.0055799226,0.0015814038000000002,0.002794344,-0.0003360634000000002,3.434,0,0
-0.0013496219999999998,-0.001311144599999999,0.0004467138,0.00376592,-0.0012224154,3.435,0,0
-0.00590037,0.004611603400000001,-0.0008518102,0.00389078,-0.0022570914000000003,3.436,0,0
-0.009654284,0.0096711414,-0.001529759,0.00382506,-0.0027085340000000003,3.437,0,0
-0.012446294000000002,0.0136569754,-0.0025207112,0.003476044,-0.002700652,3.438,0,0
-0.013024928000000002,0.01652642,-0.0031692660000000004,0.0025042722000000006,-0.0027973900000000003,3.439,0,0
-0.009582011999999999,0.014721488,-0.002890718,0.0019043536000000001,-0.0026998200000000003,3.44,0,0
-0.004474420000000001,0.010009268,-0.00220902718,0.0016609912,-0.002563362,3.441,0,0
-0.0003299179999999998,0.004984130000000001,-0.00174462058,0.0009585302,-0.00269207,3.442,0,0
0.003980302000000001,-0.0007331899999999994,-0.0012142805800000002,-0.0003030237999999999,-0.00271361,3.443,0,0
0.006832910000000001,-0.005505796,-0.00030137258,-0.0009714820000000001,-0.0024300899999999998,3.444,0,0
0.007560196,-0.007843524,0.00048949342,-0.0008721019999999998,-0.0021595668,3.445,0,0
0.008505104000000001,-0.007863174,0.0011210806,-0.0011755796,-0.0014414656,3.446,0,0
0.008461310000000001,-0.007726076,0.001774558,-0.0009851868,-0.0003786136,3.447,0,0
0.006660638000000001,-0.0031298940000000003,0.002244086,-0.00018728480000000007,0.0005776144000000001,3.448,0,0
0.002674258,8.495599999999996e-05,0.002195338,0.0009170192000000001,0.0012563944000000002,3.449,0,0
0.0009892120000000006,0.004728816000000001,0.0013956240000000003,0.0009104984000000001,0.0016632652,3.45,0,0
-0.004667168,0.006746016000000001,0.0008562532000000002,-0.0017467216,0.0025518460000000004,3.451,0,0
-0.00793209,-0.008906744000000001,0.0014935632000000001,-0.0054460334000000004,0.0036646580000000003,3.452,0,0
0.0041734219999999995,-0.027957566,0.0020923372,-0.008698899400000001,0.004902328,3.453,0,0
0.015453742000000001,-0.04041385,0.0024536412000000004,-0.0114988194,0.006376948,3.454,0,0
0.018173346000000003,-0.05023681,0.0032570452,-0.012510106,0.007431298,3.455,0,0
0.020982236,-0.050134448,0.002868372,-0.008993902000000002,0.007220932,3.456,0,0
0.017190410000000003,-0.027505328000000002,0.00059102,-0.0031529019999999995,0.005509396000000001,3.457,0,0
-0.0018826499999999996,0.0007518520000000008,-0.0016300900000000003,0.002907998,0.00218912,3.458,0,0
-0.01889035,0.024698532000000002,-0.0035587440000000004,0.008948058000000002,-0.001552264,3.459,0,0
-0.030471850000000005,0.047859572,-0.005243492000000001,0.013489784000000003,-0.004727078,3.46,0,0
-0.039599260000000004,0.06317856000000001,-0.005842536000000001,0.016080900000000002,-0.008169770000000002,3.461,0,0
-0.04075616000000001,0.06983244000000001,-0.005504122,0.016343260000000002,-0.010281612,3.462,0,0
-0.037466400000000004,0.06603168000000001,-0.004315952,0.014714928000000002,-0.010194836,3.463,0,0
-0.028763784,0.053641938,-0.00269138,0.011133266000000001,-0.009468852,3.464,0,0
-0.014176583999999999,0.031690197999999996,-0.0009231860000000001,0.006119926000000001,-0.007952738,3.465,0,0
0.004475556,0.003797657999999997,0.0009536520000000001,0.00047984600000000035,-0.0051857038,3.466,0,0
0.021949116,-0.022427602,0.002745182,-0.005185154000000001,-0.0023790678000000006,3.467,0,0
0.036914916000000006,-0.044466462,0.003982808,-0.010294042,0.0001806341999999999,3.468,0,0
0.04871720000000001,-0.059741140000000005,0.004624344000000001,-0.014292820000000001,0.0030396962,3.469,0,0
0.0526017,-0.06549094000000001,0.004890080000000001,-0.016140380000000003,0.0056044522,3.47,0,0
0.04748278,-0.0609506,0.004611598000000001,-0.015892120000000003,0.007392304000000001,3.471,0,0
0.035951226,-0.04967632,0.003828176,-0.013497776,0.008452076,3.472,0,0
0.019435746,-0.031775779999999997,0.002531104,-0.009143356000000002,0.008630488,3.473,0,0
-0.0014794740000000015,-0.007973500000000003,0.0009259680000000002,-0.003328516,0.007638880000000001,3.474,0,0
-0.020090194000000002,0.01530008,-0.001106914,0.0029067240000000007,0.005555345200000001,3.475,0,0
-0.032092514,0.03511492,-0.0031934900000000002,0.008328584,0.0027736512000000003,3.476,0,0
-0.0390187,0.0516031,-0.004628004,0.01261328,-0.0004646568000000002,3.477,0,0
-0.04033834000000001,0.06050588,-0.005278082000000001,0.0149661,-0.0037526048000000004,3.478,0,0
-0.03531238,0.0587589,-0.0051999260000000005,0.014355108000000002,-0.006204472800000001,3.479,0,0
-0.0279366,0.049693100000000004,-0.004414536,0.01156215,-0.007593166000000001,3.48,0,0
-0.021349075999999998,0.035561647999999994,-0.0030238706200000007,0.007927966,-0.007838108,3.481,0,0
-0.012111378,0.014942107999999999,-0.0014370526200000002,0.0029807040000000003,-0.0063473259999999995,3.482,0,0
-0.0010227379999999996,-0.007894232000000004,4.1593379999999925e-05,-0.002195416,-0.003603662,3.483,0,0
0.009015042000000001,-0.027254952000000002,0.00118210938,-0.006296304000000001,-0.0010707039999999996,3.484,0,0
0.019518382,-0.04319109200000001,0.0023448713800000003,-0.009645926,0.0013366419999999999,3.485,0,0
0.028738898000000002,-0.05410298000000001,0.0033162520000000004,-0.011815802,0.0038843920000000004,3.486,0,0
0.033877460000000005,-0.05642224000000001,0.003301726,-0.01244926,0.005350702000000001,3.487,0,0
0.03454148,-0.050901940000000014,0.002646232,-0.011436046,0.00571445,3.488,0,0
0.030334180000000006,-0.04071534200000001,0.0019519518,-0.00904571,0.005771162000000001,3.489,0,0
0.02094746,-0.025333662,0.0008441597999999999,-0.005281663999999999,0.0051841000000000005,3.49,0,0
0.009871400000000002,-0.004912122000000001,-0.0007207002000000002,-0.000777818,0.0034808800000000004,3.491,0,0
-0.001842219999999999,0.016320038,-0.0020431222,0.003422042,0.0016379140000000007,3.492,0,0
-0.01560898,0.034400938,-0.0026295582000000002,0.007215648,-9.896399999999989e-05,3.493,0,0
-0.027871860000000002,0.04732364,-0.002818382,0.010424412000000001,-0.00235167,3.494,0,0
-0.0339757,0.05267372,-0.002820574,0.012242386000000001,-0.0043897300000000005,3.495,0,0
-0.03355178,0.0481886,-0.0022093158,0.012018290000000001,-0.005441584,3.496,0,0
-0.029719768,0.03678113399999999,-0.0009972878000000002,0.010163956,-0.0060247140000000005,3.497,0,0
-0.021078612,0.021839854,0.00048386420000000004,0.006767188000000001,-0.006254066000000001,3.498,0,0
-0.006741412000000001,0.004028454000000001,0.0018589182000000003,0.002295402,-0.0049182979,3.499,0,0
0.007766828,-0.013852366000000001,0.0033063702000000004,-0.0023040380000000004,-0.0027497379000000002,3.5,0,0
0.018947148,-0.028403726000000004,0.004319642,-0.006360628,-0.0006837418999999998,3.501,0,0
0.027506356000000003,-0.0385389,0.004989543999999999,-0.009195934,0.0018645701000000003,3.502,0,0
0.032769900000000005,-0.04267386,0.0052318220000000006,-0.010761526,0.0043885701,3.503,0,0
0.03196566,-0.03986726,0.004590892,-0.010801586000000002,0.005818996000000001,3.504,0,0
0.025554078,-0.03214972,0.0035124986,-0.00917386,0.0063609700000000005,3.505,0,0
0.016309882,-0.021086474,0.0020588286,-0.006381894000000002,0.006679712000000001,3.506,0,0
0.0054297619999999994,-0.007376554000000001,0.0004338066,-0.0026959800000000006,0.005943224,3.507,0,0
-0.005709818,0.006990986000000002,-0.0014662934000000002,0.001055426,0.0042253068,3.508,0,0
-0.015225818,0.020498426000000004,-0.0031117914,0.004130726,0.002634153,3.509,0,0
-0.023141596,0.032223286000000004,-0.004238616000000001,0.0063893100000000005,0.0013018646,3.51,0,0
-0.0291542,0.040445300000000003,-0.004649422,0.007331104,-0.00013073140000000006,3.511,0,0
-0.030692,0.0426281,-0.004422546,0.007084402,-0.0015553754000000003,3.512,0,0
-0.02797422,0.037923540000000006,-0.0036031369999999997,0.006089772,-0.0023491502000000004,3.513,0,0
-0.023195596,0.028446781600000005,-0.0022298782,0.004295271999999999,-0.0029554264,3.514,0,0
-0.014758649999999998,0.015196621600000002,-0.0010894358000000002,0.0016726279999999998,-0.003647098,3.515,0,0
-0.0037468500000000004,0.00017346159999999736,7.817619999999996e-05,-0.0011478200000000001,-0.003591926,3.516,0,0
0.005229250000000001,-0.013115318400000003,0.0012167142,-0.003675982,-0.002593236,3.517,0,0
0.01370615,-0.0236166384,0.0020389592,-0.005500442,-0.001410772,3.518,0,0
0.023438746000000003,-0.03138578,0.0026704524000000004,-0.006471154000000001,-5.357800000000009e-05,3.519,0,0
0.028707119999999996,-0.03491166,0.003260974,-0.006797508000000001,0.0013553500000000002,3.52,0,0
0.027651359999999996,-0.03342586,0.003312464,-0.006025886,0.0020207940000000002,3.521,0,0
0.024915936000000003,-0.02874184,0.0027651968,-0.0045364862,0.002182934,3.522,0,0
0.01865079,-0.021420472,0.0019727746000000003,-0.0026219522,0.002282328,3.523,0,0
0.00772485,-0.010763591999999999,0.0009245006,-3.463420000000025e-05,0.0019843300000000003,3.524,0,0
-0.0017959299999999998,0.0015605880000000003,0.00010733020000000009,0.0027374278,0.0009273540000000002,3.525,0,0
-0.00817993,0.012906388000000001,-0.000294030522,0.0053157138,-0.0001640579999999999,3.526,0,0
-0.013577005999999999,0.022752388000000002,-0.000579048722,0.007659904,-0.00121456,3.527,0,0
-0.01781748,0.0298834,-0.000662921322,0.008924626,-0.0028211819999999998,3.528,0,0
-0.019863520000000003,0.032364760000000006,-0.00036327032199999997,0.008883642,-0.004267646,3.529,0,0
-0.019607080000000002,0.030429260000000003,-0.000366967922,0.007967876,-0.004623072000000001,3.53,0,0
-0.016773666,0.02431147,-0.0005806772,0.0059519412,-0.004397448,3.531,0,0
-0.011038336000000003,0.01339877,-0.0003738340000000001,0.0032587832,-0.0038910960000000006,3.532,0,0
-0.0028514360000000006,-0.00023833000000000014,-0.00025338142,0.0003656152,-0.002456806,3.533,0,0
0.005498264,-0.012316530000000003,-0.00040174982000000005,-0.0022347727999999997,-0.0010570720000000003,3.534,0,0
0.012121124,-0.02144281,-0.00034995302000000004,-0.0043441828000000005,-0.000242082,3.535,0,0
0.01639019,-0.02779832,-0.00027528402,-0.005854897999999999,0.0007503660000000001,3.536,0,0
0.01675314,-0.029721360000000002,-0.00053930342,-0.00638269,0.0018293420000000003,3.537,0,0
0.013993765999999998,-0.027835220000000004,-0.0008179912,-0.006212628,0.0025815160000000003,3.538,0,0
0.009873926,-0.0243603,-0.0011420638,-0.005630948,0.0032420540000000003,3.539,0,0
0.0041146740000000005,-0.017623318,-0.0017672325999999999,-0.004015904,0.003879512,3.54,0,0
-0.002458986,-0.007415678,-0.0024591076,-0.0016578460000000001,0.0036030700000000003,3.541,0,0
-0.007092726,0.003215402,-0.002994992,0.0004995560000000003,0.0024935680000000003,3.542,0,0
-0.009332882,0.014146702,-0.00308682,0.002858872,0.001126514,3.543,0,0
-0.011074976000000002,0.024536662,-0.0023401340000000002,0.0049153700000000005,-0.00049981,3.544,0,0
-0.011512264,0.03001472,-0.0008578179999999998,0.005725254000000001,-0.0020341440000000003,3.545,0,0
-0.009590580000000001,0.029822600000000005,0.0004340180000000001,0.0055475820000000006,-0.002998026,3.546,0,0
-0.007347912000000001,0.02645418,0.0011910164000000002,0.004887538000000001,-0.003250438,3.547,0,0
-0.0054509860000000005,0.019673348,0.0017197198,0.0034313552000000006,-0.003431272,3.548,0,0
-0.0016647579999999997,0.008925708000000001,0.0016363738000000003,0.0010945852000000004,-0.0033724500000000004,3.549,0,0
0.0034971820000000006,-0.0028993719999999995,0.0010357556,-0.0013182328,-0.0025783806,3.55,0,0
0.007919818,-0.012671612,0.0007390064000000001,-0.0034530448,-0.00169668,3.551,0,0
0.012476690000000002,-0.020963672000000003,0.0010144580000000002,-0.0052958968,-0.0013061796000000002,3.552,0,0
0.015973594,-0.026882640000000003,0.0013898806000000002,-0.006487732,-0.0009924376,3.553,0,0
0.015672291999999997,-0.027437460000000004,0.0014440886,-0.006512716,-0.0002055854,3.554,0,0
0.0125060394,-0.023284184000000003,0.0015984288,-0.005661612000000001,0.00036165920000000003,3.555,0,0
0.007918465399999998,-0.016214932,0.0016694720000000002,-0.003866908,0.0007894346000000001,3.556,0,0
0.0011335253999999995,-0.006063032,0.0006274820000000002,-0.0013566420000000004,0.0018288842,3.557,0,0
-0.0055857546,0.005417228,-0.001611796,0.000971778,0.0028022962,3.558,0,0
-0.0095795866,0.014237628,-0.004194836,0.0031260619999999998,0.0029685400000000004,3.559,0,0
-0.012753074000000003,0.019703852,-0.00642802,0.00485862,0.0028236620000000002,3.56,0,0
-0.014844580000000001,0.022130660000000003,-0.00747531,0.005884874000000001,0.0021098728000000003,3.561,0,0
-0.013447740000000003,0.020287279999999998,-0.006084974000000001,0.0059542580000000005,0.0005388148000000001,3.562,0,0
-0.009760562000000002,0.014918460000000001,-0.001519762,0.005408298000000001,-0.0005527372,3.563,0,0
-0.006441948000000001,0.009474316000000002,0.004551658,0.004886904000000001,-0.0010970312000000001,3.564,0,0
-0.0015829300000000002,0.0035600320000000003,0.008379096,0.0036816740000000002,-0.0015923366000000002,3.565,0,0
0.0039408099999999995,-0.003751788,0.009358934600000002,0.0015333020000000003,-0.0011341734000000002,3.566,0,0
0.006439808,-0.008241068,0.008425210600000002,-0.0005601200000000001,-0.00015445539999999998,3.567,0,0
0.00840195,-0.009806256,0.0049437306000000006,-0.002174916,0.0002472342000000001,3.568,0,0
0.011434816,-0.011785532000000001,0.0005217765999999997,-0.0039041660000000006,0.0008256662000000001,3.569,0,0
0.012016018,-0.012937728,-0.0020377914000000003,-0.0049158560000000006,0.0014897756000000002,3.57,0,0
0.009532696,-0.011401068,-0.002760322,-0.004591704,0.0014459496000000002,3.571,0,0
0.007331560000000001,-0.009546594,-0.0025882834,-0.004063140000000001,0.0010406024000000002,3.572,0,0
0.00324703,-0.0070745159999999994,-0.0020133754,-0.003436198,0.0010658866,3.573,0,0
-0.00336101,-0.001972276,-0.0019465694,-0.0021726358000000003,0.0013569426,3.574,0,0
-0.007563810000000001,0.0034454840000000004,-0.0017824554000000002,-0.0007367978000000002,0.0011688126,3.575,0,0
-0.008548612,0.007651204,-0.0011782708,0.00030046219999999994,0.0008542774000000001,3.576,0,0
-0.00814884,0.010832330000000001,-0.0007464394000000001,0.0014774842000000001,0.0009905344,3.577,0,0
-0.007143092,0.012609920000000002,-0.0002965054,0.0024008822,0.0010025020000000002,3.578,0,0
-0.004875788,0.011753202,-0.0006107774000000001,0.002478856,0.0007645659999999999,3.579,0,0
-0.002429814,0.008876652000000002,-0.0031877354,0.0022765060000000006,0.000922686,3.58,0,0
-0.0016289979999999998,0.006528292000000001,-0.0077217200000000005,0.0017840140000000002,0.0007620572000000002,3.581,0,0
-0.000499916,0.002796942,-0.012375858,0.0007758579999999998,0.0006604794000000001,3.582,0,0
0.0011053240000000002,-0.0037109380000000004,-0.014611948,-0.000255988,0.0010720220000000002,3.583,0,0
0.001992502,-0.00935878,-0.011494348,-0.001001644,0.001190526,3.584,0,0
0.0037755880000000003,-0.01294489,-0.002728028000000002,-0.0017919580000000002,0.001270782,3.585,0,0
0.005561063999999999,-0.015468890000000002,0.007858292000000001,-0.002570038,0.001941986,3.586,0,0
0.004091582,-0.014936134,0.015526492000000001,-0.0028164180000000002,0.00230781,3.587,0,0
0.002654906,-0.011930350000000003,0.018453723999999998,-0.002562792,0.0016118200000000001,3.588,0,0
0.005065364,-0.009236716,0.016768824,-0.0023065100000000003,0.0008095120000000003,3.589,0,0
0.004922704,-0.004685155999999999,0.011040612400000002,-0.0016961020000000001,7.120000000000975e-07,3.59,0,0
0.002283818,0.0003075439999999999,0.004374182400000001,-0.0009376622959999999,-0.001092806,3.591,0,0
0.0026426659999999992,0.002869518,0.0006696144000000002,-0.00013663229599999993,-0.002035102,3.592,0,0
0.0023316599999999993,0.006029714,-0.00019574160000000013,0.0009451177040000001,-0.002342412,3.593,0,0
-0.0025594800000000003,0.01045034,-0.00047676960000000003,0.0017959977040000001,-0.0025646600000000003,3.594,0,0
-0.00701298,0.01334564,-0.0007446360000000001,0.002301749704,-0.002617736,3.595,0,0
-0.006808434,0.013798880000000001,-0.0009394900000000001,0.002539646,-0.0018586452000000002,3.596,0,0
-0.007067994000000001,0.0131889,-0.001256352,0.0024531,-0.0009903132000000001,3.597,0,0
-0.007797786000000001,0.010660284,-0.00186217,0.001888412,-0.0003993312,3.598,0,0
-0.005978846,0.005019403999999999,-0.0024578060000000003,0.0011976074,0.00029765060000000004,3.599,0,0
-0.003036932,-0.0017558960000000003,-0.002570242,0.0007350202,0.0009812106,3.6,0,0
-0.001166228,-0.0065958,-0.002237322,0.0005609978000000001,0.0013238758,3.601,0,0
0.00040866199999999985,-0.00854913,-0.002023464,-2.6384200000000024e-05,0.0013190758000000001,3.602,0,0
0.003061804,-0.0083999116,-0.0019374379999999999,-0.0006221082,0.0011911220000000002,3.603,0,0
0.005253968,-0.005587391600000001,-0.0020764140000000004,-0.0007975916,0.0011982860000000002,3.604,0,0
0.007275734,-0.0021934924,-0.0030597820000000005,-0.0015204084000000001,0.0006632594000000001,3.605,0,0
0.008418128,-0.0009886224000000001,-0.003946496000000001,-0.002039742,-0.0003382706000000001,3.606,0,0
0.008124008,-0.0010977424000000002,-0.004695086,-0.0017427856000000004,-0.0011261786,3.607,0,0
0.006431742,-0.00039275879999999984,-0.005272456,-0.0014678000000000002,-0.0017803068,3.608,0,0
0.003160016,0.0010352652000000003,-0.002707276,-0.0013595636000000003,-0.0024690666,3.609,0,0
-0.0011627120000000002,0.0030023460000000004,0.003154966,-0.0006091051999999999,-0.00282669,3.61,0,0
-0.005209278,0.00648988,0.008008164,-2.607480000000001e-05,-0.0029269680000000003,3.611,0,0
-0.007514176,0.008684796,0.010897136,-0.00035309720000000004,-0.0031198640000000004,3.612,0,0
-0.008039152,0.007387706000000001,0.012480696,-0.0006417088,-0.002944396,3.613,0,0
-0.00801365,0.004720453999999999,0.009425836,-0.0007054272000000001,-0.0029127000000000007,3.614,0,0
-0.007594906,0.002155516,0.0014148759999999998,-0.0010024056,-0.0026787680000000006,3.615,0,0
-0.004830376000000001,-0.0013520140000000001,-0.006690264000000001,-0.0006974520000000001,-0.001345112,3.616,0,0
0.0001242700000000001,-0.004581458,-0.011434934,0.0009552339999999999,0.0006094260000000002,3.617,0,0
0.005444166,-0.00569629,-0.0127839,0.002555336,0.0021599260000000004,3.618,0,0
0.009547326000000002,-0.006134116,-0.009654620000000001,0.003371714,0.0028095108,3.619,0,0
0.010704006000000002,-0.006247500000000001,-0.0025550200000000007,0.00358162104,0.0025838088,3.62,0,0
0.007888636000000003,-0.005308241600000001,0.002817436,0.00287039704,0.0007497428000000003,3.621,0,0
0.002573216,-0.0038135064000000005,0.0030717760000000005,0.00136705704,-0.0017448532000000003,3.622,0,0
-0.0027523580000000003,-0.0019623386000000003,-8.020399999999995e-05,-9.140096000000007e-05,-0.0033474212000000002,3.623,0,0
-0.005333094,0.00016205739999999998,-0.004529343999999999,-0.0006573601200000001,-0.0036729714000000003,3.624,0,0
-0.004624860000000001,0.000945119,-0.007564994,-0.0006022163600000001,-0.0027477374,3.625,0,0
-0.0026153544,0.0006560914000000001,-0.0047360499999999995,-0.00053705436,-0.0007774413999999999,3.626,0,0
-0.0015496724000000001,0.0020747902,0.0024624500000000006,-0.00013730495999999997,0.0015159206000000002,3.627,0,0
-0.0021399444,0.0042031784,0.009527810000000001,0.0007897850400000002,0.0027302966000000003,3.628,0,0
-0.0019013444000000005,0.0048739784,0.01422103,0.0013578902000000001,0.0033429560000000002,3.629,0,0
-0.0007916343999999997,0.005429966800000001,0.01427011,0.0016220354,0.0037801500000000004,3.63,0,0
-0.00031131999999999986,0.006337156000000001,0.010135128,0.0019611494000000003,0.0034939920000000005,3.631,0,0
0.0014052740000000002,0.005318684000000001,0.005327344000000001,0.00145273,0.0029142440000000007,3.632,0,0
0.0035885680000000007,0.0022715520000000005,0.0019765584000000004,0.00039700599999999993,0.0027900420000000004,3.633,0,0
0.0023136380000000007,0.00028937600000000015,-0.0004170416,-0.00022901920000000008,0.0025135516,3.634,0,0
0.00013936600000000014,-0.000916008,-0.0012945316,-0.0006373618000000002,0.0016708636,3.635,0,0
0.0003634860000000002,-0.002938214,-0.0013712556000000002,-0.0011293458000000002,0.0014508936000000002,3.636,0,0
-2.0238599999999857e-05,-0.004203864,-0.0014812596000000002,-0.0010498858000000002,0.0014691736,3.637,0,0
-0.0013592386,-0.003967848,-0.00163853,-0.000532131,0.0010756204,3.638,0,0
-0.0005301592000000001,-0.004551422,-0.002553296,-0.0004312048000000001,0.0009277417999999999,3.639,0,0
0.0002284944,-0.006174926000000001,-0.0029857600000000005,-0.0002744706,0.0008724313999999999,3.64,0,0
-0.0012111416,-0.005997464,-0.00284804,0.0003462754,0.00024695539999999996,3.641,0,0
-0.0012424110000000001,-0.004997898000000001,-0.00347758,0.0005540282000000001,-0.0004640806,3.642,0,0
0.00011866100000000005,-0.0042616648,-0.005457264000000001,7.080539999999998e-05,-0.0007225166000000001,3.643,0,0
-0.00038647639999999994,-0.0022183947999999997,-0.008608958,0.00010660080000000003,-0.0013459216000000001,3.644,0,0
-0.001322108,0.0005266232000000001,-0.012711713999999999,0.00010686300000000002,-0.0022664812,3.645,0,0
-0.0007214780000000001,0.0012079492000000001,-0.015895228,-0.00031730699999999996,-0.0026173652000000005,3.646,0,0
-0.00140397,0.0003700452000000001,-0.01381389,-0.00012748799999999996,-0.0028471492000000003,3.647,0,0
-0.0027996620000000005,6.696799999999993e-05,-0.00565451,1.1113800000000015e-05,-0.0034317460000000003,3.648,0,0
-0.0022979139600000005,-0.001228284,0.00505559,-0.0006673905999999999,-0.003576592,3.649,0,0
-0.00108039396,-0.00282085,0.013790710000000001,-0.0013702304,-0.0028428220000000005,3.65,0,0
0.00172297204,-0.0026133624000000003,0.017492610000000002,-0.0017396944,-0.0022982718000000004,3.651,0,0
0.005178042040000001,-0.0011789964,0.01507647,-0.0023321382,-0.0020084814,3.652,0,0
0.006084266040000001,0.0003209376000000001,0.007251856,-0.002618812,-0.0011537864,3.653,0,0
0.005735424,0.0019339636000000001,-0.00114342,-0.0024215820000000002,-0.0003358262,3.654,0,0
0.004948210000000001,0.0046270956000000005,-0.0049786164,-0.00223887,-0.0001642414,3.655,0,0
0.0018824020000000005,0.006994696000000001,-0.0034866224,-0.002146396,7.382600000000001e-05,3.656,0,0
-0.001725398,0.00799669,-3.2690400000000286e-05,-0.001977622,0.0003405144,3.657,0,0
-0.003397064,0.008722376,0.0030931776,-0.0017278424000000002,0.00011222320000000001,3.658,0,0
-0.004035534,0.008482693999999999,0.0054416976,-0.0016060084000000003,0.00039288900000000005,3.659,0,0
-0.0042869380000000006,0.0063946820000000005,0.00548118,-0.0010454778000000002,0.0011277502000000001,3.66,0,0
-0.0042840180000000005,0.0038619940000000005,0.0037717818000000004,-0.00023367380000000005,0.0015937926,3.661,0,0
-0.0035020312,0.0013183080000000002,0.0014779378000000002,0.00015573659999999995,0.0020909998,3.662,0,0
-0.0020097504000000004,-0.0018505700000000002,-0.0006718862,0.0006156709999999999,0.0028565060000000004,3.663,0,0
-0.0016649624000000002,-0.0029493252,-0.0023532642,0.001396731,0.0031236880000000003,3.664,0,0
-0.00043561040000000026,-0.0018797392000000003,-0.0044235622,0.0015553784000000002,0.002638959,3.665,0,0
0.0027938376,-0.0013221952,-0.006272228,0.0010052444000000001,0.0019924302000000004,3.666,0,0
0.004377854800000001,-0.0005552756,-0.007411868,0.0010013148000000002,0.0013068367999999999,3.667,0,0
0.004323298380000001,-0.0003164516,-0.0074393540000000005,0.0011171108000000002,0.00043117680000000013,3.668,0,0
0.005230614380000001,-0.0034872704,-0.00485189,0.0010366968,-0.0007880332,3.669,0,0
0.004144472380000001,-0.0081199484,-8.319800000000004e-05,0.0012885328,-0.0013391342000000001,3.67,0,0
-0.00116816762,-0.0102919524,0.0033080380000000006,0.0016442162000000003,-0.0014274612000000002,3.671,0,0
-0.00548175162,-0.011503936000000001,0.0033633920000000006,0.0018327594,-0.0017654538,3.672,0,0
-0.008759722000000001,-0.0106677338,0.0014551280000000008,0.0015578562000000001,-0.0017454458,3.673,0,0
-0.011817958,-0.0050045738,-0.0017667259999999997,0.0012496442000000001,-0.0013546766000000002,3.674,0,0
-0.00937498,0.0005129021999999998,-0.004943598,0.0011912862,-0.0013122866,3.675,0,0
-0.001531659999999999,0.0015637221999999997,-0.0060932519999999995,0.001098845,-0.0011984344,3.676,0,0
0.005789600000000001,0.0026384382000000004,-0.0034151959999999992,0.0007747930000000001,-0.0005462364,3.677,0,0
0.010298042000000002,0.00516795,0.0021733440000000002,0.0005991688,-0.00042433640000000007,3.678,0,0
0.013112411800000001,0.004463988,0.006052968000000001,0.00028481959999999995,-0.0003262408,3.679,0,0
0.0113073038,0.0031933480000000004,0.006777096000000001,-0.00020301840000000001,5.191940000000004e-05,3.68,0,0
0.0051405318000000005,0.005685316000000001,0.005911444,-0.00022796060000000002,-0.00022034500000000002,3.681,0,0
-8.906819999999994e-05,0.008215194,0.0042965519999999995,-0.00032245820000000004,-0.0008577210000000001,3.682,0,0
-0.0018561802,0.007204512,0.0012638620000000001,-0.00021871640000000007,-0.001314627,3.683,0,0
-0.002473982,0.006480518,-0.0020918020000000002,0.00018197879999999999,-0.0016200178000000001,3.684,0,0
-0.003602912,0.0069373,-0.0036955300000000007,0.0002927054,-0.0017961906000000002,3.685,0,0
-0.003600356,0.005083986,-0.00399061,0.00040765560000000003,-0.0013554424000000002,3.686,0,0
-0.003672744,0.0022698600000000003,-0.0039056100000000003,0.0008483352,-0.00014983840000000004,3.687,0,0
-0.004029156000000001,0.0005334719999999997,-0.0027311720000000005,0.0010517568,0.0010998596000000001,3.688,0,0
-0.002843228,-0.001959016,7.383200000000002e-05,0.0007545682000000001,0.0019379336000000002,3.689,0,0
-0.0011633980000000002,-0.004979174,0.002898402,0.0005489432,0.0025274462,3.69,0,0
-0.0006583559999999999,-0.005478814,0.005106574000000001,0.00039073836,0.0024883540000000003,3.691,0,0
0.00012661980000000007,-0.005513404,0.005228038600000001,-9.723364e-05,0.0016499622,3.692,0,0
0.0018418357999999998,-0.006598812000000001,0.002242070600000001,-0.0005777936400000001,0.0009106959999999999,3.693,0,0
0.0020995198,-0.0063221860000000005,-0.0016347293999999998,-0.0005363046400000001,0.000440372,3.694,0,0
0.0025752718,-0.005478446,-0.0048126174,-0.0004355862400000001,-9.97086e-05,3.695,0,0
0.0047613118,-0.006710997999999999,-0.004840687400000001,-0.00040008340000000005,3.1765400000000006e-05,3.696,0,0
0.00554446,-0.008017858000000001,-0.0011707280000000002,-2.0487400000000023e-05,0.0006432752000000001,3.697,0,0
0.0046645708,-0.006869600000000002,0.0016318499999999994,0.0002931422,0.0008684732000000001,3.698,0,0
0.0035139208,-0.004254784000000001,0.0024115399999999993,0.0005002712,0.0009717918000000001,3.699,0,0
0.0017512088,-9.77440000000003e-05,0.0031813679999999995,0.000539641,0.0010958316,3.7,0,0
-0.0013332291999999999,0.005007322,0.0019160677999999997,0.00016300879999999992,0.000750856,3.701,0,0
-0.004648665200000001,0.009704998000000001,0.0004872078,-0.0004938052,0.0001207272,3.702,0,0
-0.006561312,0.012790218000000003,0.003339789800000001,-0.0010720168000000001,0.0002911294,3.703,0,0
-0.007626072,0.013126708000000003,0.0061052878,-0.0016521482,0.0005723388000000001,3.704,0,0
-0.007660822,0.010583526,0.0051233598,-0.002322736,0.0004547368000000001,3.705,0,0
-0.005337942,0.00581045,0.003003398,-0.0027006060000000004,0.000756095,3.706,0,0
-0.0022540860000000006,0.0006630300000000007,-0.00010598599999999932,-0.0028655399999999998,0.0009942428,3.707,0,0
-0.0009337520000000003,-0.003012252,-0.00366097992,-0.0028027020000000002,0.00044986680000000005,3.708,0,0
0.000243213,-0.005732346,-0.00454450392,-0.0027250499999999997,8.800813999999997e-05,3.709,0,0
0.0008440127999999999,-0.008249204000000001,-0.0024977539200000004,-0.002349364,0.0005924609400000001,3.71,0,0
-0.0008699352,-0.008356384,6.889407999999996e-05,-0.0016052248,0.00076358834,3.711,0,0
-0.0021340812000000004,-0.0067041340000000005,0.00103687808,-0.00105936,0.00070795414,3.712,0,0
-0.0010654932,-0.0061591200000000014,0.00029465800000000005,-0.000882534,0.00088771794,3.713,0,0
0.0006488958000000001,-0.004600504000000001,-0.00106771,-0.0006622352,0.0007060522,3.714,0,0
0.0025666120000000002,-0.0006049900000000001,-0.0021232580000000003,-0.00015255320000000006,-9.372980000000008e-05,3.715,0,0
0.0051490400000000006,0.00260989,-0.0027683402000000003,4.547959999999995e-05,-0.0009281378000000002,3.716,0,0
0.00606331,0.004455424,-0.0027464638600000007,0.00036481279999999995,-0.0013116446,3.717,0,0
0.004457534,0.006272080000000001,-0.00230911986,0.0011444488,-0.0016706384,3.718,0,0
0.0013301199999999995,0.006792858,-0.00188864186,0.001999184,-0.0020208860000000004,3.719,0,0
-0.001953776000000001,0.005435744,-0.00142734186,0.0026628900000000002,-0.002053068,3.72,0,0
-0.00526766,0.0040608888,-0.0011472352600000002,0.0032898940000000002,-0.0015725944600000002,3.721,0,0
-0.0051269520000000015,0.0019779168,-0.0002874455999999999,0.0036300160000000002,-0.0009609324600000002,3.722,0,0
9.61439999999994e-05,-0.0009483872000000003,0.0010073404000000004,0.0030363356000000005,-8.935046000000009e-05,3.723,0,0
0.004032354,-0.0020197392,0.0019438164000000003,0.0023463068000000005,0.00109210354,3.724,0,0
0.006112326,-0.0028791712000000007,0.0022067080000000004,0.0015153558000000002,0.0020625315400000003,3.725,0,0
0.008413234,-0.004924596000000001,0.0020354360000000003,0.00026487980000000015,0.0027497759999999998,3.726,0,0
0.007618125999999999,-0.0056656300000000005,0.00166785,-0.00015344920000000004,0.0028725600000000006,3.727,0,0
0.0024410020000000003,-0.00534623,0.001175228,0.0001624152,0.002691748,3.728,0,0
-0.0007539,-0.006853234000000001,0.0008059889220000001,-4.680939999999998e-05,0.002521036,3.729,0,0
-0.0014147221999999998,-0.007305796000000001,0.00024341132200000014,-0.00036096040000000004,0.0025923820000000003,3.73,0,0
-0.0027481742,-0.003695660000000001,-0.0006879230780000001,-0.00022505239999999992,0.00214467,3.731,0,0
-0.0009599302,0.00027628199999999966,-0.0018947590779999999,-0.0007898893999999999,0.001318054,3.732,0,0
0.0031924938000000005,0.003988458,-0.002483816078,-0.0012868294,0.0009757099999999999,3.733,0,0
0.0042947998,0.009316946,-0.001963183,-0.000690492,0.0002831199999999999,3.734,0,0
0.002026268,0.01282678,-0.0011784124,0.0001985100000000001,-0.0008591800000000001,3.735,0,0
-0.00011773199999999973,0.012172572,-0.0007563444000000001,0.0011152760000000001,-0.0017153980000000004,3.736,0,0
-0.004620716,0.01068766,-0.0004070524,0.002006722,-0.001963928,3.737,0,0
-0.010110136,0.008091086599999998,-0.0002811042000000001,0.0025846460000000003,-0.0026000880000000004,3.738,0,0
-0.008953728,0.0024238606,-0.0007447170000000001,0.0021984444,-0.002937294,3.739,0,0
-0.0032797280000000004,-0.0028191994,-0.0012393176000000002,0.0013670324,-0.002304222,3.74,0,0
0.0018384119999999993,-0.0050295994,-0.0011587996,0.0006935144,-0.0019336320000000002,3.741,0,0
0.006977552,-0.007076311400000001,-0.0003605416,-3.9619599999999976e-05,-0.001539086,3.742,0,0
0.011142446,-0.009507778000000001,0.0014326652,-0.0006499656000000001,-0.0007729897999999999,3.743,0,0
0.010432086000000002,-0.009264988,0.003925954000000001,-0.0009584320000000002,-0.0005663358,3.744,0,0
0.0072055240000000005,-0.007505156000000001,0.005940374000000001,-0.0011258180000000002,-0.0010247358,3.745,0,0
0.005747666,-0.007036864,0.006582380600000001,-0.0012527708000000001,-0.0010068138000000001,3.746,0,0
0.004231042000000001,-0.006316680000000001,0.005204588600000001,-0.0007471967999999999,-0.0009591300000000001,3.747,0,0
0.001295222,-0.00283131,0.0020039546,2.875920000000007e-05,-0.0013551942000000002,3.748,0,0
-0.00161149,0.0011544060000000004,-0.0014416614,0.00044861580000000003,-0.0012598122000000002,3.749,0,0
-0.005375848,0.004236074000000001,-0.0033244634000000007,0.0009475870000000002,-0.0005687862,3.75,0,0
-0.01071297,0.00816571,-0.0036943620000000005,0.0015230458,-0.00018670940000000005,3.751,0,0
-0.014742526,0.01204213,-0.003402154,0.0012779770000000002,-0.0003353612000000001,3.752,0,0
-0.015441608,0.012453852000000001,-0.002837896,0.0006432472000000002,-6.358380000000002e-05,3.753,0,0
-0.014524672,0.0096976,-0.0025243180000000002,0.00039927660000000015,0.00048341019999999994,3.754,0,0
-0.012327008,0.005980754,-0.002163459,-0.00023730460000000007,0.00014065937999999995,3.755,0,0
-0.0077461480000000004,-7.638600000000077e-05,-0.0011474449999999995,-0.0011709706000000001,-8.981762000000004e-05,3.756,0,0
-0.0031121360000000006,-0.006155946000000001,2.9405000000000143e-05,-0.0017497078000000001,0.00035152918,3.757,0,0
0.00019397399999999954,-0.009623628,0.0006279298000000002,-0.0022068060000000004,0.00015747978000000003,3.758,0,0
0.003691158,-0.011618716000000001,0.0007783338000000002,-0.00270871,-0.00038127022,3.759,0,0
0.0067820960000000005,-0.011465422000000001,0.0003238868000000002,-0.0027617080000000003,-0.0006151294,3.76,0,0
0.007604636,-0.009581578,-0.0002939976,-0.002421957,-0.0007936692,3.761,0,0
0.007713664,-0.00839287,0.00038455840000000004,-0.0020605184,-0.0011779359999999999,3.762,0,0
0.006968846,-0.007382400000000001,0.0022634696,-0.0018331104000000001,-0.001385102,3.763,0,0
0.004540064,-0.003917046,0.0031332856,-0.0014672424,-0.0013380710000000001,3.764,0,0
0.003698578,0.0004885660000000006,0.0024341976,-0.0010719486,-0.001543857,3.765,0,0
0.003775286,0.0041233020000000006,0.001322986,-0.0012891636,-0.001557779,3.766,0,0
0.0017830660000000003,0.008058794000000001,-0.000975246,-0.001211561,-0.0011639024,3.767,0,0
-6.158600000000019e-05,0.012052534000000002,-0.003681854,-0.000498993,-0.0009841404,3.768,0,0
-0.00017495599999999998,0.013318040000000003,-0.0040161680000000005,4.8921e-05,-0.0009232004,3.769,0,0
-0.0009309180000000004,0.010795560000000001,-0.0023375079999999994,0.0006344351999999999,-0.00037829760000000003,3.77,0,0
-0.002391472,0.008450918,-0.0008930319999999998,0.0017421172000000001,1.8179200000000044e-05,3.771,0,0
-0.0032919020000000006,0.007349904,0.0006198280000000002,0.0023767700000000003,-0.00014151859999999997,3.772,0,0
-0.0029442760000000004,0.0045519,0.0018928920000000002,0.0019047322,0.0002702906,3.773,0,0
-0.001628452,0.0011906280000000002,0.001496918,0.0011651361999999998,0.0008572056,3.774,0,0
-0.0005207020000000003,-0.000680714,0.000379818,0.00029009819999999993,0.0011954008,3.775,0,0
0.0014252119999999997,-0.0034898720000000006,-0.000399388,-0.0008153738000000002,0.002008994,3.776,0,0
0.004217222,-0.007456338,-0.00081682822,-0.0015853338,0.0028062052000000005,3.777,0,0
0.0053113760000000005,-0.00927611,-0.00109892722,-0.001718104,0.0030646700000000002,3.778,0,0
0.004811058,-0.009086196000000001,-0.0008166412200000002,-0.0013959178,0.002906586,3.779,0,0
0.0037907360000000003,-0.008199246,-0.00025228762,-0.0007752278000000001,0.0026410098,3.78,0,0
0.0014797219999999997,-0.00497342,6.905078e-05,-0.00014657379999999994,0.0019092758,3.781,0,0
-0.00029205400000000014,-0.0006899259999999998,0.000313997,0.0005089162000000001,0.0009949636000000002,3.782,0,0
-0.00098849,0.00188163,0.000666728,0.0010391862000000002,0.0006293794000000001,3.783,0,0
-0.0029451100000000003,0.00443723,0.001053062,0.0012205454,0.0003043606,3.784,0,0
-0.004581782,0.006621254,0.0013321244,0.0015081214,-0.00019015320000000005,3.785,0,0
-0.004403266000000001,0.0060788154,0.0014454824,0.0016923314000000002,-0.0004468698000000001,3.786,0,0
-0.004454492000000001,0.0037353074000000008,0.0012068170200000001,0.0014653919999999998,-0.00017634460000000003,3.787,0,0
-0.004618592000000001,0.0014866853999999997,0.00123923302,0.001392917,-0.00017616720000000004,3.788,0,0
-0.0028893620000000004,-0.0013606426,0.00130460302,0.0013211167999999998,-0.00029514960000000007,3.789,0,0
-0.0005342680000000001,-0.0051025346,0.0011625390200000001,0.0006183688,0.0002165184,3.79,0,0
0.000626698,-0.00694989,0.0011721400200000003,-0.00010845519999999999,0.000555797,3.791,0,0
0.002018578,-0.0062141426,0.0009739402,-0.000406956,0.000418602,3.792,0,0
0.004121484000000001,-0.004935833000000001,0.0003823362000000001,-0.0006151066,0.00019374260000000002,3.793,0,0
0.004625152,-0.0034120850000000005,-0.00016276579999999994,-0.00061780106,0.0001656694,3.794,0,0
0.0037332506000000002,-0.000789811,-0.0004002692,-0.00036222446,-9.647920000000002e-05,3.795,0,0
0.0034789146000000003,0.0009494600000000001,-0.0006591232,9.477694000000001e-05,-0.0005306322,3.796,0,0
0.0021482906,0.0010230098000000001,-0.0009237340000000001,0.00064148114,-0.0007822642,3.797,0,0
-0.0012279653999999998,0.0016110702,-0.001564822,0.0009596327400000001,-0.001025064,3.798,0,0
-0.0036974374000000006,0.0022902142,-0.002985466,0.001255988,-0.0012374876,3.799,0,0
-0.004767278,0.0032168281999999998,-0.0046312866,0.0016734974,-0.001713961,3.8,0,0
-0.005783148,0.0056928652,-0.0059044480000000005,0.0020757759999999997,-0.0021782240000000003,3.801,0,0
-0.0054883020000000005,0.007953702,-0.006008686,0.00240901,-0.0021149738000000003,3.802,0,0
-0.0034161752,0.008520648,-0.004086224000000001,0.0027320979999999996,-0.0016804422000000004,3.803,0,0
-0.0014002371999999998,0.008529544,-0.0007184120000000003,0.002920396,-0.0012362532000000004,3.804,0,0
0.0006283268000000001,0.007379802,0.0024462700000000004,0.0024010360000000005,-0.000618756,3.805,0,0
0.0040355368,0.00298441,0.004529748,0.0012301720000000003,0.00025310999999999997,3.806,0,0
0.006954096800000001,-0.0022311500000000003,0.00545827,-0.0003927040000000001,0.0009854218,3.807,0,0
0.007533364000000001,-0.005834204000000001,0.0046331359999999995,-0.00224242,0.0012058522,3.808,0,0
0.007684544000000001,-0.009510326,0.0028290434000000004,-0.0038222920000000006,0.001011334,3.809,0,0
0.00736511,-0.012896472000000003,0.0020099074,-0.004941792,0.0009710468000000001,3.81,0,0
0.004763836400000001,-0.01339212,0.0017451653999999998,-0.005133178,0.0009787048,3.811,0,0
0.0015917503999999996,-0.010975640000000002,0.0011695273999999998,-0.004409924,0.0005531302,3.812,0,0
-3.142559999999995e-05,-0.007849766000000001,0.0007304834,-0.0033893239999999995,0.00018730680000000001,3.813,0,0
-0.0020234936,-0.004029578,0.0002831959999999999,-0.002021782,0.00035351159999999997,3.814,0,0
-0.005255505600000001,0.0011970620000000007,-0.0006196600000000001,-0.00030222000000000007,0.00033033780000000005,3.815,0,0
-0.007513212,0.005665102000000001,-0.0010224760000000002,0.000821158,0.0002937158,3.816,0,0
-0.009097146,0.008082262000000002,-0.00048418599999999995,0.0017089840000000002,0.0005312284,3.817,0,0
-0.01069309,0.009823688,2.6604000000000005e-05,0.0030349080000000002,0.00042127980000000005,3.818,0,0
-0.010698290000000003,0.01093698,0.00029436739999999994,0.003687814,0.0002929196000000001,3.819,0,0
-0.008543466,0.010466022,0.00033835500000000004,0.003976510000000001,0.0005202614000000001,3.82,0,0
-0.0052315880000000006,0.00965882,2.9754999999999907e-05,0.004148036,0.00021939420000000008,3.821,0,0
-0.0009294479999999998,0.008315402,-0.0003741536,0.0034360900000000006,-0.0004757158,3.822,0,0
0.003534026,0.004843128,-0.0005998072,0.0021232356,-0.00023000050000000001,3.823,0,0
0.00647199,0.0010221620000000007,-0.000661778,0.0008264976000000002,3.618210000000001e-05,3.824,0,0
0.007997492,-0.0018672800000000002,-0.0007932756,-0.0003395544,-0.00031100770000000005,3.825,0,0
0.008151936,-0.005026544,-0.0008921316000000001,-0.0014890344,-0.0001912921,3.826,0,0
0.007045174,-0.008228206,-0.00081101424,-0.0023574904,0.00034274550000000005,3.827,0,0
0.005733136,-0.009565852,-0.00076101804,-0.0030629240000000003,0.0005627862,3.828,0,0
0.005481621999999999,-0.010055446000000001,-0.0007467560400000001,-0.003333626,0.0004226994,3.829,0,0
0.006091394000000001,-0.011163546,-0.00061770124,-0.0032515940000000004,0.0007823212000000002,3.83,0,0
0.0047494422000000005,-0.01012849,-0.00043087544000000003,-0.0028569100000000007,0.000909023,3.831,0,0
0.0022349802,-0.007018074,-0.00045025420000000004,-0.0020121410000000003,0.00025612940000000004,3.832,0,0
0.0003906062,-0.004133792,-0.00024888880000000006,-0.0010579328,0.00013588220000000003,3.833,0,0
-0.0030700537999999995,-0.00033769799999999956,0.00026967260000000003,7.16192e-05,0.00017803920000000008,3.834,0,0
-0.007550871800000001,0.004335402,0.0004320780000000001,0.0010053932,-0.00042690280000000006,3.835,0,0
-0.009026000000000001,0.007127758,0.0005044180000000001,0.0013552416,-0.001091795,3.836,0,0
-0.00800238,0.008360996,0.0005694074000000001,0.0013836358000000003,-0.0011138610000000003,3.837,0,0
-0.006495088,0.009010645999999999,0.00019809780000000008,0.0016079736000000002,-0.0015659918000000004,3.838,0,0
-0.0020126280000000002,0.005730101999999999,-0.0008258122000000001,0.0013908856000000001,-0.0022815780000000003,3.839,0,0
0.004100852,-0.00011925800000000012,-0.0017146064,0.0006275674,-0.0020488248,3.84,0,0
0.007185912000000001,-0.002338276,-0.0020806341999999997,0.0003766796000000002,-0.0014108126000000002,3.841,0,0
0.00816961,-0.00200969,-0.0023820776,0.00011241040000000004,-0.0004630786000000001,3.842,0,0
0.008655534000000001,-0.00291317,-0.0013141100000000005,-0.0006788556,0.0006386414,3.843,0,0
0.006763438000000001,-0.00189616,0.001382634,-0.0014791636000000001,0.0018937334,3.844,0,0
0.0036414880000000005,0.0013876001999999998,0.003645774,-0.0020643954000000003,0.0025411162000000004,3.845,0,0
0.0030499940000000003,0.0007312521999999996,0.00475009,-0.002420736,0.0024850238000000005,3.846,0,0
0.003149306,-0.0024851218,0.005427398,-0.0022586388,0.0019188183999999998,3.847,0,0
0.001554868,-0.0032032978,0.0045117422,-0.0014721408000000003,0.0009124264000000001,3.848,0,0
0.0005795239999999998,-0.0027239177999999996,0.0022313962,-0.00044372080000000004,0.00042146700000000013,3.849,0,0
-0.0006560220000000001,-0.0014758500000000001,0.0010184515999999998,0.0009691672,7.621939999999996e-05,3.85,0,0
-0.00476833,0.0024128500000000002,0.00037776359999999997,0.0021934412,5.9972999999999936e-05,3.851,0,0
-0.008841416000000001,0.006606244000000001,-0.0010464884,0.0028630580000000004,0.00013785619999999996,3.852,0,0
-0.010895956,0.008678302,-0.0025156306000000002,0.0030935440000000006,4.8458199999999935e-05,3.853,0,0
-0.013636616,0.010135022,-0.0027481706000000005,0.0025521142000000004,-7.0298144e-05,3.854,0,0
-0.01608822,0.010535298,-0.0027119944000000003,0.0017264966,-0.00037687854400000003,3.855,0,0
-0.01446715,0.007825088000000001,-0.0026793278000000003,0.0006863706000000002,-0.000709769944,3.856,0,0
-0.009678978000000001,0.00345894,-0.0020154698,-0.0006737194000000001,-0.0008317415440000001,3.857,0,0
-0.004779398000000001,-0.00031937400000000074,-0.0017419578,-0.0017550334,-0.000560841744,3.858,0,0
-0.0004424719999999993,-0.0045196540000000006,-0.0024663478,-0.0023354736,-0.0006711190000000001,3.859,0,0
0.0030302481999999998,-0.009425198000000003,-0.0031812674000000003,-0.00297677,-0.0005564585000000001,3.86,0,0
0.0043073104,-0.012466628000000002,-0.0028695360000000002,-0.003061972,0.00020742549999999997,3.861,0,0
0.0054823584,-0.013424400000000001,-0.002065968,-0.00266567,0.0009372993,3.862,0,0
0.0101843184,-0.014009480000000001,-0.0009570371599999998,-0.002422874,0.0017737035,3.863,0,0
0.0160062924,-0.013353580000000002,0.00057781684,-0.001667028,0.0023596285,3.864,0,0
0.019411532199999998,-0.0099454316,0.00235937884,-0.0007509469999999999,0.0021293640000000003,3.865,0,0
0.02064948,-0.005200019600000001,0.0033786248400000003,-4.69449999999999e-05,0.0014202834000000002,3.866,0,0
0.016745534,0.0007108803999999998,0.0031702008400000003,0.000921993,0.0008010362000000002,3.867,0,0
0.0067809540000000005,0.0078362804,0.0029348420000000004,0.001962541,-0.00018745180000000002,3.868,0,0
-0.0021218860000000003,0.013362460400000001,0.0025405202,0.002637585,-0.0009975158,3.869,0,0
-0.006852976000000001,0.015746212000000002,0.0010739162000000001,0.003424342,-0.0010978238000000002,3.87,0,0
-0.009409264,0.015341448,-0.0004316662,0.003924436,-0.0013190512,3.871,0,0
-0.008975418,0.012317601999999999,-0.0005938074,0.003661872,-0.001971772,3.872,0,0
-0.005837828000000001,0.006589234000000001,-0.00023262600000000007,0.0027692492,-0.002399786,3.873,0,0
-0.0038541964000000004,0.0017348640000000009,-0.0002508512,0.0014261672,-0.0021848138,3.874,0,0
-0.0030672524000000005,-0.001109274,-0.00039045320000000004,-4.350679999999996e-05,-0.0021271038000000003,3.875,0,0
-0.0008305784000000001,-0.005211562,-0.0002474948,-0.0014751028000000001,-0.0019405198000000002,3.876,0,0
0.0013586336000000001,-0.009036856000000001,0.00011772639999999999,-0.0021739588,-0.0010214318000000002,3.877,0,0
0.0017695516,-0.009412544,0.0005152889999999999,-0.00221981,4.177820000000003e-05,3.878,0,0
0.0023874540000000002,-0.008822824,0.0008687940000000001,-0.0021222180000000004,0.0007586299999999999,3.879,0,0
0.0034476520000000003,-0.00884667,0.00024043399999999987,-0.0017786986,0.001767638,3.88,0,0
0.002407336000000001,-0.005649534000000001,-0.0016192680000000003,-0.0010595058000000001,0.00304054,3.881,0,0
0.0007081240000000003,-0.0008825500000000002,-0.0038307180000000003,-0.0005058718,0.0038316179999999997,3.882,0,0
-9.497799999999985e-05,0.0022568860000000005,-0.004892190000000001,-0.00012599640000000007,0.0038925239999999996,3.883,0,0
-0.0025176319999999997,0.004966566,-0.003288328,0.0007264696,0.0031880512,3.884,0,0
-0.0059364840000000006,0.007637670000000001,0.0003613319999999998,0.0016115622,0.0019670231999999992,3.885,0,0
-0.007632402,0.009425094000000002,0.0037510440000000007,0.0021516154,0.00014535319999999994,3.886,0,0
-0.008759492,0.01047675,0.006082942,0.0024405994,-0.0014857608,3.887,0,0
-0.009043665999999999,0.011034406,0.0067480430000000004,0.002654002,-0.0027867728,3.888,0,0
-0.006085144000000001,0.0092268118,0.004891045,0.0024155536,-0.003782008,3.889,0,0
-0.001973364000000001,0.005300297800000001,0.002867571,0.0012673016000000002,-0.0036585240000000007,3.89,0,0
0.0004862439999999999,0.0008937957999999998,0.0011042830000000002,-9.176639999999999e-05,-0.0030150326000000006,3.891,0,0
0.002599488,-0.004205444200000001,-0.0016957689999999997,-0.0014738964,-0.0026924646,3.892,0,0
0.0045367919999999996,-0.0098201602,-0.004275112,-0.0029621704000000002,-0.0019649242,3.893,0,0
0.004233074,-0.012431536,-0.0059321320000000006,-0.003701834,-0.0003860582,3.894,0,0
0.0037603159999999997,-0.011871706000000001,-0.0063742650000000005,-0.0033628604000000006,0.0006167238000000001,3.895,0,0
0.005394095999999999,-0.012676524000000002,-0.004210653000000001,-0.0029844544000000007,0.0011141944,3.896,0,0
0.006335674,-0.013060944000000001,-2.7147000000000802e-05,-0.0027560184000000004,0.0016920704,3.897,0,0
0.004768004,-0.009688279999999999,0.0036215690000000007,-0.0020505404,0.0018132822000000001,3.898,0,0
0.00311288,-0.006237884000000001,0.006108121000000001,-0.0017519384,0.0011886872,3.899,0,0
0.0009615459999999995,-0.003611920000000001,0.006792846000000001,-0.001669774,0.0004544103999999999,3.9,0,0
-0.0036426740000000003,0.0024994400000000003,0.005377672000000001,-0.000999954,-0.00023263760000000004,3.901,0,0
-0.007651886,0.00951014,0.003058972000000001,-0.00038188099999999993,-0.0013576896,3.902,0,0
-0.00921473,0.012897056,0.0008466760000000002,0.000458525,-0.0017749358000000003,3.903,0,0
-0.009942004,0.014377860000000003,-0.00082514,0.001601707,-0.0016327308,3.904,0,0
-0.0097768,0.014780542000000002,-0.0021510920000000003,0.002066415,-0.001775378,3.905,0,0
-0.0073625776000000006,0.011940988000000001,-0.0028320350000000005,0.0018459883999999997,-0.0016184146,3.906,0,0
-0.0041482536,0.0070367,-0.0025770088000000003,0.0019205294000000002,-0.0005706446,3.907,0,0
-0.0007728735999999999,0.0030385240000000008,-0.0017356048000000002,0.0021290874,0.0005559114000000001,3.908,0,0
0.0038140604000000003,-0.000872842,-0.0008587226000000001,0.0022512594,0.0015571614000000002,3.909,0,0
0.007225708400000001,-0.005835524000000001,-0.00029018580000000004,0.0029021634000000003,0.0028548454000000005,3.91,0,0
0.008219766000000002,-0.009897610000000001,-0.00025732200000000004,0.003360366,0.0035824860000000006,3.911,0,0
0.008485998,-0.011972002000000002,-0.00013764620000000002,0.0030082579999999998,0.0035527724000000006,3.912,0,0
0.008020086,-0.013662346000000002,0.00010914019999999999,0.0018346,0.0030004482000000002,3.913,0,0
0.005442634000000001,-0.01403992,-0.00023316600000000004,0.00031862199999999996,0.0019020364000000003,3.914,0,0
0.0038728700000000005,-0.01062967,-0.0008030468,-0.000959917,0.00048804440000000017,3.915,0,0
0.00499795,-0.00455083,-0.0015328236000000002,-0.001989803,-0.0003066116,3.916,0,0
0.004243928000000001,0.002395030000000001,-0.0023899396000000004,-0.0022336070000000003,-0.000738964,3.917,0,0
0.001327148,0.00942455,-0.0030061860000000005,-0.0018102284,-0.0018764877999999999,3.918,0,0
-0.0010073600000000003,0.014864110000000002,-0.0032618760000000004,-0.0016895704,-0.002858928,3.919,0,0
-0.003349444,0.016894740000000002,-0.00426724,-0.0020737194,-0.002892456,3.92,0,0
-0.006683606,0.015800088,-0.007896164,-0.0015203758000000003,-0.0027936344000000007,3.921,0,0
-0.0077389880000000005,0.01249864,-0.013530376,0.00022303220000000014,-0.0023838138,3.922,0,0
-0.005297854,0.0073959920000000005,-0.017288980000000002,0.0015812716000000002,-0.0007996478,3.923,0,0
-0.003050169,0.0023501660000000008,-0.015159526,0.0028608296,0.0010999042000000001,3.924,0,0
-0.0011854390000000002,-0.0015434259999999999,-0.005656304000000001,0.0042419136,0.0021461442,3.925,0,0
0.001593945,-0.005508234000000001,0.007783656,0.0042050522,0.0027604506000000004,3.926,0,0
0.004659933,-0.009987586,0.019527336000000003,0.002894017,0.0031506119999999997,3.927,0,0
0.006594289,-0.013151398000000002,0.026601496000000002,0.0014872502,0.002928864,3.928,0,0
0.007708904000000001,-0.014899952000000003,0.025864646,-0.00020734180000000005,0.0022754261999999997,3.929,0,0
0.007819284,-0.01584342,0.016831916,-0.0016128158,0.0015952842000000003,3.93,0,0
0.0052886320000000014,-0.013740224000000002,0.006018476000000001,-0.0018713240000000002,0.0008537222000000002,3.931,0,0
0.0018820680000000002,-0.008958344000000002,-0.0011929319999999998,-0.0020176447999999997,-0.00015415979999999985,3.932,0,0
-0.0009761119999999999,-0.0035415620000000007,-0.005060206,-0.00211829,-0.0006049548,3.933,0,0
-0.004205844,0.0032000379999999997,-0.006315042,-0.0014320892,-0.0005063050000000001,3.934,0,0
-0.007307026,0.010105858,-0.005757804,-0.0008431596399999999,-0.0006111974000000001,3.935,0,0
-0.008036588,0.013868062,-0.004366414000000001,-0.0008095672400000001,-0.0007970694,3.936,0,0
-0.007706382,0.014839262,-0.003006252,-0.0007840672400000001,-0.0006997254000000001,3.937,0,0
-0.008406468,0.014451518,-0.002713778,-0.00089478324,-0.0010907484000000002,3.938,0,0
-0.006890046,0.011322106,-0.0026869840000000003,-0.00135190004,-0.0019169764000000003,3.939,0,0
-0.0028517660000000004,0.005876248,-0.0018533059999999999,-0.0018288616,-0.002111056,3.94,0,0
0.00018522999999999977,0.0007975599999999992,-0.0002631039999999999,-0.0020251699999999997,-0.002067542,3.941,0,0
0.00235941,-0.0033167000000000006,0.0012381820000000002,-0.0019250654,-0.0019308620000000002,3.942,0,0
0.005156548,-0.008165958,0.0020331648280000002,-0.001707813,-0.001296852,3.943,0,0
0.006557240000000001,-0.012315226,0.0015891088280000003,-0.0015653910000000002,-0.0005769222,3.944,0,0
0.005562484,-0.013278887999999999,-0.00010817117199999975,-0.001492933,-0.0002278081999999999,3.945,0,0
0.005430876,-0.01253749,-0.0024984931720000002,-0.001346943,0.0004528278,3.946,0,0
0.005126578000000001,-0.009612204000000001,-0.004697969172000001,-0.001071259,0.0013387258,3.947,0,0
0.0023613780000000008,-0.0033584239999999996,-0.0054114060000000005,-0.0005487313999999999,0.0016103518000000002,3.948,0,0
0.0002870860000000002,0.002585096,-0.0044011098,0.0004977746000000002,0.0015406667999999998,3.949,0,0
-0.0005492519999999995,0.006090104000000001,-0.0025827638000000003,0.0019168826000000002,0.0013825528,3.95,0,0
-0.0032584520000000002,0.009203994,-0.0009907298000000001,0.0032853186,0.0007678807999999999,3.951,0,0
-0.00570757,0.010989228,0.0005026382,0.0039054199999999997,-0.00038648120000000006,3.952,0,0
-0.005157566000000001,0.009847438,0.0016127402,0.0036015342,-0.0012339192,3.953,0,0
-0.004787718000000001,0.008484708,0.001891332,0.0030584594000000005,-0.0015642280000000002,3.954,0,0
-0.0039535559999999996,0.007333252,0.001904068,0.0022357894,-0.0019478140000000004,3.955,0,0
3.3128000000000324e-05,0.003524684,0.0020296620000000002,0.0008634854,-0.0019257160000000003,3.956,0,0
0.0038750620000000007,-0.0008585300000000006,0.002088126,-0.00035313660000000003,-0.0014787140000000001,3.957,0,0
0.005680808000000001,-0.002788690000000001,0.0015729708,-0.0008475908,-0.001342534,3.958,0,0
0.007773790000000001,-0.005208208000000001,0.0008266068,-0.001483758,-0.000817132,3.959,0,0
0.008540358000000001,-0.00823658,0.00034109539999999984,-0.002249838,4.7080000000000776e-06,3.96,0,0
0.005345690000000001,-0.008239282,-6.556500000000007e-05,-0.002227358,0.00025240900000000004,3.961,0,0
0.0014485739999999998,-0.007482086000000001,-0.0005074412,-0.0017318304,0.0004808102000000001,3.962,0,0
-0.0011809819999999997,-0.008572622,-0.0004700502000000001,-0.0011653504,0.0009747342000000002,3.963,0,0
-0.005344502,-0.007667064,-0.00012785820000000005,-0.00040401840000000016,0.0010747182000000002,3.964,0,0
-0.010911698000000001,-0.0037592479999999998,-0.0003247278000000001,0.0004757136,0.0007566434804,3.965,0,0
-0.01349825,-0.0004628160000000002,-0.0003368238000000001,0.0009720936,0.0005913664804000001,3.966,0,0
-0.01275261,0.002572342,0.0003356864,0.0012642999999999999,0.00042821318040000005,3.967,0,0
-0.010563837999999999,0.007830608000000001,0.0008610186000000001,0.001699432,-5.446619599999957e-06,3.968,0,0
-0.007043117999999999,0.011994378,0.0012161146000000001,0.0018341080000000003,-0.0006982206196,3.969,0,0
-0.0026102834000000003,0.011875872,0.001521182,0.0015560794000000003,-0.0012305519000000002,3.97,0,0
0.0019408746000000002,0.011622440000000001,0.0009033704,0.0010878260000000003,-0.0014176799000000001,3.971,0,0
0.0054803706,0.011476612,-0.0007695636,0.0005513600000000001,-0.0011204178,3.972,0,0
0.0078519726,0.007499236000000001,-0.0026757976,-0.00028924000000000007,-0.00021968599999999997,3.973,0,0
0.0094909526,0.0016699960000000004,-0.0040701696,-0.0011328520000000002,0.0006122840000000002,3.974,0,0
0.011968178,-0.002659014,-0.003302474,-0.0014024534000000003,0.0017327760000000003,3.975,0,0
0.014802040000000002,-0.007104644,0.00027407599999999983,-0.001752508,0.0028964580000000006,3.976,0,0
0.0151001,-0.011950396,0.00393556,-0.0023539980000000004,0.0032541440000000005,3.977,0,0
0.0127892,-0.01389852,0.00627775,-0.0027062360000000003,0.0033568600000000006,3.978,0,0
0.010495891200000001,-0.012854336000000001,0.0075957260000000006,-0.0027962480000000003,0.0031579660000000003,3.979,0,0
0.0081513452,-0.010392888,0.0065017694,-0.0024603126,0.0026447066,3.98,0,0
0.0023860392000000005,-0.006481366,0.0029273394000000007,-0.0014191926000000003,0.0021557146,3.981,0,0
-0.0044892808,-0.002176832,-0.00011214859999999984,0.00012749539999999996,0.0011640166000000001,3.982,0,0
-0.0093365808,-0.00015051720000000023,-0.0008124606,0.0016176054,-0.00014742940000000006,3.983,0,0
-0.013633532000000002,0.0008946247999999998,-0.0007725705999999998,0.0031604454,-0.0009731854,3.984,0,0
-0.018476546,0.0033644248000000002,-0.001046136,0.004546672,-0.0016683840000000002,3.985,0,0
-0.020250999999999998,0.0063896028,-0.001280904,0.00526743,-0.0023152660000000003,3.986,0,0
-0.0163408888,0.0099989688,-0.0019214460000000003,0.005170098,-0.002504512,3.987,0,0
-0.011307942800000002,0.014012894000000001,-0.003744208,0.0043292270400000004,-0.002796812,3.988,0,0
-0.0051659828,0.015598404000000001,-0.005388878000000001,0.00287975104,-0.0026736460000000004,3.989,0,0
0.0028344372,0.013242226,-0.005005638600000001,0.0007187590400000001,-0.0019076734000000003,3.99,0,0
0.0073602471999999995,0.0077943840000000006,-0.0029745025999999997,-0.00119389496,-0.0012837434,3.991,0,0
0.007487537999999999,0.00013918400000000096,-0.00029831660000000006,-0.0025104669600000003,-0.0005785026000000001,3.992,0,0
0.007771392,-0.007854916,0.0025831654000000003,-0.0036739060000000002,0.00032724839999999995,3.993,0,0
0.008305851999999999,-0.013498132000000003,0.004712521400000001,-0.004630494000000001,0.0011783804,3.994,0,0
0.008065332,-0.015722182,0.004901199000000001,-0.005287282,0.0014671738,3.995,0,0
0.009243722,-0.015964428,0.0037394650000000004,-0.0055566520000000005,0.0013836185999999999,3.996,0,0
0.009903968,-0.014219828000000002,0.0021112984,-0.005313632,0.0010908485999999997,3.997,0,0
0.007658082,-0.008444154,0.0006122584000000001,-0.003923586,0.00045629959999999995,3.998,0,0
0.003695976,-0.0007480740000000005,-3.38874e-05,-0.001697666,-0.0003375023999999999,3.999,0,0
-0.000805856,0.0048620059999999994,1.8942600000000024e-05,0.0004241179999999999,-0.0010352223999999998,4.0,0,0
-0.005807296,0.009424554,7.025000000000035e-06,0.00241421,-0.0011155336000000001,4.001,0,0
-0.009437144000000001,0.013206494,0.00035964959999999996,0.00388784,-0.0008343143999999998,4.002,0,0
-0.010265482,0.0134785,0.0015884716,0.004556936000000001,-0.0002977046000000001,4.003,0,0
-0.010449194,0.01150466,0.0025794574000000004,0.004672900000000001,0.00015464559999999998,4.004,0,0
-0.010125208000000002,0.009521262,0.0012404324,0.004088996000000001,-4.195039999999999e-05,4.005,0,0
-0.0071086990000000004,0.006312218,-0.003283734,0.0026438620000000003,-0.000750704,4.006,0,0
-0.003133765,0.0019043219999999993,-0.010089788,0.0006764280000000002,-0.0015818060000000003,4.007,0,0
3.5263000000000004e-05,-0.0019804420000000002,-0.01827545,-0.001203174,-0.0020868278,4.008,0,0
0.003706025,-0.005720342000000001,-0.021737609999999997,-0.0031399300000000004,-0.0022565274,4.009,0,0
0.006727475000000001,-0.009180604000000002,-0.015662419999999996,-0.004861528,-0.0018567598000000002,4.01,0,0
0.007351032,-0.01137614,-0.004868740000000002,-0.005420968,-0.0011720799999999998,4.011,0,0
0.00701917,-0.011684598000000001,0.00600276,-0.0050820100000000005,-0.0007844140000000001,4.012,0,0
0.006856562,-0.010554722,0.015514340000000001,-0.004422238000000001,-0.0003651168,4.013,0,0
0.005387648000000001,-0.00854787,0.019311776,-0.0027726079999999998,0.00022246660000000004,4.014,0,0
0.003011418,-0.004922098000000001,0.015404426,-0.0003529140000000002,0.0005455190000000001,4.015,0,0
0.00132096,-0.0007620640000000002,0.009073088399999998,0.001829668,0.0009120732000000001,4.016,0,0
-0.0008069440000000002,0.002515372,0.004416260400000001,0.004111708,0.0018144812000000002,4.017,0,0
-0.0037987200000000002,0.004842992000000001,0.001826588400000001,0.006080558000000001,0.0023158560000000003,4.018,0,0
-0.006013762000000001,0.006734764000000001,-6.514359999999992e-05,0.00690435,0.002350182,4.019,0,0
-0.007209952,0.008346732,-0.0014395135999999999,0.007028210000000001,0.002389328,4.02,0,0
-0.008149266,0.009475618000000002,-0.001691124,0.00671666,0.001588776,4.021,0,0
-0.008047200000000001,0.009617414000000001,-0.001331456,0.005695904000000001,0.00031340199999999995,4.022,0,0
-0.00586145,0.0082743984,-0.00047185200000000004,0.0036453200000000005,-0.000661736,4.023,0,0
-0.0031926,0.005762474399999999,2.7579200000000083e-05,0.001078056,-0.001507768,4.024,0,0
-0.0005090100000000004,0.0015910904,-0.00035643280000000006,-0.0010691119999999999,-0.002065342,4.025,0,0
0.003664616,-0.0034685896,-0.0013440148,-0.00314163,-0.001888862,4.026,0,0
0.007210602,-0.007555727600000001,-0.0024014468,-0.005059774,-0.001087658,4.027,0,0
0.007883802,-0.009184784000000001,-0.0038361628000000004,-0.0056882980000000005,-0.000282808,4.028,0,0
0.0074829020000000005,-0.00886084,-0.004810000000000001,-0.005519680000000001,0.000248,4.029,0,0
0.0072054960000000005,-0.008332580000000001,-0.004670876,-0.0052116800000000015,0.000939404,4.03,0,0
0.005810698,-0.006774146,-0.004597468,-0.004314846000000001,0.0017653780000000002,4.031,0,0
0.0038498660000000004,-0.0041118922,-0.004325708000000001,-0.0032138426000000004,0.001912944,4.032,0,0
0.001960104,-0.0019635781999999997,-0.0033023440000000005,-0.0016823566000000005,0.0017972846,4.033,0,0
-5.6307999999999706e-05,-0.0002684682000000003,-0.0020336060000000003,0.0006036913999999999,0.0018454366,4.034,0,0
-0.0018002340000000004,0.0032262158,-0.0008324439999999999,0.0028307074,0.0018157726000000002,4.035,0,0
-0.0036463920000000005,0.0081488618,0.000970912,0.0045479974,0.0016553406000000001,4.036,0,0
-0.005398748,0.011246848,0.002504872,0.005891962000000001,0.0016506786,4.037,0,0
-0.006178116,0.012037954,0.003017014,0.00617408,0.0015750410000000001,4.038,0,0
-0.00520438,0.010648754000000002,0.0034624260000000002,0.004989245800000001,0.0007981889999999999,4.039,0,0
-0.0029561099999999996,0.006163234000000002,0.003928246,0.0031130577999999996,-0.00015598900000000004,4.04,0,0
-0.0009376099999999997,0.0006874499999999998,0.0036442820000000004,0.0010920498,-0.0011473070000000002,4.041,0,0
0.0017108420000000004,-0.003871174,0.002628084,-0.0007631782000000001,-0.002109529,4.042,0,0
0.005617302000000001,-0.008372574,0.0017430260000000002,-0.0026045202,-0.0026517520000000003,4.043,0,0
0.007070278000000001,-0.010441708,0.000596544,-0.003919858,-0.00251881,4.044,0,0
0.0048691920000000005,-0.009885906,-0.0006702880000000001,-0.004374388000000001,-0.0019815240000000006,4.045,0,0
0.002812694000000001,-0.010451122000000002,-0.0012649100000000002,-0.00463231,-0.001065664,4.046,0,0
0.0017098760000000006,-0.010604104,-0.001607218,-0.004377192,0.0001405079999999999,4.047,0,0
0.0008130660000000003,-0.0075895794,-0.0018291820000000002,-0.0032481784,0.00113221,4.048,0,0
0.0014537700000000003,-0.0036634394,-0.0018759700000000002,-0.001876542,0.00215817,4.049,0,0
0.00250765576,-0.00039921140000000015,-0.0018803780000000003,-0.00032567399999999997,0.0024460600000000003,4.05,0,0
0.0005340897599999997,0.0041972886,-0.001358072,0.001289284,0.0018746120000000003,4.051,0,0
-0.004323376240000001,0.0088585146,-0.00019585000000000002,0.002279876,0.0013320402800000002,4.052,0,0
-0.00868516624,0.01109059,0.0011152000000000002,0.0025601324000000003,0.00041765428,4.053,0,0
-0.01117537824,0.011395500000000001,0.0023896740000000005,0.002472867,-0.00092215772,4.054,0,0
-0.011192690000000002,0.011113998000000002,0.003509158,0.002094593,-0.0017272357200000003,4.055,0,0
-0.0071455480000000016,0.009038778,0.004647612000000001,0.0012079392000000002,-0.0020967557200000002,4.056,0,0
-0.0012150580000000002,0.004434508000000001,0.005885062000000001,0.00033677920000000006,-0.0023571160000000002,4.057,0,0
0.002306778,0.000642966,0.006607636,0.0005355772,-0.0021213194,4.058,0,0
0.0038524500000000003,-0.002197976,0.0063241980000000005,0.0011656602,-0.0016441126000000003,4.059,0,0
0.005249790000000001,-0.005707744,0.005217236,0.0007598066,-0.0008552066,4.06,0,0
0.005696686000000001,-0.007755034,0.003238602,0.0003073864000000001,4.4669400000000084e-05,4.061,0,0
0.005886596000000001,-0.006641866,0.000521788,-0.00020470959999999985,0.0004453950000000001,4.062,0,0
0.007196518000000001,-0.005709766,-0.0019332720000000002,-0.0017164416000000002,0.0008222004000000001,4.063,0,0
0.006757944000000001,-0.0051079459999999995,-0.00337965,-0.0026689176,0.0012017116000000003,4.064,0,0
0.003841594000000001,-0.0029840080000000002,-0.0040379940000000005,-0.002298714,0.0009685696000000001,4.065,0,0
0.0023516528,-0.002625202,-0.004313578,-0.0012238220000000003,0.00035512760000000005,4.066,0,0
0.0005266447999999998,-0.0015558840000000004,-0.00442078,0.00032537000000000006,-6.218199999999993e-05,4.067,0,0
-0.0039967332,0.003006658,-0.004825810000000001,0.002103656,-0.0005495599999999999,4.068,0,0
-0.0060927632,0.00662333,-0.005029976,0.0031612000000000003,-0.0012269000000000002,4.069,0,0
-0.0052367812,0.00832463,-0.004633256,0.003357276,-0.0014159418,4.07,0,0
-0.006529122000000001,0.010412868,-0.0036082740000000003,0.0029210224000000003,-0.0008626237999999999,4.071,0,0
-0.006973862000000001,0.009761351,-0.0009151319999999997,0.0019621962000000003,-0.00024494179999999993,4.072,0,0
-0.003177854,0.004120148999999999,0.003069174,0.0007145421999999999,1.1973499999999966e-05,4.073,0,0
0.00010863600000000028,-0.001487131,0.00560095,-0.0007421738000000001,0.00043737750000000014,4.074,0,0
0.0015008880000000001,-0.0048961790000000005,0.005667086000000001,-0.0017331938,0.0008517793000000001,4.075,0,0
0.004031934000000001,-0.008422213000000001,0.004617662,-0.0025717962,0.0008174193,4.076,0,0
0.006056868000000001,-0.011321112000000001,0.0020846819999999996,-0.0032719760000000002,0.0008684253,4.077,0,0
0.005346752000000001,-0.011053104000000001,-0.001397166,-0.003256362,0.001543708,4.078,0,0
0.004392402,-0.0092243,-0.0034419360000000005,-0.0028085668,0.00212894,4.079,0,0
0.003966928000000001,-0.008070220000000001,-0.0036350500000000003,-0.002220124,0.002170132,4.08,0,0
0.001925398,-0.005222318,-0.0031411600000000005,-0.00116251,0.0020470258,4.081,0,0
-0.0007561280000000001,-0.0004529200000000003,-0.0028214400000000006,0.000259224,0.0015205064000000002,4.082,0,0
-0.0024834820000000004,0.002949716,-0.0025307880000000004,0.001467786,0.0008638632,4.083,0,0
-0.004958528,0.005730651999999999,-0.002262136,0.0025809168,0.0004055536,4.084,0,0
-0.007796578,0.009653722,-0.0025389500000000003,0.003355396,-0.0002902064,4.085,0,0
-0.007658598000000001,0.01219922,-0.0031773520000000005,0.003441086,-0.0011600702,4.086,0,0
-0.005433302,0.012011324,-0.00344727,0.0028617692,-0.0017900768,4.087,0,0
-0.004058025,0.011493218,-0.002752774,0.0020536012,-0.0023353096,4.088,0,0
-0.0019345188000000001,0.009897016,-0.00018296200000000006,0.0013071622,-0.002597976,4.089,0,0
0.0013449892,0.005029486,0.0030489180000000007,0.00042384560000000005,-0.0021226072,4.09,0,0
0.0022007992,8.365999999999669e-06,0.005156522,-0.0005208484000000001,-0.0011369472000000002,4.091,0,0
0.0009773792,-0.004245756000000001,0.006172739000000001,-0.0012299056,-9.185520000000008e-05,4.092,0,0
0.0009279272000000001,-0.009290712000000001,0.004949831,-0.0023766776,0.0008303828,4.093,0,0
0.0016786029999999999,-0.012799590000000001,0.0014601510000000005,-0.0041968406000000005,0.0015801048,4.094,0,0
0.0020534610000000003,-0.012567422000000002,-0.0018547350000000004,-0.005455698000000001,0.0016338132,4.095,0,0
0.0028567830000000003,-0.010634010000000001,-0.0038500170000000007,-0.006185348,0.0009839412000000002,4.096,0,0
0.004042479000000001,-0.008894142,-0.004085446,-0.006312924,0.0006195244,4.097,0,0
0.0055037720000000005,-0.005010098000000001,-0.002293682,-0.00551707,0.0003111414,4.098,0,0
0.006791398000000001,-0.0008802879999999999,-0.0003594920000000001,-0.0043054140000000005,-0.000350691,4.099,0,0
0.006313906,0.00205535,0.001099652,-0.0031193104000000003,-0.0004434788,4.1,0,0
0.0030759219999999996,0.004713798,0.002754006,-0.0012602064,-6.32726e-05,4.101,0,0
-0.0004797100000000008,0.008234850000000002,0.003502704,0.0008276776000000001,-7.65614e-05,4.102,0,0
-0.0038640040000000003,0.010007646,0.00302704,0.0026488216,9.679760000000002e-05,4.103,0,0
-0.008108364,0.010271428,0.0022893336,0.004551517600000001,0.000766842,4.104,0,0
-0.010788118000000001,0.010752032000000002,0.0014669856,0.005473024000000001,0.0011049486000000001,4.105,0,0
-0.009237442,0.007693322,0.00010939559999999997,0.005325466000000001,0.0013354804000000001,4.106,0,0
-0.00557862,0.0040744000000000015,-0.0016067864,0.00361269,0.0016766740000000002,4.107,0,0
-0.003496552,-0.0012157999999999995,-0.0031496564,0.0020165560000000005,0.0018516160000000002,4.108,0,0
0.00025443600000000025,-0.004875872,-0.0036213140000000005,-7.807000000000018e-05,0.0014795500000000003,4.109,0,0
0.0036524160000000003,-0.012217992,-0.002982566,-0.0007409714000000001,0.00024956999999999996,4.11,0,0
0.005745624,-0.013435652,-0.0024038112,0.0037464866,-0.0014790580000000001,4.111,0,0
0.0040395480000000004,0.005402029999999999,-0.0016882231999999998,0.008251218599999999,-0.0033113559999999997,4.112,0,0
-0.004265541999999999,0.021482710000000002,-0.000361351,0.0103857466,-0.005145922000000001,4.113,0,0
-0.010197089999999999,0.02703115,0.0006551390000000001,0.0120638726,-0.006371074000000001,4.114,0,0
-0.010134125999999999,0.031166254,0.001003207,0.010233578,-0.005991326,4.115,0,0
-0.00718699,0.023475744,0.0020194522,0.0021089980000000004,-0.0042708142000000004,4.116,0,0
0.0011991640000000017,-0.007363316000000002,0.0039786301999999996,-0.005960622000000001,-0.0019940582,4.117,0,0
0.018197744000000002,-0.036691156,0.005364738,-0.012047422,0.0005773558000000002,4.118,0,0
0.031912324000000006,-0.05605887600000001,0.006120086,-0.016831288000000003,0.0035691198,4.119,0,0
0.03666502,-0.06744046,0.0066269300000000005,-0.01766964,0.0064390678,4.12,0,0
0.03551864,-0.06393886000000001,0.006009126,-0.015918632000000002,0.008316862000000001,4.121,0,0
0.028992284,-0.052928634,0.0033896060000000003,-0.0120085496,0.009284308000000002,4.122,0,0
0.017381604000000002,-0.034352174,-0.0016963359999999997,-0.006387411599999999,0.009083735999999999,4.123,0,0
0.0010839840000000005,-0.010882954,-0.00742628,-0.0002715316,0.007089094,4.124,0,0
-0.015425776,0.015781366,-0.01151363,0.0054995884,0.003835818,4.125,0,0
-0.031947176,0.043129246,-0.013136482000000001,0.010632600400000001,0.000249724,4.126,0,0
-0.047136540000000005,0.06667728,-0.010180004,0.014242858,-0.003684356,4.127,0,0
-0.05622796000000001,0.08222570000000001,-0.003933204000000001,0.01549214,-0.00730771,4.128,0,0
-0.056056560000000005,0.08570858,-0.00016000000000000042,0.014805648000000001,-0.00940311,4.129,0,0
-0.046119206,0.07546030000000001,0.0011075579999999998,0.012407538000000003,-0.010388544,4.13,0,0
-0.026850905999999994,0.052050860000000004,0.002588488,0.008203558,-0.010483186000000002,4.131,0,0
-0.002898506000000002,0.022938200000000002,0.0025166340000000002,0.002631358,-0.009180242,4.132,0,0
0.018019474,-0.0049145199999999995,0.0020855139999999993,-0.0023572620000000006,-0.006580899800000001,4.133,0,0
0.033560394,-0.027431940000000002,0.004576179999999999,-0.00644559,-0.0034115318,4.134,0,0
0.043307120000000005,-0.04456326,0.007852984,-0.009959060000000002,0.00010695019999999982,4.135,0,0
0.04516226,-0.055497300000000006,0.008707247999999999,-0.011527000000000003,0.0041430262,4.136,0,0
0.0401435,-0.057517200000000004,0.007193484000000001,-0.011008298000000001,0.007831862200000001,4.137,0,0
0.032893984,-0.051931540000000005,0.004919974000000001,-0.009609456,0.009901440000000001,4.138,0,0
0.0238972908,-0.040772146,0.0027463120000000003,-0.0075894360000000015,0.010150942,4.139,0,0
0.011188990800000001,-0.024150145999999997,0.0004537780000000003,-0.004250458,0.009285876,4.14,0,0
-0.0027400491999999997,-0.005093646000000001,-0.0017772620000000002,-0.00017684399999999979,0.00670375,4.141,0,0
-0.014402169200000002,0.010874274,-0.0030665420000000002,0.003744074,0.003102392,4.142,0,0
-0.0245628532,0.022104454,-0.0029491856,0.007553952,9.929600000000045e-05,4.143,0,0
-0.032600380000000005,0.02795868,-0.0023389436,0.010929212,-0.002602406,4.144,0,0
-0.03464186,0.026196364000000003,-0.0023990936,0.012344414,-0.00512108,4.145,0,0
-0.031025360000000002,0.016896464,-0.0025622376000000004,0.011359937999999998,-0.006177182,4.146,0,0
-0.0241074242,0.003434164000000001,-0.0016055270000000003,0.0089770272,-0.005965968,4.147,0,0
-0.012807304200000001,-0.012722596000000001,-0.0002376514000000001,0.004906837200000001,-0.005674022000000001,4.148,0,0
0.0016342757999999995,-0.029197816,0.0003201386000000003,-0.0003815628000000003,-0.004416303799999999,4.149,0,0
0.0137793558,-0.03730424,0.0006251445999999998,-0.005430442800000001,-0.0023565018,4.15,0,0
0.0221889158,-0.031942660000000005,0.0007899965999999998,-0.0097018408,-0.0008239918000000003,4.151,0,0
0.027903880000000002,-0.018140540000000004,-0.0004728759999999999,-0.01341363,0.00039392419999999994,4.152,0,0
0.029472579999999998,-0.00347614,-0.00346125,-0.01585322,0.0020456262,4.153,0,0
0.02749096,0.008882892,-0.005255336,-0.01592976,0.003138148,4.154,0,0
0.02453782,0.016359448000000002,-0.00325967,-0.014591124000000002,0.003579712,4.155,0,0
0.01850908,0.016732768000000002,-0.00035358799999999973,-0.0120657,0.004194834,4.156,0,0
0.0081525,0.014092968,0.0009765626000000007,-0.007612556000000001,0.00393359,4.157,0,0
-0.0026920399999999997,0.015476188000000002,0.0025297546000000006,-0.0027327540000000004,0.00256832,4.158,0,0
-0.013739640000000001,0.022124156,0.0038584006000000007,0.0018219860000000005,0.00100563,4.159,0,0
-0.02548274,0.03051726,0.0028226466000000005,0.0068484900000000005,-0.0005668120000000001,4.16,0,0
-0.03351962,0.03678892,0.0014932646,0.011310786000000001,-0.002057026,4.161,0,0
-0.03429108,0.03821076,0.001403456,0.014043662,-0.002813536,4.162,0,0
-0.029919106,0.0356808,0.0008761,0.0155313,-0.002611518,4.163,0,0
-0.022095214,0.027988844000000002,-0.0003584100000000001,0.015529500000000002,-0.0019708442,4.164,0,0
-0.008832553999999998,0.011087484000000002,-0.002018614,0.013198165999999999,-0.0011656736,4.165,0,0
0.007474046,-0.009636596,-0.0032051640000000004,0.009366528200000002,-0.0002363316000000001,4.166,0,0
0.018923786,-0.025105916,-0.002485264,0.0048206662,0.0005721724,4.167,0,0
0.023827152,-0.03672945600000001,-0.000289278,-0.00010313379999999945,0.0013762304000000001,4.168,0,0
0.02620188,-0.046046319999999995,0.0017238640000000003,-0.004145505800000001,0.0020632386000000004,4.169,0,0
0.0248768,-0.047382600000000004,0.001768052,-0.006636931800000001,0.0027051720000000005,4.17,0,0
0.019811460000000003,-0.04038510000000001,-0.002254806,-0.0073699360000000005,0.0032480160000000003,4.171,0,0
0.015472978,-0.031066048000000006,-0.009101538,-0.005907084,0.0035979180000000003,4.172,0,0
0.011609172,-0.018574908,-0.014212908,-0.0029260980000000002,0.0035176580000000008,4.173,0,0
0.004615852,-0.00019260799999999863,-0.014216664,0.0001272459999999999,0.0025775100000000003,4.174,0,0
-0.004176328000000002,0.018309292000000005,-0.007888224,0.002878416,0.0012677780000000007,4.175,0,0
-0.012640748,0.032636832000000005,0.0014792760000000007,0.005247872000000001,-0.0001719079999999997,4.176,0,0
-0.020568246,0.042337200000000005,0.009824896,0.006579584000000001,-0.0017683220000000001,4.177,0,0
-0.024536780000000005,0.042696500000000005,0.015524236,0.006787124000000001,-0.003521784,4.178,0,0
-0.022790468000000005,0.03176379800000001,0.01666538,0.006205240000000001,-0.004527258,4.179,0,0
-0.018850022,0.015843238,0.013555140000000002,0.004939668800000001,-0.004892732,4.18,0,0
-0.013228088,-5.9281999999998176e-05,0.009791522,0.0026428428000000006,-0.005188366000000001,4.181,0,0
-0.003976368000000001,-0.015218902,0.006290292,-0.0006483112,-0.004681834,4.182,0,0
0.0055483519999999995,-0.028859042,0.0017447919999999998,-0.0040083772,-0.0034753042,4.183,0,0
0.01296008,-0.0380895,-0.0030384879999999998,-0.0071872051999999995,-0.0021669298,4.184,0,0
0.019876914000000002,-0.04285484,-0.007612987999999999,-0.010092564,-0.0008708258,4.185,0,0
0.02469568,-0.04523282,-0.01094835,-0.011722752,0.0006800442,4.186,0,0
0.02412262,-0.04001662,-0.011493192,-0.011863908,0.0020430982,4.187,0,0
0.018788062,-0.02430976,-0.00803889,-0.011006543999999998,0.0027875244,4.188,0,0
0.011150002,-0.004382739999999998,-0.0015739299999999994,-0.009037836,0.0029480080000000002,4.189,0,0
0.0018064820000000012,0.015844320000000002,0.003552090000000001,-0.005894714000000001,0.0025047916000000003,4.19,0,0
-0.007880798,0.03365358,0.006600334000000001,-0.0025043220000000002,0.0012835576000000003,4.191,0,0
-0.014865478000000001,0.04288642,0.008095930000000001,0.0004807380000000003,-0.00020269039999999992,4.192,0,0
-0.01930362,0.04421962,0.0056010700000000005,0.0033115720000000005,-0.0012634764,4.193,0,0
-0.022769240000000003,0.042999180000000005,-0.00023665000000000014,0.005820958,-0.0020515984,4.194,0,0
-0.023215379999999997,0.03965432,-0.004527824000000001,0.007319514000000001,-0.002387296,4.195,0,0
-0.019774166000000003,0.033705360000000004,-0.0061535900000000004,0.007557268,-0.002150694,4.196,0,0
-0.014966450000000001,0.02569658,-0.006793138000000001,0.007294042,-0.001970374,4.197,0,0
-0.00835397,0.015611662000000002,-0.006065050000000001,0.006272918,-0.001850994,4.198,0,0
0.0005430299999999999,0.003069482000000002,-0.004449496000000001,0.003977078,-0.0007978919999999999,4.199,0,0
0.008295150000000001,-0.010330058,-0.002412034,0.0016453680000000004,0.000912362,4.2,0,0
0.014027496,-0.022480638,9.175999999999846e-06,-0.00045098799999999993,0.0023689419999999997,4.201,0,0
0.019390280000000003,-0.033416958,0.00271395,-0.00261422,0.0037084880000000002,4.202,0,0
0.022502499999999998,-0.041438840000000005,0.004986982,-0.004030138,0.005144564,4.203,0,0
0.02148246,-0.043586400000000004,0.006050626000000001,-0.0045761000000000005,0.00569547,4.204,0,0
0.017999206,-0.039891380000000004,0.005778420000000001,-0.004542758,0.004859208,4.205,0,0
0.012537226,-0.031646122,0.0038987240000000014,-0.0036729878,0.003917846,4.206,0,0
0.003693105999999999,-0.018206042,0.001173624,-0.0017958958000000003,0.0031601940000000003,4.207,0,0
-0.0063151740000000015,-0.0011421219999999989,-0.001348358,0.0002789862000000001,0.0017031259999999997,4.208,0,0
-0.013599354000000001,0.014370018,-0.0029872320000000003,0.0020844102,6.474200000000012e-05,4.209,0,0
-0.018763500000000002,0.026348458,-0.0035996140000000005,0.0035694562,-0.0013308599999999997,4.21,0,0
-0.022186400000000002,0.03445492,-0.0034117540000000003,0.004228592,-0.003349216,4.211,0,0
-0.021637299999999998,0.03587008,-0.0035179020000000007,0.0036822332,-0.005467172,4.212,0,0
-0.017805128,0.030183272,-0.0037902400000000003,0.0024769728,-0.0065692319999999995,4.213,0,0
-0.0127175098,0.020724966000000004,-0.0031837798,0.0014212064,-0.007037454,4.214,0,0
-0.006459553800000002,0.009726286,-0.0018726558000000003,0.0001411104000000001,-0.00671633,4.215,0,0
-0.0002384698000000001,-0.002342274000000001,0.00023023820000000008,-0.0009382116,-0.0047832726,4.216,0,0
0.0048449502,-0.014056194000000001,0.0028365722000000004,-0.0018900048,-0.0022294446,4.217,0,0
0.0104355982,-0.024464966,0.0050654122,-0.0030816264,-0.00013923860000000007,4.218,0,0
0.015229300000000001,-0.031060579999999997,0.006224938,-0.003949796,0.0016974733999999998,4.219,0,0
0.016304584,-0.029983121999999997,0.005677538,-0.004118596,0.0032678294,4.22,0,0
0.014840334000000002,-0.023034928,0.0030973619999999998,-0.0033225200000000002,0.00420703,4.221,0,0
0.012551948000000002,-0.014681637999999997,0.000278384,-0.0016445799999999997,0.004835290000000001,4.222,0,0
0.0082732122,-0.005392823999999999,-0.00198218,0.0006865,0.0053368,4.223,0,0
0.0017594261999999998,0.004125976000000001,-0.00414592,0.003142782,0.005223356,4.224,0,0
-0.0031744738000000004,0.009205538000000001,-0.004230452,0.0050073900000000005,0.0045389836,4.225,0,0
-0.0064419678,0.010687284000000002,-0.00198229,0.0057573400000000005,0.0031417596000000002,4.226,0,0
-0.0100950418,0.013449654000000002,-0.0003851899999999999,0.0058250820000000005,0.0010280476,4.227,0,0
-0.01196457,0.016754520000000002,0.00016669800000000006,0.005278374,-0.0012777924000000002,4.228,0,0
-0.010746204000000002,0.01725436,0.0009461319999999999,0.0034666180000000003,-0.0032169804,4.229,0,0
-0.008651615400000002,0.0166153,0.0006510314000000002,0.00108869,-0.0046039,4.23,0,0
-0.0067953414,0.01748742,-0.0005413273999999999,-0.0010226019999999998,-0.005367042000000001,4.231,0,0
-0.0036038133999999997,0.01597948,-8.701139999999982e-05,-0.003366238,-0.005439013999999999,4.232,0,0
-0.0010495414,0.011078878,0.0026920826000000004,-0.005329728,-0.004678562,4.233,0,0
-0.00019294739999999998,0.005722298,0.005890638600000001,-0.005835722,-0.0030114620000000008,4.234,0,0
0.0014113160000000001,-0.0012689619999999993,0.0086356872,-0.005511162,-0.0013793420000000002,4.235,0,0
0.004066978000000001,-0.010795302,0.010381138,-0.004875096,-2.033200000000013e-05,4.236,0,0
0.00505826,-0.018045622,0.008889018,-0.0034416359999999997,0.001166076,4.237,0,0
0.0052535540000000006,-0.0207108,0.003779678,-0.0015593500000000001,0.00186863,4.238,0,0
0.00722392,-0.020921920000000004,-0.002339902000000001,6.838599999999992e-05,0.002273672,4.239,0,0
0.007599946,-0.018048786,-0.007033082000000001,0.0017841099999999998,0.002524832,4.24,0,0
0.0057734024,-0.012109504,-0.008340176000000001,0.0037568759999999997,0.002604134,4.241,0,0
0.0046528304,-0.005277725999999999,-0.005017790000000001,0.005759604,0.0025469159999999998,4.242,0,0
0.0023567784000000005,0.0014129540000000006,-0.0005826999999999998,0.0075543,0.0023315498,4.243,0,0
-0.0030606416,0.008510694000000001,0.0020746920000000004,0.008935732,0.0017519118000000001,4.244,0,0
-0.0070029996,0.01413992,0.00303136,0.009256494,0.0011376988,4.245,0,0
-0.007305084,0.016594298,0.0013698459999999999,0.00827219,0.0005285348,4.246,0,0
-0.006917653200000001,0.01724718,-0.0024637540000000003,0.006511706,-0.00031215920000000007,4.247,0,0
-0.005227184600000001,0.015643654,-0.005268852,0.0038127540000000002,-0.0007829010000000001,4.248,0,0
-0.0012132185999999998,0.010625186000000002,-0.005104956,0.0003375740000000002,-0.0008058230000000001,4.249,0,0
0.0024168274,0.004155426,-0.0037065960000000004,-0.0025738360000000004,-0.0009214882000000001,4.25,0,0
0.0046830274,-0.0018226540000000004,-0.0022300780000000004,-0.004748912,-0.0011623942,4.251,0,0
0.007335358600000001,-0.008382774,-0.0016321880000000003,-0.006904826,-0.0013098162,4.252,0,0
0.00949666,-0.014163888000000003,-0.0028138600000000005,-0.008305518000000001,-0.0017191962,4.253,0,0
0.008997238,-0.01570846,-0.005027928000000001,-0.008631158,-0.0026383661999999997,4.254,0,0
0.007067590000000001,-0.014909326000000002,-0.006157036000000001,-0.00841564,-0.0038721940000000007,4.255,0,0
0.005015401200000001,-0.014112546000000002,-0.003917930000000002,-0.0076805760000000015,-0.004608936,4.256,0,0
0.0018053711999999997,-0.011054392000000001,0.00041799999999999954,-0.006085050000000001,-0.004286638,4.257,0,0
-0.0010625568,-0.0059701039999999995,0.00490843,-0.0033974820000000003,-0.0036140260000000002,4.258,0,0
-0.0025859408000000004,-0.0013031039999999998,0.00991249,-7.813400000000032e-05,-0.0025440840000000003,4.259,0,0
-0.0044983588,0.003883282,0.012418820000000002,0.002945672,-0.00036972800000000005,4.26,0,0
-0.006664118,0.010202402,0.008367926000000001,0.005108166,0.002082202,4.261,0,0
-0.00739543,0.015185948000000001,0.0021868260000000002,0.006207292,0.0034960120000000006,4.262,0,0
-0.007311312,0.01749942,-0.0015372340000000004,0.005811172,0.004574076,4.263,0,0
-0.006623798000000001,0.0172723,-0.004704394000000001,0.004375678000000001,0.005284306000000001,4.264,0,0
-0.003457382,0.014127412,-0.006159316000000001,0.0026323378,0.00501524,4.265,0,0
0.0007192480000000002,0.008538488,-0.003850450000000001,0.0011719130000000001,0.004511132,4.266,0,0
0.003462684,0.003067742,-0.0005393360000000002,0.0004144920399999999,0.004146442,4.267,0,0
0.004731102000000001,-0.001417168,0.0016226780000000002,-0.00015382716000000003,0.0035768780000000003,4.268,0,0
0.005384558,-0.0066204079999999995,0.0028147040000000003,-0.00102318716,0.0025885966,4.269,0,0
0.0043977962,-0.011018799999999999,0.003106328,-0.00218051696,0.0015949846,4.27,0,0
0.0014013142000000001,-0.013462236,0.0030972200000000004,-0.00359405816,0.00018222660000000016,4.271,0,0
-0.0006345938000000001,-0.01694327,0.0034780600000000003,-0.0053678852,-0.0011569174,4.272,0,0
-0.0010298937999999999,-0.02126034,0.003986254,-0.006611386,-0.0018132466000000001,4.273,0,0
-0.00144441856,-0.0215107,0.0034831464,-0.006621554,-0.0022377272,4.274,0,0
-0.0010668487599999998,-0.01608383,0.0012997804,-0.00574434,-0.0022068932,4.275,0,0
0.00082361724,-0.00744109,-0.0018000235999999998,-0.0043336334,-0.0012447092000000002,4.276,0,0
0.00116573324,0.002086809999999999,-0.0047040596,-0.0020486114000000002,-0.00017933120000000004,4.277,0,0
0.00033467124000000005,0.01099793,-0.0065841796,0.00039256260000000004,-0.00010831039999999996,4.278,0,0
0.0015304460000000002,0.016610430000000002,-0.00672589,0.0021936726,0.0006439876,4.279,0,0
0.002542926,0.015891252,-0.004799988,0.0040898285999999996,0.0017814156000000002,4.28,0,0
0.002239318,0.0108995698,-0.0028052628,0.00518935,0.0016966416000000002,4.281,0,0
0.0035229299999999996,0.0051789057999999995,-0.0019391308000000001,0.0047820654,0.0014941848,4.282,0,0
0.0049780480000000005,0.0007316158,-0.0014612628000000001,0.0034259274,0.0017051482,4.283,0,0
0.003468086,-0.0002374282000000001,-0.0013534708000000001,0.0016941814000000005,0.0011689203999999999,4.284,0,0
0.0019109099999999998,0.0010193797999999998,-0.0003128108,6.916179999999977e-05,9.112039999999996e-05,4.285,0,0
0.00189215,0.0015536939999999996,0.002575104000000001,-0.0006838942000000001,3.83684e-05,4.286,0,0
0.0004957340000000001,0.0024232959999999997,0.005388854,-0.00019859559999999997,0.0005971412,4.287,0,0
-0.0017155,0.0029136319999999998,0.006996750000000001,0.0009261104,0.0009192622,4.288,0,0
-0.0028075260000000003,-0.0008704640000000005,0.007723730000000001,0.0020083364,0.0012134934,4.289,0,0
-0.004252714,-0.005749944,0.0055657020000000005,0.002565022,0.0017768194000000001,4.29,0,0
-0.0062550060000000005,-0.007743748,0.000814562,0.002753816,0.0019018994000000002,4.291,0,0
-0.006362192,-0.009084782,-0.003795938,0.0019064820000000001,0.0010222214000000002,4.292,0,0
-0.005683422,-0.009281623999999999,-0.006852766,0.000708158,-0.0002639945999999999,4.293,0,0
-0.0042468088,-0.005317324,-0.007395741200000001,4.523540000000005e-05,-0.0016178719999999998,4.294,0,0
-6.268879999999982e-05,0.0007925560000000002,-0.006510273800000001,-0.0010645186000000002,-0.0031198980000000003,4.295,0,0
0.0033682812,0.006240288,-0.0052677238000000005,-0.0021614466000000002,-0.00421798,4.296,0,0
0.0033405431999999997,0.011729384000000002,-0.0030316978,-0.0025419426000000004,-0.004377508,4.297,0,0
0.0030873552,0.015778800000000003,9.677620000000009e-05,-0.0026870886000000004,-0.0037520999999999995,4.298,0,0
0.00299272,0.01568985,0.0022944714000000003,-0.0026511068000000006,-0.002267284,4.299,0,0
0.0006729388,0.0123261506,0.004088298000000001,-0.0017428048000000004,-0.00039890200000000013,4.3,0,0
-0.0006805072,0.0077712306,0.005589494,-0.00017668479999999992,0.0008935620000000001,4.301,0,0
0.0005206828,0.002532904600000001,0.00459956,0.0012922812000000002,0.00168478,4.302,0,0
0.0013936844000000002,-0.0026293554,0.0019453360000000004,0.0019553134000000003,0.002209314,4.303,0,0
0.0008368924,-0.0062299054,-0.0006865660000000001,0.0015034402,0.001916112566,4.304,0,0
-0.0005341663999999999,-0.007893438000000001,-0.002069702,0.0005383102000000002,0.001227716966,4.305,0,0
-0.0013707164000000003,-0.007789792,-0.0009321359999999999,-0.0008236857999999998,0.000691927966,4.306,0,0
-0.0011720924,-0.00644222644,0.001069874,-0.0019610518,6.717136600000001e-05,4.307,0,0
-0.0004780539999999998,-0.0045837642400000005,0.000937666,-0.0019541934,-0.00041172863400000005,4.308,0,0
0.0007207540000000003,-0.0027247042400000004,-0.00037233999999999987,-0.0010243974,-0.00015288720000000006,4.309,0,0
0.0015868600000000003,-0.00046236024,-0.0011216880000000002,-0.0001165053999999998,0.0003515824,4.31,0,0
0.00044705199999999987,0.00210416776,-0.0020300720000000004,0.0005658726000000001,0.0004896716,4.311,0,0
-0.000954968,0.0028406742,-0.0023103060000000003,0.0011111786000000002,0.0007487462000000002,4.312,0,0
-0.0014052180000000002,0.002061966,-0.001139008,0.0010350338000000001,0.0008134008000000002,4.313,0,0
-0.002765266,0.0018482600000000004,-0.0004386279999999998,0.0010664318000000001,0.0001910288000000001,4.314,0,0
-0.003152772,-1.176599999999986e-05,-0.0016154119999999997,0.0012826378,-0.0004914172,4.315,0,0
-0.0016181770000000002,-0.00403802,-0.0025895672,0.0013311178000000002,-0.0008881034,4.316,0,0
-0.0018531630000000001,-0.004924445600000001,-0.0012062132000000003,0.0012707902,-0.0014130574,4.317,0,0
-0.0023018303999999996,-0.0026957696,0.0005006308,0.0009533824000000002,-0.0017588820000000002,4.318,0,0
0.0003032555999999999,-0.0011314235999999997,0.0009082167999999999,0.00029921040000000003,-0.0018308640000000002,4.319,0,0
0.0020029356,0.0007736324000000005,0.0008717648,-0.00019392519999999994,-0.00188586,4.32,0,0
0.0011728785999999998,0.0031195123999999998,-0.0004589660000000001,-6.505120000000001e-05,-0.0016378746,4.321,0,0
0.0018059497999999997,0.00276289,-0.0016164079999999997,-0.00016879440000000008,-0.001133898,4.322,0,0
0.0019260662,-0.0008895800000000005,0.0005535740000000003,-9.566440000000001e-05,-0.0006306382000000001,4.323,0,0
-0.0006731698,-0.00538246,0.004396916000000001,0.00012086820000000004,-0.00041133420000000003,4.324,0,0
-0.0007945318000000001,-0.009272102,0.007331416,-0.0001714262,-0.0005753662,4.325,0,0
0.0017227682,-0.011524686,0.00803652,-0.0006524394,-0.0009135996000000002,4.326,0,0
0.0019904962,-0.010573852000000002,0.004176579999999999,-0.0009672946,-0.0011071828,4.327,0,0
0.0013275712000000001,-0.0075878000000000004,-0.002860000000000001,-0.0010928666,-0.0012153910000000001,4.328,0,0
0.0023889412,-0.005803582,-0.007867666,-0.0012413832,-0.001060811,4.329,0,0
0.0021861612,-0.005102662,-0.008928630000000002,-0.0009486306,-0.0005145464000000001,4.33,0,0
0.00012561320000000002,-0.00444609,-0.006174536,-0.0008119724,-0.0003108488,4.331,0,0
-4.982637399999998e-05,-0.0023205619999999995,-0.001010386,-0.0011182124,-0.0005260262,4.332,0,0
0.0001665396260000001,0.004872226,0.004118738,-0.0010685424000000002,-0.00045391568000000004,4.333,0,0
-0.001687534374,0.014953868000000002,0.007420602,-0.0007338752,-0.00027445668000000006,4.334,0,0
-0.003006134374,0.022552128,0.00734768,-0.0008575014000000001,-2.098928000000003e-05,4.335,0,0
-0.002615278974,0.026069360000000003,0.005227529,-0.0012379544,0.00093924912,4.336,0,0
-0.0027106052,0.024252168,0.002868697,-0.0006680226,0.0016538811200000002,4.337,0,0
-0.0022369546,0.0165003638,-0.0002631169999999998,2.0183399999999926e-05,0.0016262470000000002,4.338,0,0
0.0008271594,0.006153623799999999,-0.003826055,0.0001203001999999999,0.0015111394200000002,4.339,0,0
0.0029500354000000003,-0.0020798962000000004,-0.006392903,0.0009565938,0.0012533372200000002,4.34,0,0
0.002273186,-0.0061687082,-0.008979872,0.0025039618,0.00091920122,4.341,0,0
0.0010282826000000004,-0.0079345842,-0.009880266,0.003472134,0.00115909722,4.342,0,0
-0.00018936400000000003,-0.009613872,-0.007141392000000001,0.004032262,0.0017765432199999998,4.343,0,0
-0.002150728,-0.009635552,-0.004791956000000001,0.0046647,0.0019771318,4.344,0,0
-0.003560362,-0.0074173979999999995,-0.0023224260000000007,0.004501468,0.0017648304000000001,4.345,0,0
-0.003395972,-0.005354488,0.003002114,0.003563168,0.0013878597999999998,4.346,0,0
-0.0033545080000000004,-0.0034405219999999997,0.007130170000000001,0.0027995980000000004,0.0008077534000000001,4.347,0,0
-0.0027402080000000005,-0.0014880680000000002,0.0077956580000000004,0.0017553778,-0.00029709060000000006,4.348,0,0
-0.00029626000000000045,5.345800000000004e-05,0.008742744,0.0002092738,-0.0010635006,4.349,0,0
0.00186646,0.001235822,0.009130902,-0.0008507902,-0.001812255,4.35,0,0
0.00306104,0.001321082,0.005692776000000001,-0.0018362122000000001,-0.0034114244,4.351,0,0
0.0044683378000000004,-1.6741999999999983e-05,0.0008792159999999999,-0.0033877262,-0.004951840000000001,4.352,0,0
0.0027943018000000006,-0.00012924,-0.0029728559999999994,-0.0050781640000000005,-0.006304022,4.353,0,0
-0.0029469402,0.0007447240000000001,-0.0054677960000000005,-0.006457442000000001,-0.0077943000000000005,4.354,0,0
-0.0067505642,-0.000556306,-0.006561612,-0.008052518,-0.008798726,4.355,0,0
-0.0067675262,-0.002196088,-0.005398761999999999,-0.009661902,-0.00847554,4.356,0,0
-0.0058705699999999994,-0.0025125240000000004,-0.0019360199999999997,-0.009183578000000001,-0.006869448199999999,4.357,0,0
-0.0029766240000000006,-0.0028583256000000007,0.001186868,-0.006287144000000001,-0.0037594382,4.358,0,0
0.003197456,-0.0033450314000000006,0.0032939400000000004,-0.00257825,0.0005438818000000002,4.359,0,0
0.00838058,-0.0020506354,0.00438004,0.0016953699999999999,0.0051130758,4.36,0,0
0.009329002,0.0004602765999999999,0.0040458202,0.00652585,0.0091020118,4.361,0,0
0.008668324,0.0016632926,0.0024788640000000003,0.009593286,0.01133657,4.362,0,0
0.008313286000000001,0.0006065902,0.0005877339999999998,0.010188584,0.01160829,4.363,0,0
0.005948371399999999,-0.001440234,-0.001428136,0.009637264,0.01026252,4.364,0,0
0.0024182914,-0.005240138,-0.004461268,0.007883624,0.007942376000000001,4.365,0,0
0.00010935939999999998,-0.009994346,-0.007634992199999999,0.005657204,0.0054961920000000004,4.366,0,0
-0.0018214766,-0.009963816,-0.009655618,0.004187494,0.00351189,4.367,0,0
-0.0027707366,-0.0063180960000000005,-0.008445536,0.0030914540000000004,0.0021145672,4.368,0,0
-0.00144713,-0.003439838,-0.004124599999999999,0.00200634,0.0011683506,4.369,0,0
-9.608600000000022e-05,-0.00032175199999999975,0.0018333599999999996,0.0014991878000000002,0.0006003008000000001,4.37,0,0
-1.9899999999999887e-05,0.00351609,0.008062920000000001,0.0010376240000000002,-0.00013269319999999999,4.371,0,0
0.0009172019999999997,0.003483432,0.011689374,-0.000680658,-0.0009925332000000002,4.372,0,0
0.0017293660000000002,0.0004831420000000001,0.011285885800000001,-0.0027276460000000002,-0.0012652708,4.373,0,0
-0.00040231200000000016,0.0021104440000000004,0.0079738998,-0.003902646,-0.0010949294,4.374,0,0
-0.002994506,0.007967058,0.004131035800000001,-0.0049618818,-0.0010865078,4.375,0,0
-0.0031169400000000003,0.011988776,0.00032559379999999995,-0.00588225,-0.0009439958,4.376,0,0
-0.003168754,0.013977670000000001,-0.0023421742000000003,-0.0055625200000000005,-0.000404305,4.377,0,0
-0.0035984520000000002,0.01585768,-0.003416482,-0.004493904,-0.00038076479999999996,4.378,0,0
-0.0021015680000000003,0.014163008000000001,-0.004075408000000001,-0.0036725940000000004,-0.0010046736,4.379,0,0
-0.000951031,0.009105904,-0.0043028300000000005,-0.0025112246000000005,-0.0014847314000000001,4.38,0,0
-0.0019387050000000002,0.005448938,-0.0037675706000000002,-0.0013224446,-0.0022663594,4.381,0,0
-0.0019971150000000003,0.0031220892000000003,-0.0024461006,-0.0010390066,-0.0033290822,4.382,0,0
-0.0018380600000000003,0.0013702792,-0.0007373366000000001,-0.0009880986000000002,-0.00391346,4.383,0,0
-0.0042479020000000004,0.0010184952,0.0010172294,-0.0008118190000000002,-0.004237646,4.384,0,0
-0.005777799,0.0008714991999999999,0.0024067254000000003,-0.0011271844000000002,-0.0039012400000000003,4.385,0,0
-0.004358226999999999,-0.0008193688000000001,0.0028470880000000002,-0.0011426694000000002,-0.0027993586000000007,4.386,0,0
-0.0033479029999999997,-0.0026850380000000003,0.002163444,0.0006220786000000001,-0.0013048726,4.387,0,0
-0.0025144959999999997,-0.003982276000000001,0.0005858780000000002,0.0032945326000000004,0.0006300334,4.388,0,0
0.0007306820000000005,-0.007066960000000001,-0.001201574,0.005242755,0.0025056114,4.389,0,0
0.0038515760000000007,-0.0103957,-0.0015706200000000002,0.006252573,0.0034139494000000005,4.39,0,0
0.0047424220000000005,-0.011377026,3.1121999999999964e-05,0.0061372196,0.003433775,4.391,0,0
0.005635282,-0.011633263999999999,0.0024931,0.0038724916000000002,0.0028868866,4.392,0,0
0.006151396000000001,-0.011605076,0.004646326,0.00019408960000000014,0.0014703836000000002,4.393,0,0
0.0047044596000000004,-0.009523906,0.00593686,-0.0026531684,-0.0002046003999999999,4.394,0,0
0.0033945528,-0.00678906,0.005188562,-0.0049064744,-0.0020194424,4.395,0,0
0.0034468028,-0.005438702,0.0024831219999999995,-0.006834602,-0.0035176674000000005,4.396,0,0
0.0024288098000000004,-0.0033991468,-0.000423888,-0.0074557140000000004,-0.004136552999999999,4.397,0,0
0.0007254178,-0.00031216079999999997,-0.0028081679999999998,-0.006986972000000001,-0.0042448139999999995,4.398,0,0
0.0005028846000000001,0.0016317572,-0.004011296000000001,-0.005595278000000001,-0.0036634616,4.399,0,0
-0.0006095925999999999,0.0032000992000000006,-0.004072402,-0.0032631540000000003,-0.0022570916,4.4,0,0
-0.0031795006000000002,0.005278333200000001,-0.004179248,-0.00055637,-0.0008503796000000002,4.401,0,0
-0.0043051916,0.006081588000000001,-0.005454748,0.002413234,-0.00010949320000000002,4.402,0,0
-0.0042918696,0.005282808000000001,-0.008023356,0.005268974000000001,0.0006017808,4.403,0,0
-0.0048314,0.00441688,-0.012815064000000001,0.006900698,0.0007355084000000001,4.404,0,0
-0.0036810740000000003,0.0031260948,-0.017208464,0.0073869439999999995,0.0005597464,4.405,0,0
-0.0002287280000000001,0.0013626388,-0.014620428,0.006897994,0.0009888764,4.406,0,0
0.001742572,0.0006875686,-0.0062355480000000005,0.00505791,0.0010828808,4.407,0,0
0.0021325679999999996,0.0005338446,0.0029099720000000003,0.0017802900000000001,0.00040486479999999995,4.408,0,0
0.003097632,-0.00033903340000000006,0.013202932,-0.0023444620000000003,-0.00022517320000000002,4.409,0,0
0.003253944,-0.0009734862,0.022318272,-0.00569828,-0.0006941392000000002,4.41,0,0
0.0015500974000000002,-0.0004825658000000001,0.022946800000000003,-0.007511180000000001,-0.0014619392,4.411,0,0
0.0008959014000000001,-0.00040624760000000014,0.016496156,-0.008133330000000001,-0.0014160326,4.412,0,0
0.0017398854000000002,-0.0007408164000000002,0.009187974000000002,-0.007040592600000001,-0.00013734659999999998,4.413,0,0
0.0014144932800000001,0.0012384256,0.0013476540000000002,-0.004396544600000001,0.0013761294,4.414,0,0
0.0008798622800000001,0.0039455656,-0.005334466,-0.0017433925999999996,0.0024819294,4.415,0,0
0.00097151088,0.0042544892,-0.0072609580000000005,0.0003994654,0.0036861453999999993,4.416,0,0
-0.0005946451200000002,0.003752685200000001,-0.005812412000000001,0.0020486434000000003,0.0038457859999999995,4.417,0,0
-0.0027950551200000002,0.0030945720000000003,-0.00336387,0.003095262,0.0026619724000000004,4.418,0,0
-0.0032254970000000008,6.308599999999996e-05,0.0005637380000000002,0.003907102000000001,0.0023504364,4.419,0,0
-0.0037029520000000002,-0.003971604,0.0037153500000000005,0.00546513,0.0026056844,4.42,0,0
-0.005302534,-0.006648704,0.0038486280000000006,0.006896944,0.0025163604,4.421,0,0
-0.004988602000000001,-0.009349462000000001,0.00299892,0.007030782000000001,0.0025427224000000004,4.422,0,0
-0.003236628,-0.013355622000000001,0.0019569519999999997,0.0062022734000000005,0.0025398860000000003,4.423,0,0
-0.002167934,-0.01461752,-0.0003234920000000001,0.004298455400000001,0.0012522460000000003,4.424,0,0
-0.00010640200000000023,-0.01035496,-0.003065264,0.0010862154,-0.0006075680000000001,4.425,0,0
0.002632934,-0.005061380000000001,-0.004777328,-0.0026805286,-0.002548178,4.426,0,0
0.00464579,-0.00015859999999999984,-0.005843462000000001,-0.0050912886000000004,-0.004442044,4.427,0,0
0.005919608,0.0066387600000000005,-0.006052302000000001,-0.005698103999999999,-0.0053284940000000005,4.428,0,0
0.00642675,0.01148238,-0.004754094,-0.0047079339999999996,-0.0047509882,4.429,0,0
0.005839676,0.01090961,-0.00325346,-0.002071915999999999,-0.0022233182000000002,4.43,0,0
0.0048060584,0.010251290000000001,-0.0025474600000000005,0.0019708600000000005,0.0014236297999999999,4.431,0,0
0.0038329904000000002,0.011379930000000002,-0.0018523704,0.00563147,0.005124157800000001,4.432,0,0
0.002093225,0.011516950000000001,-0.0009449144000000001,0.00753242,0.0075380618,4.433,0,0
-0.0009893990000000002,0.011460054,-0.0007952164000000001,0.008480992000000001,0.008101562,4.434,0,0
-0.004508549000000001,0.01156265,-0.0007527464000000001,0.007681244000000001,0.006440695400000001,4.435,0,0
-0.006378331400000001,0.010316236000000001,8.375999999999935e-07,0.005324822200000001,0.003338021400000001,4.436,0,0
-0.007330829400000001,0.0076361860000000005,0.0008604999999999999,0.0028435122,0.0005845494,4.437,0,0
-0.007598202000000001,0.004970176,0.001705042,0.0007045961999999997,-0.0017849086000000002,4.438,0,0
-0.004747378,0.001233076,0.0014547240000000001,-0.0011780738000000002,-0.0030990866000000002,4.439,0,0
-0.0005182760000000007,-0.00305183,-0.0008363199999999998,-0.0024758418,-0.0028690434000000005,4.44,0,0
0.001660466,-0.005791574,-0.002692368,-0.002841358,-0.0020639412,4.441,0,0
0.003469744,-0.008149348,-0.002107212,-0.003219276,-0.0016531256,4.442,0,0
0.005270356,-0.010643918000000002,-0.0008841820000000003,-0.003742666,-0.0014834896,4.443,0,0
0.0041607366,-0.011643582000000001,0.0011090380000000001,-0.004081138,-0.0018219856,4.444,0,0
0.0019812785999999997,-0.012135302,0.00485215,-0.004264082000000001,-0.0029406681999999996,4.445,0,0
0.00045659460000000004,-0.013229504,0.006960234000000001,-0.004622978000000001,-0.0036826184,4.446,0,0
-0.0026473674000000004,-0.012217874,0.0058488532,-0.0045441660000000005,-0.003539182,4.447,0,0
-0.005517441400000001,-0.009219744,0.0036628594,-0.003465724,-0.0027334506,4.448,0,0
-0.004464316,-0.00613063,0.0018398346000000002,-0.0026447951999999998,-0.0018332906,4.449,0,0
-0.0011901800000000008,-0.0014205399999999997,0.0009346846000000001,-0.0018849534,-0.0013098586,4.45,0,0
0.001696894,0.00488326,0.0011125926000000001,-0.00016591139999999984,-0.0012010966,4.451,0,0
0.0039670968,0.008917534000000001,0.0015976894,0.0014121566000000001,-0.0016377486,4.452,0,0
0.0046563728,0.010237462000000001,0.0016229298000000002,0.0018530196000000002,-0.0020350520000000003,4.453,0,0
0.0021540488000000003,0.011085190000000002,0.0011363986,0.0021869688000000003,-0.0019789916,4.454,0,0
-0.0021406092,0.010167704000000001,0.00018006860000000023,0.0023393812000000003,-0.001419458,4.455,0,0
-0.0042942372,0.006022728000000001,-0.0012307254000000001,0.0015078438,-0.00029540799999999993,4.456,0,0
-0.0036670980000000006,0.0013773320000000002,-0.0033594314000000005,0.0006207036,0.001046752,4.457,0,0
-0.0006462360000000006,-0.0021063540000000004,-0.006355838,-0.00019030740000000005,0.001877866,4.458,0,0
0.004407322,-0.006101616000000001,-0.009097214,-0.0014259594,0.0019134677999999997,4.459,0,0
0.00840866,-0.009499380000000002,-0.00944212,-0.0026188356,0.0021193842000000003,4.46,0,0
0.009713626000000001,-0.010456478000000002,-0.007434108,-0.0034884221999999998,0.0018733482,4.461,0,0
0.009510344,-0.009886052000000001,-0.00551383,-0.004082206,0.0007738842,4.462,0,0
0.008014686,-0.008549906,-0.002936776,-0.004055434,0.00045315940000000004,4.463,0,0
0.0045707162,-0.005200496,0.0013786480000000001,-0.003280668,0.0008130392000000001,4.464,0,0
0.0017497322,-0.0008018679999999999,0.004811401999999999,-0.0023318814,0.0006492188,4.465,0,0
0.0006301921999999999,0.0018663780000000004,0.005713833999999999,-0.0013892798000000003,0.0006896708,4.466,0,0
-0.0009388898000000002,0.0035310420000000007,0.004889572,7.609620000000007e-05,0.0010081364,4.467,0,0
-0.0024627518000000003,0.005071854000000001,0.003992918,0.0017966102,0.0003578972,4.468,0,0
-0.002937874,0.004881686000000001,0.003555794,0.0027620542,-0.00033790480000000004,4.469,0,0
-0.0043550080000000005,0.0033163900000000002,0.0028223859999999996,0.0032885216,-0.0006683920000000001,4.47,0,0
-0.006612352000000001,0.0030701820000000003,0.002121522,0.0033508240000000005,-0.001351598,4.471,0,0
-0.007208476000000001,0.004393562,0.0033458100000000003,0.0024659858000000002,-0.0017763436,4.472,0,0
-0.008105894,0.006157192000000001,0.005828176000000001,0.0012334348,-0.001243533,4.473,0,0
-0.010377102000000001,0.007182368,0.006243056,0.0002511428,-0.000525659,4.474,0,0
-0.010770784,0.005756214000000001,0.004455071200000001,-0.0005431772,-0.0002648944,4.475,0,0
-0.009333052,0.0016903500000000006,0.002909080800000001,-0.0014791332000000002,0.00018496959999999996,4.476,0,0
-0.009116552,-0.0033513040000000007,0.0019837434000000006,-0.0018844870000000002,0.0009192035999999999,4.477,0,0
-0.009043688,-0.007592988000000001,0.0002637914,-0.0017047954000000004,0.001446389,4.478,0,0
-0.005667644,-0.010266288000000002,-0.0016314586,-0.0013620842,0.001792005,4.479,0,0
0.00035779599999999964,-0.009619966000000002,-0.0027928378,-0.0008895410000000003,0.002346558,4.48,0,0
0.006409944,-0.004760486,-0.004422867400000001,-0.0003161326,0.002626894,4.481,0,0
0.01197821,0.0010392340000000002,-0.006389812,0.00012596408800000003,0.002488536,4.482,0,0
0.015565104,0.005597758,-0.0074402600000000015,0.000721845488,0.002121799,4.483,0,0
0.013846906,0.01050848,-0.007185276000000001,0.001945358288,0.001290559,4.484,0,0
0.007757945999999998,0.01415232,-0.0057154514,0.003189373088,0.0005973653999999999,4.485,0,0
0.0019316279999999995,0.013677686000000001,-0.0028519573999999997,0.004234502688,1.9822199999999974e-05,4.486,0,0
-0.0021665888000000004,0.011561160000000001,0.0006274785999999999,0.005144126000000001,-0.00034942,4.487,0,0
-0.0050223188,0.009247764,0.0022457478000000005,0.005339494,-0.0002828072,4.488,0,0
-0.0045514908,0.004645700000000001,0.0023573278000000005,0.003991817199999999,-0.00046150119999999997,4.489,0,0
-0.0018282268,-0.0009057399999999999,0.0020695496,0.0022297632,-0.0009488956,4.49,0,0
-0.0002358067999999998,-0.004638206000000001,0.0011785656000000001,0.00030322119999999985,-0.0018234404,4.491,0,0
0.0014244420000000006,-0.0082705,0.0014101696,-0.0025592708,-0.0035220582,4.492,0,0
0.0041646240000000005,-0.012606344,0.0027804804,-0.0053880488,-0.005319936,4.493,0,0
0.006191168000000001,-0.015014560000000001,0.0026058543999999996,-0.007307644,-0.005774162,4.494,0,0
0.0064646140000000005,-0.014741580000000002,0.0009015399999999995,-0.00801927,-0.0051440570000000005,4.495,0,0
0.006001714,-0.013080168000000001,-0.0011040640000000003,-0.007082524800000001,-0.003375459000000001,4.496,0,0
0.0042392984,-0.010158058800000003,-0.003914578,-0.0043892948000000005,-0.00030310500000000013,4.497,0,0
0.0009463764,-0.0053189388,-0.005475894,-0.0014455267999999998,0.002584785,4.498,0,0
-0.0019611016,-5.823079999999988e-05,-0.0041475340000000005,0.0014243132,0.004683601000000001,4.499,0,0
-0.0047266116,0.0043077092,-0.0015678339999999997,0.0038537992000000007,0.005400656000000001,4.5,0,0
-0.007752713600000001,0.0083540972,0.0010623160000000002,0.004575906,0.0042387200000000005,4.501,0,0
-0.009295420000000002,0.011347048000000002,0.00304615,0.0036514338000000006,0.00213743,4.502,0,0
-0.008609434000000003,0.012087707999999999,0.003885756,0.0023063618,6.696000000000002e-05,4.503,0,0
-0.007704020000000001,0.01233012,0.0036278940000000004,0.0007444558000000002,-0.0024320599999999998,4.504,0,0
-0.005660744200000001,0.01213408,0.0029503834000000006,-0.0020295742,-0.005158472,4.505,0,0
-0.0015363442,0.00921486,0.0021594282000000006,-0.0043724402,-0.006097198,4.506,0,0
0.0016998398000000001,0.005685096000000001,0.0013791850000000002,-0.005846494,-0.00568389,4.507,0,0
0.0041247258,0.002797628,0.0006946058000000001,-0.007592578000000001,-0.005407819999999999,4.508,0,0
0.007212671800000001,-0.0017910320000000003,5.395580000000001e-05,-0.0077386220000000006,-0.003864837999999999,4.509,0,0
0.009002360000000001,-0.007016752,-0.0007830176000000001,-0.004538566,8.069800000000014e-05,4.51,0,0
0.008172244,-0.010569892000000001,-0.0023936204,0.00017288000000000026,0.004365330000000001,4.511,0,0
0.006191124000000001,-0.013088108000000001,-0.0043959532,0.004841016000000001,0.007645038000000001,4.512,0,0
0.0034259600000000005,-0.014390200000000002,-0.005443492,0.009741396000000001,0.010776155999999999,4.513,0,0
7.534999999999996e-05,-0.012507732,-0.004351949999999999,0.013309620000000001,0.01250916,4.514,0,0
-0.0020698319999999997,-0.008407850000000001,-0.0018268759999999996,0.01341879,0.011268332,4.515,0,0
-0.00289419,-0.004196826000000001,0.0006060220000000002,0.010784568,0.008213357000000001,4.516,0,0
-0.00397807,0.0008396019999999996,0.0026636644,0.007854522400000001,0.004824051,4.517,0,0
-0.005151208000000001,0.005834802,0.0041380364000000005,0.005020861000000001,0.0010704169999999997,4.518,0,0
-0.005595834000000001,0.008446034,0.0041305684,0.001960105,-0.0025395750000000005,4.519,0,0
-0.0059219960000000006,0.0091198,0.0026249064,-0.00012253500000000006,-0.004705837000000001,4.52,0,0
-0.006405056000000001,0.009370890000000002,0.0012917704,-0.0008067170000000001,-0.005637258000000001,4.521,0,0
-0.004808325200000001,0.008156414,0.0005936560000000001,-0.0012694954000000002,-0.005730718000000001,4.522,0,0
-0.0011053932000000002,0.004488426,-0.000285478,-0.0014417540000000002,-0.004904848000000001,4.523,0,0
0.0014927028,0.0005926619999999999,-0.000848372,-0.0013548704,-0.0035435420000000002,4.524,0,0
0.0037150288000000003,-0.0027049580000000004,-0.0003923799999999999,-0.0015518583999999998,-0.002428354,4.525,0,0
0.0065609628,-0.006149092,0.0009606340000000001,-0.0012535378,-0.0013176348,4.526,0,0
0.007344746000000001,-0.00874219,0.002209106,-0.0005396458000000001,-2.415880000000009e-05,4.527,0,0
0.005471490000000001,-0.008636672000000001,0.00254636246,-0.0005092104000000001,0.0005594231999999999,4.528,0,0
0.0038659759999999997,-0.007108306000000001,0.00210102246,-0.0014143299999999999,0.0005429511999999999,4.529,0,0
0.0030404359999999997,-0.0055153120000000005,0.0009175724600000001,-0.002052928,0.0004523032,4.53,0,0
0.00220243,-0.0020757100000000006,-0.0009340615399999999,-0.0027390986,0.00017601239999999997,4.531,0,0
0.0016673360000000002,0.002098616,-0.0023852035400000002,-0.0038699565999999997,-0.0006126954,4.532,0,0
0.0009021560000000001,0.004946786,-0.0027582780000000003,-0.004084328,-0.0009816351999999999,4.533,0,0
-0.00129047,0.007622364,-0.0028190640000000005,-0.002999316,-0.0008562422000000001,4.534,0,0
-0.0064580160000000005,0.010243042,-0.0022021864,-0.0014459799999999997,-0.0009259582,4.535,0,0
-0.01236345,0.010570224,-0.0009302584000000001,-0.00023643199999999974,-0.000961885,4.536,0,0
-0.015115084,0.009205920000000001,-0.00021685579999999998,0.0006593432,-0.0012188532,4.537,0,0
-0.013094438000000002,0.0076626640000000005,0.00030751080000000004,0.0010335392,-0.0015841114000000002,4.538,0,0
-0.006385137999999999,0.004645126000000001,0.0011382588000000003,0.0002403412000000002,-0.0017777584,4.539,0,0
0.0023160620000000007,0.0007204959999999999,0.0017241792000000002,-0.0019876688,-0.0018646924,4.54,0,0
0.009573361999999998,-0.0025633659999999996,0.0018484232000000001,-0.0048201827999999995,-0.002611158,4.541,0,0
0.014546782,-0.006621001999999999,0.0018354810000000001,-0.007704148000000001,-0.0040314140000000005,4.542,0,0
0.01647536,-0.011156426,0.0014571164000000002,-0.010554108000000001,-0.005249068000000001,4.543,0,0
0.014104858000000001,-0.013543808000000001,0.0007747306000000002,-0.011912470000000001,-0.005718062000000001,4.544,0,0
0.010799504000000001,-0.014087218,0.00019938820000000006,-0.011375836000000002,-0.0055497440000000006,4.545,0,0
0.008983020000000001,-0.013838228000000001,-0.0001465864,-0.009163471200000002,-0.0046994024,4.546,0,0
0.0064856586,-0.010981057999999998,-0.00021244739999999997,-0.0046821352000000005,-0.0025482283999999997,4.547,0,0
0.002575714600000001,-0.0055132900000000006,-0.0003328694,0.0008701647999999999,-9.651240000000012e-05,4.548,0,0
-0.0008022373999999998,-0.0006245240000000004,-0.0007219055999999999,0.005810544799999999,0.0020714896000000003,4.549,0,0
-0.0034480073999999996,0.0037793759999999997,-0.0010329234,0.0098415608,0.0043904436,4.55,0,0
-0.0064826034,0.008840364,-0.00044268879999999995,0.012693456,0.006308586,4.551,0,0
-0.008775202000000001,0.012569214,0.0007074638,0.01385024,0.007337565999999999,4.552,0,0
-0.009444142,0.013848706,0.0014690858000000002,0.01379772,0.0077499,4.553,0,0
-0.009502094,0.01434168,0.0013813217999999999,0.013002158,0.007553226,4.554,0,0
-0.008920442,0.013559286,-0.00022973999999999976,0.011554012,0.006728806,4.555,0,0
-0.006703901200000001,0.009629462,-0.0033232479999999996,0.009349374,0.006130294,4.556,0,0
-0.0041202252,0.004753176,-0.007660682,0.006056802,0.005963216,4.557,0,0
-0.0022120630000000002,0.0003877539999999995,-0.010644342000000001,0.0031672240000000006,0.0056283,4.558,0,0
