bandpass 1,bandpass 2,bandpass 3,bandpass 4,bandpass 5,time,onset,mark
0.006343616000000001,0.0011865180000000001,-0.001175298,-0.00010732660000000002,-0.0008884300000000001,6.514,1,1
0.0055408060000000006,0.0009820480000000001,-0.0014501660000000001,-0.0009767246000000002,-0.00153652,6.515,0,0
0.0038060180000000004,7.0622e-05,-0.00166159,-0.0017708986000000001,-0.0017516839999999999,6.516,0,0
-0.0003153880000000003,-0.0025268220000000006,-0.0011472663999999998,-0.0030173226,-0.0016741228,6.517,0,0
-0.000750878,-0.006275590000000001,-0.0010070102,-0.0038128220000000004,-0.0018046248000000002,6.518,0,0
0.0015531260000000002,-0.010121036000000002,-0.0010469742,-0.003754982,-0.0016384308,6.519,0,0
0.0027140980000000003,-0.012542346000000003,-0.0008455740000000001,-0.0030630706000000004,-0.0009482043999999999,6.52,0,0
0.0024230660000000006,-0.012495349999999999,-0.000363282,-0.002420952,-0.0005884149999999999,6.521,0,0
0.00039423200000000044,-0.00988084,-0.00022286159999999994,-0.0015599964800000004,-0.00014002419999999995,6.522,0,0
-0.0051099579999999995,-0.0051852339999999995,5.7604199999999946e-05,-0.00019154648000000005,0.0008764118,6.523,0,0
-0.011424118,0.0008046059999999998,-0.0001174018,0.0012320795200000002,0.0014963218000000002,6.524,0,0
-0.013372690000000001,0.006782226000000001,-0.001036294,0.00208969612,0.0014810182,6.525,0,0
-0.011844448,0.011224456,-0.001963006,0.00245822552,0.0016857608,6.526,0,0
-0.010046694,0.014152246,-0.0027445060000000003,0.002392962,0.0019551228,6.527,0,0
-0.0064270326,0.01451032,-0.003237914,0.0018487300000000003,0.0016689288000000001,6.528,0,0
-0.0002702926000000003,0.011536250000000001,-0.002813386,0.0007967746000000001,0.0016125908000000004,6.529,0,0
0.0050181774000000005,0.007928702000000001,-0.00209055,-0.00047149140000000007,0.0016351758000000003,6.53,0,0
0.008357555400000001,0.004140227999999999,-0.0019102,-0.0017593194000000002,0.0011637414000000002,6.531,0,0
0.0116071014,-0.001230572,-0.0012084169999999998,-0.0030193314000000002,0.0005534378000000001,6.532,0,0
0.013022546000000001,-0.004961472,-4.8059000000000036e-05,-0.0040665394,4.2038600000000035e-05,6.533,0,0
0.0104717144,-0.005874288,0.0007867530000000001,-0.004568648,-0.0006399694000000001,6.534,0,0
0.007216472400000001,-0.00858604,0.001451469,-0.0040756444,-0.0015040312000000001,6.535,0,0
0.004379862400000001,-0.012892905999999999,0.0022602950000000003,-0.0028522398,-0.0018990828000000001,6.536,0,0
0.00042266039999999997,-0.014690646,0.0026396,-0.0010688318000000002,-0.0023874832,6.537,0,0
-0.0027615396,-0.014791605999999999,0.002830276,0.0006611082000000002,-0.00288136,6.538,0,0
-0.005236748000000001,-0.014146316,0.003256792,0.0021774162000000002,-0.00281646,6.539,0,0
-0.009786826000000002,-0.008233536,0.003205316,0.0034277706000000003,-0.0024823280000000002,6.54,0,0
-0.013291696,0.002124324,0.0028519818000000002,0.004400380000000001,-0.0022685020000000004,6.541,0,0
-0.012696208,0.010340564,0.0019698458000000003,0.004722292,-0.0019889039999999997,6.542,0,0
-0.010921565000000003,0.016021984000000003,0.0004074138000000002,0.004323252,-0.0013370343999999999,6.543,0,0
-0.009149331000000002,0.021085520000000003,-0.0006573222000000001,0.003653864,-0.0008507024000000001,6.544,0,0
-0.005373923000000001,0.021647140000000002,-0.0008251640000000002,0.002298558,-0.00022763819999999996,6.545,0,0
-4.900300000000037e-05,0.016465474,-0.000804023942,0.0007496480000000001,0.0006046858,6.546,0,0
0.004608311,0.010850904,-0.000778739942,-0.0009673780000000001,0.0012470278000000002,6.547,0,0
0.009463322,0.005266984000000001,-0.000547959942,-0.002533768,0.0013904200000000003,6.548,0,0
0.014183108,-0.0014535359999999996,-0.00016943394199999995,-0.003747542,0.0013904138000000003,6.549,0,0
0.016339598,-0.0069599020000000004,0.000345521858,-0.004388386,0.0013936762,6.55,0,0
0.015521654000000001,-0.010983636000000001,0.00033848400000000006,-0.004198808,0.0009443826,6.551,0,0
0.012121374,-0.013781246,-5.646799999999995e-05,-0.003422336,0.0007846066,6.552,0,0
0.00629138,-0.014508245999999999,-0.0006319940000000002,-0.0020894588,0.0009231368,6.553,0,0
-4.5120000000000056e-05,-0.014148139999999998,-0.0020752080000000003,-0.0005432127999999998,0.0010401310000000001,6.554,0,0
-0.004301898,-0.013452219999999999,-0.0028387458,0.0012917872000000003,0.0013526004,6.555,0,0
-0.007910894000000002,-0.010325256,-0.0023338418000000004,0.0027727032,0.0018293480000000002,6.556,0,0
-0.011710854,-0.004468649999999999,-0.0023583598,0.004032223200000001,0.0021164120000000002,6.557,0,0
-0.01315994,0.0020695900000000005,-0.0032295138,0.005118362,0.002096536,6.558,0,0
-0.011651386000000001,0.008414384,-0.0046555858000000006,0.0053623740000000005,0.002030036,6.559,0,0
-0.0092643616,0.014018590000000001,-0.005907314,0.004776374,0.0018610480000000001,6.56,0,0
-0.0062230596,0.018177906,-0.0038020379999999998,0.0034066754000000006,0.0014155378,6.561,0,0
-0.0009953656,0.01884742,0.001292222,0.0014575934000000002,0.0009061094000000001,6.562,0,0
0.0043441944,0.0154702,0.004824344,-0.0007101926,0.000684446,6.563,0,0
0.008006920399999999,0.009949644,0.0073795322,-0.0025420966,0.00013001200000000004,6.564,0,0
0.010925036,0.0028122240000000003,0.0095646642,-0.0037667145999999998,-0.0002618316,6.565,0,0
0.012966414,-0.0048995160000000005,0.0081244882,-0.003985388,-6.149339999999995e-05,6.566,0,0
0.012561576000000001,-0.010559816000000001,0.0045098042,-0.0032623458,-4.007539999999998e-05,6.567,0,0
0.010217918000000001,-0.014378676,0.0030612281999999997,-0.002147151,0.00011223280000000001,6.568,0,0
0.007213705800000001,-0.01777592,0.0030671934,-0.0007115750000000001,0.0005496404,6.569,0,0
0.0021451058000000003,-0.01845478,0.0019352953999999998,0.0007175450000000001,0.0008026980000000001,6.57,0,0
-0.0049607742,-0.016150340000000003,0.0005266954000000001,0.001789315,0.0004972672200000001,6.571,0,0
-0.012136590200000002,-0.014868608000000002,-7.95328e-05,0.0024780968000000002,0.00040612702,6.572,0,0
-0.017902412200000002,-0.014052148,-0.0002606258,0.0024751850000000004,0.0007469402200000001,6.573,0,0
-0.02273468,-0.008141188,-0.00032959919999999993,0.0019826704000000003,0.0005951022200000001,6.574,0,0
-0.022111136,0.0011962320000000002,-0.0005404692,0.0012067513999999998,4.751621999999993e-05,6.575,0,0
-0.013603595999999999,0.008394612,-0.0008946992000000001,5.145139999999991e-05,-1.865459999999999e-05,6.576,0,0
-0.0038697160000000013,0.01557594,-0.001918757,-0.0011298406000000002,-0.00017397360000000002,6.577,0,0
0.005698243999999998,0.023831360000000003,-0.004061108000000001,-0.0020466596000000004,-0.0011886416,6.578,0,0
0.015062923999999998,0.02639648,-0.005682118000000001,-0.0029798050000000003,-0.0013516812,6.579,0,0
0.01877084,0.021726708,-0.00603788,-0.0042387,-0.0010043722,6.58,0,0
0.0170311,0.015395578,-0.0048657760000000005,-0.005047048,-0.0012401666,6.581,0,0
0.016377299999999997,0.007797238,-0.0016197660000000003,-0.005110654,-0.0008994956000000001,6.582,0,0
0.015811040000000002,-0.002007962,0.0008759,-0.004669564,1.2258399999999937e-05,6.583,0,0
0.013391899999999998,-0.010166462000000001,0.00062481,-0.0036204900000000005,0.0008039924,6.584,0,0
0.011547163999999999,-0.01507613,-0.0005713960000000005,-0.0017077680000000006,0.0013513114,6.585,0,0
0.008691009999999999,-0.01991562,-0.0026111960000000005,0.0005385499999999999,0.0018790054000000001,6.586,0,0
0.002114030000000001,-0.02313082,-0.004783150200000001,0.002188634,0.0018038456,6.587,0,0
-0.00533419,-0.021399379999999996,-0.0035826442000000003,0.0035210980000000003,0.0012201603999999998,6.588,0,0
-0.01050971,-0.015189359999999996,-0.00016275420000000048,0.004536436,0.0008298254,6.589,0,0
-0.017728854000000002,-0.004146739999999999,0.0029987018,0.004915326000000001,0.0005806194,6.59,0,0
-0.02486194,0.00972926,0.0052159058,0.004414896,0.0003014532,6.591,0,0
-0.023451250000000003,0.021032560000000002,0.0058676100000000005,0.0034575746000000004,-0.00014840040000000006,6.592,0,0
-0.017887168,0.02677266,0.00561507,0.0024154706000000005,-0.0003093952000000001,6.593,0,0
-0.013422344,0.02690028,0.004470786,0.0014741580000000002,-0.0006273982000000002,6.594,0,0
-0.004184544,0.020609495999999998,0.0028053460000000002,0.0005077205999999999,-0.0008984244000000002,6.595,0,0
0.007247416,0.011945692000000003,0.001523158000000001,-0.0008499473999999999,-0.0008737228000000001,6.596,0,0
0.012601506,0.005887528,-0.0003450739999999998,-0.001621492,-0.0010507208,6.597,0,0
0.013933064000000002,0.0006538799999999997,-0.002977848,-0.0022433740000000002,-0.0010715388000000002,6.598,0,0
0.013532414000000001,-0.00493402,-0.004062442,-0.0033209394,-0.0007750008,6.599,0,0
0.008454814,-0.010096976,-0.0038540680000000004,-0.00383395,-0.0007812634,6.6,0,0
0.004416268,-0.014722272000000002,-0.0035866960000000003,-0.003469306,-0.0011212228000000001,6.601,0,0
0.005777988,-0.019680948,-0.003507216,-0.003075998,-0.0011208928,6.602,0,0
0.0019653379999999996,-0.02298534,-0.004278634,-0.0025352245999999998,-0.0014147928,6.603,0,0
-0.004181016000000001,-0.02341056,-0.0047085600000000005,-0.0017128650000000003,-0.0020764128,6.604,0,0
-0.00040371000000000005,-0.023418380000000003,-0.0028501820000000006,-0.0013322490000000002,-0.002737462,6.605,0,0
0.003145376,-0.0221141,0.0005737320000000004,-0.0009914126,-0.0030387540000000003,6.606,0,0
-0.002478902,-0.017240810000000002,0.003959674,-0.00048335200000000004,-0.0030671260000000003,6.607,0,0
-0.002761374,-0.00989247,0.007575322000000001,0.0003879866000000001,-0.0030664480000000003,6.608,0,0
0.005364606000000001,-0.0018147700000000011,0.009394534000000001,0.0018706430000000002,-0.002209986,6.609,0,0
0.0076625600000000006,0.010133510000000002,0.007356324000000001,0.003658891,-0.00015227800000000005,6.61,0,0
0.004141502,0.02432439,0.0034166419999999997,0.0048498306000000005,0.0020406620000000004,6.611,0,0
0.0009422800000000002,0.032417480000000005,0.00034225800000000023,0.004635416800000001,0.003438332,6.612,0,0
-0.004348878,0.033312940000000006,-0.0017811139999999999,0.0028676848,0.0042750800000000005,6.613,0,0
-0.013791918,0.028546960000000003,-0.003088304,0.0001201227999999999,0.003478524,6.614,0,0
-0.020595798,0.015615600000000004,-0.00248266,-0.0026173772000000002,0.0010520380000000004,6.615,0,0
-0.019217288,-0.00285642,-0.0021536819999999996,-0.0045089932,-0.0011988280000000003,6.616,0,0
-0.009960987999999999,-0.018506540000000002,-0.0031398220000000004,-0.004028848,-0.0019428478000000002,6.617,0,0
0.008314592,-0.0280635,-0.0036725000000000004,-0.0012286780000000004,-0.0011903778000000001,6.618,0,0
0.028255332,-0.030569440000000003,-0.0024773700000000004,0.002134494,0.0006079182,6.619,0,0
0.036558932,-0.024118933999999998,-0.0003690920000000001,0.005250458,0.0031801362,6.62,0,0
0.03172856,-0.011111994,0.0013022939999999998,0.00732471,0.0051038602,6.621,0,0
0.019465680000000003,0.0030394659999999985,0.003383166,0.0070567286,0.00545162,6.622,0,0
0.0005142200000000027,0.014195085999999999,0.004902709999999999,0.0047099446,0.0037728160000000005,6.623,0,0
-0.0194249,0.021712886,0.00373726,0.0013138326000000002,0.0004914980000000004,6.624,0,0
-0.0290859,0.025229599999999998,0.0003276259999999997,-0.0027708594000000002,-0.0034107699999999996,6.625,0,0
-0.02735458,0.02421388,-0.0026495220000000005,-0.0068244094,-0.007074284,6.626,0,0
-0.021114476,0.022129120000000002,-0.00524927,-0.010101088,-0.009675896,6.627,0,0
-0.013574076000000001,0.021032500000000003,-0.007238604,-0.011831312,-0.010820891999999999,6.628,0,0
-0.003139596,0.017932548,-0.006060516000000001,-0.011340856,-0.009432963999999999,6.629,0,0
0.007649304000000001,0.011942958,-0.0033238940000000004,-0.00845193,-0.005531534,6.63,0,0
0.014769784000000001,0.005846920000000001,-0.0006509860000000003,-0.0029706100000000003,-0.000688634,6.631,0,0
0.019308000000000002,-0.0010115599999999992,0.002469798,0.0036190899999999997,0.004730806000000001,6.632,0,0
0.020384716000000004,-0.00916556,0.005218416,0.00874565,0.009769138,6.633,0,0
0.014979620000000003,-0.014957688,0.006010566,0.011597958,0.011654606,6.634,0,0
0.00550346,-0.018470798,0.005249024000000001,0.012087874,0.0103142348,6.635,0,0
-0.004175719999999999,-0.02145078,0.003749520000000001,0.010497628,0.007699862799999999,6.636,0,0
-0.011973540000000001,-0.022097400000000003,0.0012877460000000004,0.008159254000000001,0.0039899548,6.637,0,0
-0.016871596,-0.018644586,-0.001708186,0.006042886,0.0004093248,6.638,0,0
-0.018832440000000002,-0.014880044,-0.0044068200000000005,0.0046879420000000005,-0.0012913632,6.639,0,0
-0.019967480000000003,-0.009749178,-0.0034666179999999994,0.0038947540000000003,-0.0017225300000000001,6.64,0,0
-0.01980826,-0.0026266180000000003,0.00044778400000000055,0.0028406660600000006,-0.0016917820000000002,6.641,0,0
-0.017144308,0.0025914660000000006,0.002651794,0.00128968806,-0.0016634660000000002,6.642,0,0
-0.012011448000000001,0.006503432000000001,0.00209362,-0.00012464994000000004,-0.001609954,6.643,0,0
-0.005495468,0.01089899,-0.0009127720000000001,-0.0013203179400000003,-0.0014422786000000002,6.644,0,0
0.0006227320000000004,0.014788164,-0.006130200000000001,-0.00308213194,-0.0013485244000000002,6.645,0,0
0.008588092,0.012485537600000002,-0.01149346,-0.004509636000000001,-0.0010724666000000002,6.646,0,0
0.011037928,0.011572077600000001,-0.010992648,-0.005542896000000001,-0.0005945604000000001,6.647,0,0
0.010308722000000001,0.007395827600000001,-0.005983967999999999,-0.006231726,-0.0008523004000000001,6.648,0,0
0.006824804,0.0018713556000000005,-0.001859628799999999,-0.004821076,-0.0024180618000000003,6.649,0,0
-0.006309816000000001,0.012704495599999999,0.0020282612000000005,-0.0015180040000000003,-0.004333588,6.65,0,0
-0.016080156,0.028088562,0.004826441200000001,0.001965294,-0.0062426318000000005,6.651,0,0
-0.017839944000000003,0.035862318000000004,0.003985353200000001,0.0054079620000000005,-0.007702058,6.652,0,0
-0.019632708000000002,0.041624408,0.0013702868,0.008040516000000001,-0.007860706,6.653,0,0
-0.015048670000000004,0.03933208,0.00155786326,0.007672188,-0.005951405,6.654,0,0
0.0020132300000000004,0.01435406,0.0021720492600000004,0.0053505359999999995,-0.002285143,6.655,0,0
0.01317995,-0.01590888,0.0014847710600000002,0.0022798639999999995,0.0020228070000000006,6.656,0,0
0.01842125,-0.040370960000000004,0.0012438354600000003,-0.0018053120000000003,0.006713979000000001,6.657,0,0
0.0261138,-0.06056738000000001,0.00231857186,-0.005836930000000001,0.010995885,6.658,0,0
0.02934368,-0.06920176,0.0045240762,-0.008999852000000001,0.014059902000000003,6.659,0,0
0.03019002,-0.06711888,0.0061077802,-0.011642972000000001,0.01486078,6.66,0,0
0.03175726,-0.055303340000000006,0.0081418584,-0.013768680000000002,0.013315998,6.661,0,0
0.029742740000000004,-0.037797918,0.009270386,-0.0144474,0.0099179844,6.662,0,0
0.018680500000000003,-0.015536917999999997,0.006238722000000001,-0.0137505,0.0047280704,6.663,0,0
0.0037403800000000015,0.008609362000000002,-0.0018341780000000005,-0.012415292,-0.0015944496000000002,6.664,0,0
-0.012408780000000001,0.030840722,-0.010363478,-0.010464074,-0.007949909599999999,6.665,0,0
-0.028703180000000002,0.049057502,-0.013868702000000002,-0.0073932092000000005,-0.013776467600000002,6.666,0,0
-0.03916298000000001,0.05992124,-0.012518018000000002,-0.0036705972000000003,-0.018614554,6.667,0,0
-0.04179994000000001,0.06183372000000001,-0.006848184000000002,-0.0001264412000000002,-0.020940800000000002,6.668,0,0
-0.03845672,0.05391084000000001,0.0018884559999999997,0.0034204108,-0.02059188,6.669,0,0
-0.030278799999999998,0.03841304000000001,0.009038848,0.0072679728,-0.017579158000000004,6.67,0,0
-0.017634240000000002,0.01724922,0.011130188000000001,0.010480808000000001,-0.01133502,6.671,0,0
-0.0027757999999999984,-0.00709186,0.009431562,0.012332536000000002,-0.0031613400000000008,6.672,0,0
0.012493920000000002,-0.029505160000000002,0.0064830140000000005,0.013220980000000002,0.00455472,6.673,0,0
0.027476920000000002,-0.047608899999999996,0.0044717,0.012842682000000001,0.011451780000000002,6.674,0,0
0.04071334000000001,-0.060220060000000006,0.004245014,0.01074566,0.017126938,6.675,0,0
0.04728600000000001,-0.06411466000000002,0.004401253999999999,0.007454344400000002,0.02004796,6.676,0,0
0.04627388,-0.05749386000000001,0.003732708,0.0035051503999999995,0.02015272,6.677,0,0
0.040278940000000006,-0.043292482800000004,0.0021143719999999998,-0.0010637295999999996,0.01779619,6.678,0,0
0.027700442,-0.023430522800000003,-0.00038906200000000013,-0.005129171599999999,0.013190358,6.679,0,0
0.009733782,0.0021122771999999984,-0.003636508,-0.0072375856,0.007038414000000001,6.68,0,0
-0.007680077999999998,0.0272091172,-0.006659344000000001,-0.0072547494,0.0005781140000000002,6.681,0,0
-0.023044718,0.0459216172,-0.008466062,-0.005179813399999999,-0.005130746,6.682,0,0
-0.036895498,0.05723322,-0.009209876,-0.0012957634000000003,-0.008686336000000001,6.683,0,0
-0.04613166,0.05963102,-0.008760390000000002,0.0024590406,-0.010552884,6.684,0,0
-0.04930528000000001,0.05067508,-0.007172884000000001,0.0045235826,-0.011582020000000002,6.685,0,0
-0.04922664000000001,0.034916218000000006,-0.005298770000000001,0.005040342,-0.010906696,6.686,0,0
-0.045378680000000005,0.017699218000000003,-0.002756024,0.00457471,-0.009190408,6.687,0,0
-0.032485150000000004,-0.001388182,0.0005454459999999998,0.004097844000000001,-0.005977906000000002,6.688,0,0
-0.010698590000000004,-0.017527242000000002,0.003616336,0.00408298,-0.0002899260000000011,6.689,0,0
0.014716550000000002,-0.026816081999999998,0.006015978,0.003777982,0.0055450740000000005,6.69,0,0
0.040761530000000004,-0.0341633,0.007744368,0.002546404,0.00999131,6.691,0,0
0.06110737000000001,-0.04158818,0.008285516,0.0006503160000000002,0.013303102,6.692,0,0
0.06438338,-0.04308098000000001,0.007518736,-0.0018033539999999999,0.013680126,6.693,0,0
0.050778340000000005,-0.03856748000000001,0.005704173999999999,-0.004037558,0.01068028,6.694,0,0
0.033533244000000004,-0.033727192,0.003057344,-0.0047478320000000004,0.006856849999999999,6.695,0,0
0.017160412,-0.024714512,4.864400000000025e-05,-0.0038405558,0.0028922059999999996,6.696,0,0
0.00029193199999999996,-0.005347992000000001,-0.002615096,-0.0019481258,-0.0010960240000000003,6.697,0,0
-0.009368308,0.017802487999999998,-0.0038508640000000003,-0.0005913844000000001,-0.0041964,6.698,0,0
-0.010714348000000002,0.034483668,-0.0038823720000000003,0.0002769676,-0.006758554,6.699,0,0
-0.014154352000000002,0.04547998,-0.003561342,0.0014165336,-0.008549964000000002,6.7,0,0
-0.02086446,0.05142188,-0.0029026420000000004,0.0017771534,-0.009328818000000003,6.701,0,0
-0.024938639999999998,0.047447920000000005,-0.002469184,0.0012608159999999999,-0.009575112,6.702,0,0
-0.02591098,0.034783378000000004,-0.00270674,0.0015772885999999998,-0.008815534,6.703,0,0
-0.022891202,0.019047998000000003,-0.0026943040000000002,0.0028135886000000003,-0.0062494460000000005,6.704,0,0
-0.015353982000000002,0.002579238000000003,-0.0024491760000000004,0.0031002366000000003,-0.0025257160000000008,6.705,0,0
-0.006541182000000001,-0.013073901999999998,-0.00289341,0.0024625946,0.0006555019999999999,6.706,0,0
0.0032068979999999993,-0.025196442,-0.004214092,0.00149643,0.002992084,6.707,0,0
0.012944118000000001,-0.033395879999999996,-0.0054583800000000005,-0.0007184499999999998,0.004776198,6.708,0,0
0.0192883,-0.036499079999999996,-0.004530936,-0.004549358,0.00545916,6.709,0,0
0.02216894,-0.03311846,-0.001585552000000001,-0.007754286000000001,0.004662116,6.71,0,0
0.022116499999999997,-0.024175102,0.002012598,-0.008890044,0.004062684,6.711,0,0
0.018549316399999998,-0.013506502,0.0069449180000000004,-0.008248016,0.004488415999999999,6.712,0,0
0.010889296399999998,-0.0035873019999999997,0.011277318000000001,-0.005510866000000001,0.004220069999999999,6.713,0,0
0.000817976399999999,0.007384578,0.011141892,-0.0014554160000000002,0.0031457608000000003,6.714,0,0
-0.0075095636000000006,0.017243038,0.0081209,0.0024706120000000005,0.0021326868000000002,6.715,0,0
-0.0137579836,0.02381972,0.0048116700000000005,0.005877914,0.0008425507999999999,6.716,0,0
-0.018394340000000002,0.028790200000000002,0.0007280139999999999,0.008259764000000001,-0.0009280452,6.717,0,0
-0.0189224,0.030651420000000002,-0.0028928240000000004,0.008845870000000002,-0.0016393262,6.718,0,0
-0.01776022,0.026525550000000002,-0.005590556,0.00830117,-0.001330037,6.719,0,0
-0.01855656,0.018528628,-0.007743944000000001,0.006921068,-0.001726377,6.72,0,0
-0.0181491,0.007862368000000002,-0.008254458,0.004193243999999999,-0.0021983230000000003,6.721,0,0
-0.015431254,-0.006673171999999999,-0.006648842,0.000615078,-0.002429403,6.722,0,0
-0.012890748,-0.019703812,-0.003014084000000001,-0.0029732260000000003,-0.0031891660000000002,6.723,0,0
-0.007531970000000001,-0.027716722000000003,0.0015507960000000006,-0.006818136000000001,-0.004214754,6.724,0,0
0.00329311,-0.032339480000000004,0.004744708,-0.010764142,-0.0044876000000000004,6.725,0,0
0.012338430000000001,-0.03161416,0.006009682000000001,-0.013872938000000001,-0.0046530420000000005,6.726,0,0
0.016513024,-0.025176484000000006,0.0061659620000000005,-0.01578072,-0.005699300000000001,6.727,0,0
0.020423398,-0.017734416000000003,0.0042826140000000006,-0.016115920000000002,-0.006849292,6.728,0,0
0.021351279999999997,-0.011242976,0.0020786100000000003,-0.014109532000000001,-0.007245502,6.729,0,0
0.014697748,-0.003503886000000001,0.0012762460000000002,-0.009736350000000003,-0.0063399614,6.73,0,0
0.008863574,0.0030918739999999997,-9.9722e-05,-0.003631730000000001,-0.0041965594,6.731,0,0
0.009268974000000001,0.006169018,-0.002949462,0.00392295,-0.00033479340000000003,6.732,0,0
0.00629981,0.01159105,-0.005958614,0.01178201,0.0046679266,6.733,0,0
-0.00043169000000000063,0.02178285,-0.007530388,0.017530602,0.008885594600000001,6.734,0,0
-0.005258058,0.03020874,-0.006976232,0.01987096,0.011300828,6.735,0,0
-0.010168584000000001,0.03298092,-0.003927624,0.01966048,0.011950486,6.736,0,0
-0.015391364000000001,0.032041602,0.0004138160000000002,0.016758756,0.010882296,6.737,0,0
-0.014856399000000001,0.024774062000000003,0.005195116000000001,0.011012197999999999,0.007720392,6.738,0,0
-0.008854405,0.009588501999999999,0.009376274000000002,0.005200166,0.004112276,6.739,0,0
-0.0023759049999999998,-0.007092338000000002,0.010687964000000001,0.001567744,0.0016662977999999998,6.74,0,0
0.004118475000000001,-0.019874578,0.008356440000000001,-0.001397192,-0.0002932682,6.741,0,0
0.009245935,-0.025477060000000003,0.004218280000000001,-0.004486525999999999,-0.0017964842000000002,6.742,0,0
0.012350034000000001,-0.024018072,-0.0001410759999999991,-0.006263148,-0.0023365362000000002,6.743,0,0
0.0132882,-0.018708480000000003,-0.004785414,-0.007528896,-0.0027076542000000004,6.744,0,0
0.012730192,-0.012322041999999998,-0.007323872,-0.009630714,-0.003552462,6.745,0,0
0.010366015999999999,-0.006260486000000001,-0.006588746000000001,-0.011537438,-0.00466101,6.746,0,0
0.005639595999999999,-0.0019348479999999994,-0.004660467200000001,-0.01223224,-0.005881672000000001,6.747,0,0
0.0002395559999999997,3.5240000000000076e-05,-0.0033206092000000005,-0.01225014,-0.007053066000000001,6.748,0,0
-0.005331084,0.002203702,-0.0032366492000000004,-0.011485705999999998,-0.007934884000000001,6.749,0,0
-0.010699076,0.006658464,-0.0040795512,-0.009332526,-0.008251688,6.75,0,0
-0.014108540000000003,0.012665888,-0.004439947200000001,-0.0055208160000000004,-0.007392040000000001,6.751,0,0
-0.0153375,0.01679495,-0.0032309420000000005,0.0001304440000000004,-0.004690578000000001,6.752,0,0
-0.016275200000000004,0.017992674,-0.0009875700000000003,0.006742784,0.0003293119999999996,6.753,0,0
-0.015269172,0.015828432,0.0016683099999999999,0.012965090000000002,0.006337444,6.754,0,0
-0.011104866,0.008741492,0.004034676,0.017385070000000002,0.011335954,6.755,0,0
-0.006077078,-0.0013205679999999994,0.005280548,0.018131812,0.014050956,6.756,0,0
-0.0007752279999999989,-0.010304788000000002,0.00476199,0.015155453400000001,0.0132134288,6.757,0,0
0.004323400000000001,-0.015804028,0.0034472120000000007,0.009913923400000002,0.0085876688,6.758,0,0
0.00756535,-0.01800708,0.00224685232,0.0035045354000000006,0.0023860848,6.759,0,0
0.009224824000000001,-0.016095294000000003,0.00022777232000000002,-0.0022595346,-0.0025869832000000002,6.76,0,0
0.011040456,-0.011008702,-0.00227317968,-0.005493380600000001,-0.0054247871999999996,6.761,0,0
0.011415806,-0.005392224,-0.0038673816800000003,-0.0063211660000000005,-0.005129656,6.762,0,0
0.009367376,0.0011897360000000003,-0.00481125968,-0.005868796000000001,-0.0027270140000000003,6.763,0,0
0.007146702,0.008710356,-0.004641245400000001,-0.004758514,-0.0004961419999999998,6.764,0,0
0.003821944,0.014558350000000001,-0.0015567334000000004,-0.003954296,0.000519242,6.765,0,0
-0.0017797380000000003,0.017886798000000002,0.0013578705999999997,-0.0038077640000000004,-0.00011599799999999997,6.766,0,0
-0.006242218000000001,0.019732580000000003,0.0009463265999999999,-0.004117270000000001,-0.002103472,6.767,0,0
-0.0067986240000000005,0.018005178000000004,-0.0008533914000000001,-0.004632754,-0.004312378,6.768,0,0
-0.006011740400000001,0.012260672,-0.003034668,-0.004984052000000001,-0.005852498,6.769,0,0
-0.005113950400000001,0.005668928000000002,-0.0046491694,-0.004921186,-0.006535706,6.77,0,0
-0.0027123724,-0.0017364520000000003,-0.0029170693999999997,-0.0031485240000000006,-0.004738446,6.771,0,0
3.8099600000000085e-05,-0.010479952,0.0014744906000000008,-0.00029272400000000007,-0.001452148,6.772,0,0
0.0007659010000000001,-0.01718033,0.0051867986000000005,0.0010177979999999999,0.0011287500000000002,6.773,0,0
0.0007920366000000001,-0.019755544,0.007897022600000001,0.0009314559999999998,0.002837444,6.774,0,0
0.0025822226000000005,-0.01987272,0.009063408,0.00053005,0.0038575666000000004,6.775,0,0
0.0031250666,-0.0162845832,0.007231698,-0.0009299740000000003,0.0038901626,6.776,0,0
0.0007433705999999997,-0.007961223199999999,0.0042448964,-0.0026726550000000003,0.0030638166000000002,6.777,0,0
-0.0011900668000000003,0.0005672768000000009,0.0025735784,-0.0019603010000000002,0.0030207766000000004,6.778,0,0
-0.00135431,0.006374576800000001,0.0015275464000000004,0.0008637250000000001,0.0040552366000000005,6.779,0,0
-0.00102003,0.010951516800000002,-0.0003250756,0.004384937,0.005398436,6.78,0,0
0.00156925,0.013967100000000003,-0.0018195576,0.007969180999999999,0.005829194000000001,6.781,0,0
0.006285274,0.013944940000000001,-0.002298502,0.009561555999999999,0.00489752,6.782,0,0
0.0087001,0.01354922,-0.002584358,0.008974032,0.0028454220000000002,6.783,0,0
0.00631576,0.013035818000000001,-0.003138136,0.007727613999999999,0.00025653600000000013,6.784,0,0
-0.0010732980000000003,0.008617246,-0.003673816,0.00587031,-0.002025598,6.785,0,0
-0.010687998,0.0012224660000000002,-0.004295004,0.0028067540000000003,-0.00423043,6.786,0,0
-0.019048278000000002,-0.006335234,-0.005105044,-0.0005034039999999998,-0.006097980000000001,6.787,0,0
-0.02400244,-0.014768514,-0.004445245600000001,-0.003398552,-0.006995422000000001,6.788,0,0
-0.022653138000000003,-0.023040512,-0.0021229996,-0.005997794,-0.007206598,6.789,0,0
-0.013319718000000005,-0.025716799999999998,0.0005106304000000001,-0.007756460000000001,-0.00746092,6.79,0,0
-0.0003496980000000016,-0.021700852,0.0030605984,-0.008283427999999999,-0.00683786,6.791,0,0
0.011855141999999999,-0.016343874,0.0055948324,-0.00718078,-0.0049646974,6.792,0,0
0.020613802,-0.011938249999999997,0.0070340340000000015,-0.0052683,-0.0032344314,6.793,0,0
0.021204794,-0.0057897239999999996,0.006117666,-0.0038591760000000006,-0.0017115658,6.794,0,0
0.015138493999999999,-0.0005010119999999999,0.002714178000000001,-0.0020551540000000004,0.0008312581999999999,6.795,0,0
0.008498500000000003,-0.001002196,-0.00189505,0.0008544320000000002,0.004030740200000001,6.796,0,0
0.0067287200000000005,-0.0017846140000000001,-0.006335337999999999,0.0030990060000000005,0.0060075596,6.797,0,0
0.011416400000000002,0.0028834620000000003,-0.00968932,0.0043747740000000005,0.006988667600000001,6.798,0,0
0.017026086000000003,0.009150296000000002,-0.008798968,0.005313498000000002,0.0069522844000000006,6.799,0,0
0.017079006000000004,0.015227244000000001,-0.004462283999999999,0.005061354600000002,0.0045595324,6.8,0,0
0.01126704,0.0227841,-0.00035820399999999955,0.0042441646,0.0014176984000000004,6.801,0,0
0.0015011000000000017,0.0272386,0.0034922420000000004,0.0047895566,0.0003011824,6.802,0,0
-0.01073058,0.025196924000000002,0.0055940420000000005,0.0065822686,0.0010320704,6.803,0,0
-0.017720200000000002,0.019929338,0.003898565999999999,0.0078726766,0.0023106620000000002,6.804,0,0
-0.015962178000000004,0.0129721016,0.0014995048,0.0078036058,0.004027246,6.805,0,0
-0.011429420000000001,0.0050464896000000006,0.0011783928000000002,0.0063667278,0.004994956,6.806,0,0
-0.007579454,-0.0008668563999999998,0.0010502468000000002,0.0035964178000000005,0.004001824,6.807,0,0
-0.00438732126,-0.0046620004,0.0010956808000000002,-3.432419999999971e-05,0.0019755799999999994,6.808,0,0
-0.00307100526,-0.0074920744,0.0017870288000000002,-0.0031059582,7.936399999999979e-05,6.809,0,0
-0.00404913326,-0.007960966,0.0015016520000000002,-0.00509106,-0.0017526340000000003,6.81,0,0
-0.00418514126,-0.0068754788,0.000543778,-0.006573558,-0.003316642,6.811,0,0
-0.0029597792600000003,-0.0073312528,0.00019086839999999994,-0.007467176000000001,-0.004112632,6.812,0,0
-0.002521604,-0.008979152800000001,0.0004304903999999999,-0.007509078000000001,-0.005158022,6.813,0,0
-0.0011298280000000003,-0.0115470328,0.0007981324,-0.006947486000000001,-0.006004880000000001,6.814,0,0
0.0036817779999999997,-0.0165078848,0.001216862,-0.005790284000000001,-0.005751208,6.815,0,0
0.009800108000000002,-0.01967684,0.0010800220000000004,-0.0040450367999999995,-0.00525211,6.816,0,0
0.012730840000000002,-0.01529088,0.0004521236000000001,-0.0024048934000000005,-0.00464043,6.817,0,0
0.012612662000000002,-0.004811419999999998,-9.809575999999999e-05,-0.0011259094000000002,-0.0036230360000000005,6.818,0,0
0.00882463,0.006728500000000004,-0.00032546176,0.00015572260000000005,-0.002314496,6.819,0,0
-0.0023830899999999983,0.017157800000000004,0.00025866064000000023,0.0013001126,-0.0010947460000000002,6.82,0,0
-0.014173929999999998,0.022677560000000003,0.0015652566400000002,0.0017904794000000001,6.246199999999989e-05,6.821,0,0
-0.017675738999999996,0.019790586000000006,0.00307964064,0.0016566694000000003,0.0010593,6.822,0,0
-0.016906635,0.012002166000000003,0.0033221200000000005,0.0012841054000000001,0.00187423,6.823,0,0
-0.015320448999999998,0.0036647539999999997,0.0002814480000000001,0.0008154958,0.0024109279999999997,6.824,0,0
-0.007214399,-0.005030766,-0.004923006000000001,-0.00019686619999999993,0.0021261662,6.825,0,0
0.004939881,-0.012218726,-0.008888416000000001,-0.0015631322000000001,0.0013999902000000001,6.826,0,0
0.010232250000000002,-0.013914572,-0.0100226246,-0.0025678296,0.0006768947999999999,6.827,0,0
0.00994392,-0.013159278000000002,-0.0078665126,-0.0031264856,0.00018059359999999998,6.828,0,0
0.011746812,-0.014025566000000001,-0.002713812600000001,-0.0030582019999999994,0.0004271676,6.829,0,0
0.012455398,-0.011650738,0.0031167754,-0.002070446,0.0013595874,6.83,0,0
0.0073341640000000015,-0.0032561579999999994,0.0067989974,-0.000797584,0.0023670654,6.831,0,0
0.0016420319999999999,0.004066542000000001,0.0069199299999999995,-0.00029392599999999996,0.0032737448000000006,6.832,0,0
-0.0009503859999999998,0.007597368000000002,0.003957725999999999,-0.000132692,0.003573746,6.833,0,0
-0.0025529940000000003,0.010388996000000001,0.0011137064,8.069400000000008e-06,0.0027509324000000003,6.834,0,0
-0.00338065,0.010500134000000001,0.0008125603999999997,0.0003601394,0.0023721964,6.835,0,0
-0.0034314999999999997,0.005996492000000002,0.0017432183999999999,0.0019631014,0.0031965424,6.836,0,0
-0.0031331259999999995,0.0006290280000000007,0.0026991004,0.0043469154,0.0037611924,6.837,0,0
-0.0011243540000000002,-0.0022546656,0.0035518783999999998,0.0061137094,0.0041533604,6.838,0,0
0.0009864280000000001,-0.0019904256000000003,0.003742798,0.007030946,0.004463236,6.839,0,0
-0.0002845679999999999,0.0011466664000000003,0.0021171040000000003,0.006798594,0.0034575020000000003,6.84,0,0
-0.002086994,0.0042338484,-0.0005353840000000002,0.004714178,0.0010983000000000004,6.841,0,0
-0.002219728,0.0059704764,-0.002467424,0.0016544200000000002,-0.001380888,6.842,0,0
-0.003834462,0.007447386,-0.00365388,-0.001088094,-0.003485124,6.843,0,0
-0.005757156,0.00826417,-0.004391012,-0.0035878520000000003,-0.0052551360000000005,6.844,0,0
-0.005413254,0.006766044000000001,-0.004198734,-0.006225332,-0.005845046,6.845,0,0
-0.0032324880000000004,0.004211528000000001,-0.0029714828599999997,-0.008208284,-0.0056464819999999995,6.846,0,0
3.992400000000021e-05,0.002442622,-0.0018338866599999998,-0.00906168,-0.005304318000000001,6.847,0,0
0.0026737,-0.00037691600000000014,-0.00096090466,-0.00925815,-0.004348708,6.848,0,0
0.0037570246000000005,-0.003944888,-0.00041281046,-0.008405244,-0.003211306,6.849,0,0
0.0046049567,-0.005805666,-0.0004030784600000001,-0.005751128,-0.0022683308,6.85,0,0
0.005331980700000001,-0.00660446,-0.00047124800000000007,-0.0019467660000000002,-0.0008917288000000001,6.851,0,0
0.005050840700000001,-0.008500578000000002,-0.00060245016,0.002440048,0.0010748492000000002,6.852,0,0
0.0044344587,-0.010071396,-0.00046421715999999996,0.007101604,0.0030540491999999997,6.853,0,0
0.0041403041000000005,-0.010560636000000002,0.00033623263999999994,0.010473858,0.0048161952,6.854,0,0
0.004446614000000001,-0.011829730000000002,0.00115380664,0.011817870000000001,0.005888488,6.855,0,0
0.0023995080000000003,-0.011602870000000001,0.00164762704,0.011482964000000002,0.00565826,6.856,0,0
-0.002700112,-0.007623330000000001,0.0019975110000000004,0.00970159,0.0043482634,6.857,0,0
-0.005220372,-0.0027009500000000014,0.0020729232,0.0067165060000000006,0.0025210954000000002,6.858,0,0
-0.004084118,0.0019721499999999993,0.0015141864000000002,0.0038316091999999993,0.0008377014000000001,6.859,0,0
-0.003119778,0.00820043,0.0007030044,0.0016874631999999996,-0.0007326826000000001,6.86,0,0
-0.0022998852,0.013389540000000002,1.3094399999999981e-05,-0.00027146680000000005,-0.0014978726000000003,6.861,0,0
0.0012352128000000001,0.014351520000000003,-0.0010439816,-0.0015292848,-0.000957198,6.862,0,0
0.0048172948,0.013813628,-0.0027201488,-0.0019932628000000003,-0.0004720078000000001,6.863,0,0
0.0038130188,0.013536384,-0.004213312,-0.0023317320000000004,-0.0002775024,6.864,0,0
0.0002520907999999998,0.010801504,-0.004960562,-0.00250063,0.0001663042,6.865,0,0
-0.0035037760000000005,0.005537402000000001,-0.0054614780000000005,-0.0019384274000000003,0.0005912482000000001,6.866,0,0
-0.008783994,0.000921902,-0.003941968,-0.0014954856000000002,7.088580000000003e-05,6.867,0,0
-0.013607434000000002,-0.003239266,-0.00036060599999999986,-0.0018682816,-0.0012687224,6.868,0,0
-0.013087134,-0.008858382000000001,0.002136786,-0.0024576156,-0.0027878238000000003,6.869,0,0
-0.006004553999999999,-0.014200642000000003,0.003217029632,-0.0034295076000000002,-0.0046093504,6.87,0,0
0.0034794860000000013,-0.01661616,0.004459551632,-0.004725544200000001,-0.0063095164,6.871,0,0
0.010325226000000002,-0.0145147516,0.005159597632,-0.0055910560000000005,-0.007159728000000001,6.872,0,0
0.011631188,-0.0087476916,0.004386677632,-0.005900042,-0.006849694,6.873,0,0
0.006866522000000001,-0.0030048535999999994,0.003691649632,-0.005491218,-0.005693244,6.874,0,0
-0.0022509379999999975,0.0014115324000000004,0.0038571530000000003,-0.003648976,-0.0036733257999999997,6.875,0,0
-0.011246257999999999,0.003859194400000001,0.0034859284000000007,-0.0010986739999999996,-0.0010808197999999998,6.876,0,0
-0.014365992,0.0019071840000000004,0.0014101744000000003,0.0012173040000000002,0.0007655682000000001,6.877,0,0
-0.008774174,-0.0043559160000000005,-0.0007395915999999999,0.0030502100000000002,0.0018863662000000003,6.878,0,0
0.003575526,-0.011266174,-0.0018262796,0.0041023000000000006,0.0031444942,6.879,0,0
0.016197626,-0.01390936,-0.0028738686,0.004594992000000001,0.003945782,6.88,0,0
0.023549386000000002,-0.009801642,-0.0035519659999999997,0.004337852,0.003560156,6.881,0,0
0.023764096000000002,-0.0014490199999999996,-0.0037967120000000003,0.0037012480000000007,0.0034740040000000006,6.882,0,0
0.017796176,0.008186260000000002,-0.004999006,0.004140744,0.0044968000000000004,6.883,0,0
0.008359088,0.017494700000000002,-0.006114784000000001,0.0052169420000000005,0.004932756,6.884,0,0
-0.00038909200000000006,0.022061726000000007,-0.005839332,0.005544448,0.0048553120000000005,6.885,0,0
-0.005176920000000001,0.018976231600000004,-0.005246827200000001,0.0052478740000000005,0.004600964,6.886,0,0
-0.006490002,0.012305909800000002,-0.0040815312,0.0045658308,0.0034103340000000005,6.887,0,0
-0.005590394,0.0060325358000000015,-0.00032195919999999977,0.0031788732,0.0016282160000000005,6.888,0,0
-0.004909648,0.0015471828000000003,0.0048260908,0.0010855131999999998,-0.00015046799999999996,6.889,0,0
-0.006873848,0.0007707948,0.007909780800000002,-0.0010070688000000001,-0.0020272479999999997,6.89,0,0
-0.00913058,0.0028785471999999996,0.008890178000000002,-0.0030909028000000007,-0.003908232,6.891,0,0
-0.009236074,0.005418489,0.008920702,-0.005476511600000001,-0.004730032,6.892,0,0
-0.009641153999999999,0.007780483,0.006744716000000001,-0.007858712,-0.005224738,6.893,0,0
-0.009669084,0.009831490000000002,0.0019927179999999997,-0.009981664000000001,-0.006225766000000001,6.894,0,0
-0.005954354,0.009303802,-0.00203318,-0.012433614,-0.007062868000000001,6.895,0,0
-0.001194066,0.005938436,-0.004263446000000001,-0.01505298,-0.007515388000000001,6.896,0,0
0.0011999200000000004,0.0019494200000000005,-0.005272936,-0.016386460000000002,-0.008205242000000001,6.897,0,0
0.0030528860000000003,-0.0032286600000000004,-0.0033730920000000003,-0.01632666,-0.00876772,6.898,0,0
0.0042095348,-0.008485434,0.0016340260000000004,-0.014389326000000001,-0.007061421400000001,6.899,0,0
0.0026925628000000006,-0.011368644,0.006504384,-0.00947792,-0.003502221400000001,6.9,0,0
0.0009988808,-0.012543616,0.009647386,-0.002327900000000001,0.00040954459999999995,6.901,0,0
0.0009647308000000001,-0.013950300000000002,0.011497648,0.0050526,0.0047872646,6.902,0,0
0.0007341026,-0.01404178,0.009406600000000001,0.011733740000000001,0.0087700166,6.903,0,0
-0.00029722820000000004,-0.01106992,0.003851816,0.016638146,0.011025776000000001,6.904,0,0
-0.0005439342000000001,-0.00759089,-0.0013041719999999997,0.01856976,0.01155788,6.905,0,0
-0.0013147322000000002,-0.004628274000000001,-0.005864598,0.01850034,0.011073716,6.906,0,0
-0.0031118322,-0.00135961,-0.01024235,0.01721882,0.009921454,6.907,0,0
-0.004091952,0.002054966,-0.012295872000000001,0.014247780000000002,0.008052880000000002,6.908,0,0
-0.003994892000000001,0.003678702,-0.012081996000000001,0.009617028000000001,0.0055911394,6.909,0,0
-0.0045679760000000005,0.004479812,-0.009533318,0.004349940000000002,0.0026585994000000003,6.91,0,0
-0.003812222,0.005368861999999999,-0.003973158,-0.0009792199999999998,-9.190599999999837e-06,6.911,0,0
0.0018277820000000005,0.0052537444,0.001491562,-0.005081302,-0.0014604332000000002,6.912,0,0
0.006615576,0.0054089664,0.00588434,-0.0064145022,-0.0017974768000000002,6.913,0,0
0.008026376,0.0042081994,0.009089874,-0.004811658199999999,-0.0010232782000000001,6.914,0,0
0.010336442000000001,-0.00015300060000000013,0.009022539999999999,-0.0008752901999999991,0.0019726218,6.915,0,0
0.011902286000000002,-0.0052614866,0.005651511999999999,0.0036020298000000004,0.0060866158,6.916,0,0
0.009504386,-0.009593533,0.001976182,0.0062273418,0.0078683344,6.917,0,0
0.008413406,-0.015570511,-0.0005290259999999999,0.0057680940000000005,0.007527874,6.918,0,0
0.01016934,-0.02066372,-0.0021094290000000003,0.0031940500000000004,0.005748052000000001,6.919,0,0
0.008587672000000001,-0.019934194000000002,-0.0025587034000000004,-0.000700522000000001,0.0011737719999999996,6.92,0,0
0.004810914,-0.015591008000000002,-0.0023421494,-0.005034062000000001,-0.004871488,6.921,0,0
0.000711494,-0.010686484,-0.0016576194000000003,-0.008014352,-0.009279122,6.922,0,0
-0.0050855860000000004,-0.0033323640000000013,-0.0016513774000000002,-0.00877704,-0.011282464,6.923,0,0
-0.010382406000000002,0.007905315999999999,-0.0021423164,-0.007981478,-0.01181113,6.924,0,0
-0.011800574000000001,0.018472049999999997,-0.002125042,-0.006860708,-0.010810273999999998,6.925,0,0
-0.011449630000000002,0.025983203999999996,-0.0020032886000000004,-0.004582831000000001,-0.008068604,6.926,0,0
-0.011790550000000002,0.031052879999999998,-0.0021252846000000005,-0.0008923829999999998,-0.004406958000000001,6.927,0,0
-0.01082137,0.030516589999999996,-0.0018212126,0.0020808210000000005,-0.0010778259999999998,6.928,0,0
-0.009778506000000001,0.022823793999999998,-0.0010825122000000002,0.0038051590000000007,0.0014589940000000001,6.929,0,0
-0.010435564000000001,0.012337874,-0.0007329622,0.005030575000000001,0.00291018,6.93,0,0
-0.009282348000000001,0.0022709940000000006,8.148640000000011e-05,0.004654952000000001,0.0031564622000000006,6.931,0,0
-0.004699388,-0.007165966,0.00032566240000000003,0.002302170000000001,0.0024311938000000006,6.932,0,0
-0.00024854800000000035,-0.012783476,-0.0012045016,-0.00018409800000000005,0.0009069397999999999,6.933,0,0
0.0033401299999999997,-0.013955620000000002,-0.003408346,-0.002019382,-0.0003871342,6.934,0,0
0.0064245280000000005,-0.013969316000000002,-0.004555114,-0.0029154320000000004,-0.0004983248,6.935,0,0
0.004738059999999999,-0.012558050000000001,-0.002571942,-0.002918794,-0.000549455,6.936,0,0
0.0009958219999999993,-0.0089127946,0.0020350380000000003,-0.002493262,-0.0012161346,6.937,0,0
0.001751642,-0.005249744200000001,0.0052788259999999995,-0.0016920059999999998,-0.0013230966,6.938,0,0
0.0043367399999999995,-0.0023595162,0.005386646,-0.0012327140000000002,-0.001164631,6.939,0,0
0.006560422,0.0010050198,0.0026310679999999994,-0.0012238654000000001,-0.0017594223999999998,6.94,0,0
0.009333416,0.0039360738,-0.0024399520000000004,-0.0012225994000000001,-0.0023333344,6.941,0,0
0.01139971,0.0055905244000000005,-0.004903954,-0.0014055634,-0.0020376483999999997,6.942,0,0
0.010062906,0.007405242,-0.0031456820000000008,-0.0015608614000000001,-0.0016281420000000002,6.943,0,0
0.005555178200000001,0.009398154,-0.000726892,-0.0014468756000000002,-0.0013727548,6.944,0,0
0.0024720544,0.009080152000000001,0.001997378,-0.0005924122,6.515120000000012e-05,6.945,0,0
0.0027766924000000004,0.006446423999999999,0.0042748156,0.0012480738,0.0024080892,6.946,0,0
0.0029664084000000004,0.004202802,0.0030577196000000006,0.0026441618,0.0039715692,6.947,0,0
0.0026425684,0.0014562120000000001,0.0015964576000000001,0.0032479338,0.0050618828000000005,6.948,0,0
0.0043202242,-0.0036807880000000004,0.0033616676000000007,0.003736498,0.005662162,6.949,0,0
0.005017064,-0.008192526,0.005023219600000001,0.0032504322,0.005369618,6.95,0,0
0.0041279124,-0.009789988,0.005577186000000001,0.0017988978000000003,0.004434192,6.951,0,0
0.0028051864000000004,-0.010449342,0.0051333792000000005,0.0007124838000000001,0.0030172468,6.952,0,0
-0.0021326896,-0.009762554,0.002711337200000001,0.00026736960000000014,0.0015739168,6.953,0,0
-0.0091060576,-0.006195204,-0.0005743428000000001,-0.0001690148,7.122800000000087e-06,6.954,0,0
-0.012998393600000002,-0.0029142240000000004,-0.0030314008000000003,-0.001173089,-0.0017657652,6.955,0,0
-0.015489673999999998,-0.0008425392000000004,-0.0049806268,-0.0020015746,-0.0035016711999999997,6.956,0,0
-0.017960200000000003,0.0018329608,-0.006476042,-0.0019642066000000002,-0.004614414000000001,6.957,0,0
-0.015500858,0.0023847512,-0.006772394,-0.0017207192,-0.005058692,6.958,0,0
-0.007068638,-0.0007650788000000003,-0.006339934,-0.0012749808,-0.004678582000000001,6.959,0,0
0.000377582,-0.0021862768000000003,-0.004900237799999999,-0.0006991807999999999,-0.004132074,6.96,0,0
0.0037506620000000005,0.0002467684000000002,-0.0028248778,-0.0007917308000000001,-0.00410135,6.961,0,0
0.006970667600000001,0.00030486839999999994,-0.0005975157999999998,-0.0017373668000000002,-0.0035352499999999998,6.962,0,0
0.0086304896,-0.0005802960000000001,0.0014702922,-0.003256146,-0.0031829939999999998,6.963,0,0
0.0063882416000000004,0.0023271460000000004,0.0027741202,-0.004359628000000001,-0.0031756300000000005,6.964,0,0
0.0039179456,0.0038980754,0.003102122,-0.00409581342,-0.002284458,6.965,0,0
0.005206305600000001,0.0005741294,0.0025150014,-0.0028371914200000002,-0.0010791639999999999,6.966,0,0
0.008132839999999999,-0.0014751746,0.0016743534000000003,-0.0008230434200000006,-0.00017301400000000003,6.967,0,0
0.009357440000000002,0.00045180740000000017,0.0014681534000000002,0.0017008505800000001,0.0010837060000000003,6.968,0,0
0.0084542602,0.0018423034000000001,0.0022499634000000004,0.00430235458,0.0027412779999999998,6.969,0,0
0.0048617642,0.002563862,0.0033640354000000006,0.006152678,0.0035311680000000003,6.97,0,0
0.0001740442,0.004239288000000001,0.004607614,0.006200314,0.0034614648000000003,6.971,0,0
-0.0044433318,0.005681908,0.005285204000000001,0.005112572,0.0033658338,6.972,0,0
-0.008773815800000001,0.006014666000000001,0.0035522039999999998,0.0035759179999999995,0.00272013,6.973,0,0
-0.012443388000000001,0.007450208000000001,-0.0001873739999999997,0.0016277858,0.0011785360000000002,6.974,0,0
-0.014102076000000002,0.009983838,-0.0036763280000000004,-0.00023120819999999996,0.0002562126,6.975,0,0
-0.014988135999999999,0.012032898,-0.0061962,-0.0011823562,0.0006262958000000001,6.976,0,0
-0.016359020000000002,0.013836592000000002,-0.0068041790000000005,-0.0012578642,0.0007579247999999999,6.977,0,0
-0.015008358,0.013145786,-0.004119108999999999,-0.0012074762,0.0010476446000000001,6.978,0,0
-0.009259396,0.008005778,0.00019649300000000006,-0.0016652520000000003,0.0020049986000000002,6.979,0,0
-6.955999999999803e-06,0.0005277580000000006,0.0027775910000000003,-0.002396534,0.0022683840000000005,6.98,0,0
0.009217664000000002,-0.0071833420000000005,0.003113767,-0.0023455340000000002,0.002078706,6.981,0,0
0.015198344000000003,-0.014876602000000003,0.0020852699999999997,-0.0015688860000000002,0.002338242,6.982,0,0
0.017170524,-0.020708748,-0.00033799999999999976,-7.912200000000005e-05,0.0027741940000000002,6.983,0,0
0.015390106000000002,-0.022996040000000002,-0.00231775326,0.00118837,0.0022384302000000005,6.984,0,0
0.01084787,-0.022181420000000004,-0.0020401092600000003,0.0009820900000000001,0.0009187322000000001,6.985,0,0
0.006312014,-0.019242616000000004,-0.00012892526000000005,-0.00037049200000000026,-0.0006067537999999999,6.986,0,0
0.002631338,-0.013528922,0.00083066934,-0.002178068,-0.0025365678,6.987,0,0
0.0011070519999999999,-0.006436542000000002,-0.0007266026599999998,-0.0037502639999999997,-0.0040593678,6.988,0,0
0.001698908,-0.00022618200000000012,-0.0035545314000000002,-0.003966394,-0.003713348,6.989,0,0
-0.0008329320000000002,0.0059297180000000005,-0.0074714534,-0.00121297,-0.001282528,6.99,0,0
-0.005108256,0.011123774000000001,-0.009844037400000002,0.0028007480000000005,0.0018914440000000002,6.991,0,0
-0.007195340000000001,0.01295692,-0.007279580000000002,0.005082680000000001,0.004395568,6.992,0,0
-0.008412590000000001,0.01206622,-0.002990816000000001,0.006015304000000001,0.005479416,6.993,0,0
-0.008542744,0.010601312000000002,0.0003327979999999998,0.006046002,0.0050393374,6.994,0,0
-0.005519304000000001,0.008336592,0.0042048499999999996,0.0041340806,0.0027394494000000003,6.995,0,0
-0.0019202959999999995,0.004952460200000001,0.007358922,0.0016809006000000001,0.00047466340000000003,6.996,0,0
0.001378986,0.0022242142000000005,0.008302101999999999,0.0005187526000000001,-0.0003347026,6.997,0,0
0.004867872,0.0008140142000000001,0.009259098,-0.0007690674,-0.0012210766,6.998,0,0
0.005296686,-0.0017787218000000003,0.009762116000000001,-0.0024779634000000003,-0.002180968,6.999,0,0
0.004200432,-0.0053161018,0.008847787200000002,-0.0032920220000000004,-0.002179266,7.0,0,0
0.004457998,-0.007197974,0.006935343000000001,-0.0032159662000000003,-0.0020904860000000003,7.001,0,0
0.005695882000000001,-0.008532966000000001,0.0037227318000000007,-0.0021132062,-0.0021470720000000003,7.002,0,0
0.0065139099999999995,-0.009291888000000002,0.0008320118,0.0003567457999999995,-0.000859798,7.003,0,0
0.0058720199999999995,-0.006730700000000001,-0.0005134242,0.0031954218,0.0007845539999999999,7.004,0,0
0.004222288000000001,-0.0025105260000000008,-0.0007553794,0.004355209800000001,0.0016393206,7.005,0,0
0.0010690140000000005,0.0006989100000000005,-0.0008312371999999999,0.003332906,0.001677793,7.006,0,0
-0.0054151320000000005,0.004458368000000001,-0.00148674,0.001333078,0.000634355,7.007,0,0
-0.013215092000000001,0.008533430000000002,-0.002567634,-0.001174604,-0.0009036830000000002,7.008,0,0
-0.017724982,0.010967566000000002,-0.003558234,-0.0034596800000000006,-0.002109637,7.009,0,0
-0.018214374,0.011697772000000002,-0.004444574000000001,-0.0038661244000000004,-0.0031353256,7.01,0,0
-0.013000873999999999,0.010923680000000002,-0.0051448940000000006,-0.0021362164000000004,-0.003498906,7.011,0,0
-0.0020001939999999994,0.008519696,-0.005071624,-0.0005537324,-0.0026410178,7.012,0,0
0.007988886,0.0053134442,-0.004328086000000001,3.0829599999999865e-05,-0.0015614978,7.013,0,0
0.013972386,0.0020330182,-0.0037467260000000006,0.0002702736,-0.0006803738,7.014,0,0
0.017582140000000003,-0.0015154018,-0.0033151360000000006,-0.000245952,0.00027925120000000007,7.015,0,0
0.016596086000000003,-0.0051926218,-0.0029590880000000003,-0.001123838,0.0010024572,7.016,0,0
0.012106136000000002,-0.0085856178,-0.003329606,-0.0015562624,0.000966471,7.017,0,0
0.010280076,-0.012058126,-0.00354162,-0.0014628112000000001,0.0004741881999999999,7.018,0,0
0.010377246,-0.014796720000000001,-0.0024164980000000004,-0.0010695372,3.3676000000000035e-05,7.019,0,0
0.007910636,-0.013764538,-0.00042600600000000004,-0.00029740999999999996,-9.01992e-05,7.02,0,0
0.003935930000000001,-0.009399842000000002,0.002286956,0.00038927800000000006,-0.00044495440000000004,7.021,0,0
-0.00051658,-0.0041525320000000004,0.005222498,0.0008334604000000001,-0.00033379280000000013,7.022,0,0
-0.00693748,0.001995188,0.006997004,0.0014148232,0.00048535799999999997,7.023,0,0
-0.013699550000000001,0.008061248,0.007414026000000001,0.0017668692000000002,0.0006532606000000001,7.024,0,0
-0.017901020000000004,0.010739006,0.006385267400000001,0.0014958776000000003,0.0004638168000000001,7.025,0,0
-0.02002998,0.010569570000000002,0.0038131094000000004,0.0006825335999999999,0.000855418,7.026,0,0
-0.021365540000000002,0.010229554000000002,0.0010312194,-3.482399999999938e-06,0.0012921484,7.027,0,0
-0.0199402,0.008626458,-0.0005934666000000001,-0.0006828824,0.0011421824,7.028,0,0
-0.016583684,0.005067388000000001,-0.0013432832,-0.0016579764000000002,0.001717526,7.029,0,0
-0.010184198,0.0013098580000000005,-0.0015980446000000003,-0.0019923680000000004,0.002380426,7.03,0,0
0.0014431419999999997,-0.0015184479999999997,-0.0016517406000000003,-0.001959328,0.0019438578000000003,7.031,0,0
0.012779462,-0.004914442,-0.0022143166000000002,-0.0023806700000000005,0.001149902,7.032,0,0
0.020320002,-0.008599286000000001,-0.0030538066000000003,-0.00248914,0.0001550180000000001,7.033,0,0
0.024810606000000002,-0.011484516000000002,-0.003282291,-0.002276848,-0.001242244,7.034,0,0
0.02477149,-0.015629046,-0.0016353989999999998,-0.0021851900000000005,-0.002355802,7.035,0,0
0.020258030000000003,-0.02168592,0.0012829150000000001,-0.001681381,-0.0030400538,7.036,0,0
0.014661324000000002,-0.024963839999999998,0.004105891,-0.000768837,-0.004122482,7.037,0,0
0.009565332600000002,-0.024158984,0.006376795,-9.295899999999999e-05,-0.004944274,7.038,0,0
0.0066588974000000006,-0.02020873,0.007203728000000001,0.0007595990000000001,-0.005000628,7.039,0,0
0.0030662033999999993,-0.00509803,0.005539603000000001,0.0017230090000000002,-0.00490783,7.04,0,0
-0.0028325566,0.01820133,0.0012423490000000004,0.002319306,-0.0041369252000000006,7.041,0,0
-0.007378670600000001,0.035000550000000005,-0.0026919409999999998,0.0030962740000000004,-0.0023855872000000003,7.042,0,0
-0.0113374192,0.044384454000000004,-0.004562629,0.00371259,-0.0007619732000000003,7.043,0,0
-0.014578504,0.048504240000000004,-0.005619753,0.004073248000000001,0.0004739427999999999,7.044,0,0
-0.013942968,0.039605006000000005,-0.0053975956,0.004061936,0.0016037688,7.045,0,0
-0.010352508,0.021077626000000002,-0.0033024196,0.0032485776,0.002281754,7.046,0,0
-0.0071185319999999995,0.006364646000000001,-0.0015644176,0.002090701,0.002354918,7.047,0,0
-0.0031416772,-0.003724734,-0.0015768936,0.0009495782,0.00259897,7.048,0,0
-5.606439999999996e-05,-0.011755174,-0.0018972116,-0.0003653938,0.003205972,7.049,0,0
0.00027346560000000007,-0.014725980000000001,-0.0018800474,-0.0013422258000000001,0.003312408,7.05,0,0
0.0007082856000000002,-0.013961520000000002,-0.0010451133999999998,-0.0014961574,0.0028912048,7.051,0,0
0.0023335896,-0.01501452,0.0005882306000000003,-0.0016765668,0.0024423254,7.052,0,0
0.0025358468,-0.016856600000000003,0.0021229306000000005,-0.001646287,0.0017112354000000003,7.053,0,0
0.000692114,-0.016503920000000002,0.0030485786000000003,-0.0012832274,0.00011358739999999998,7.054,0,0
-0.0003807880000000002,-0.01598393,0.002718084,-0.0010745854,-0.0011884226,7.055,0,0
-0.0025465220000000003,-0.013917724400000001,0.001282158,-0.0008310794000000001,-0.0017334854000000002,7.056,0,0
-0.006099324000000001,-0.007452464399999999,-0.0004957060000000001,-0.0006237659999999999,-0.002671298,7.057,0,0
-0.007234440000000001,0.00047627559999999973,-0.0013285804000000001,-0.0003948174,-0.0030857300000000005,7.058,0,0
-0.0051227220000000006,0.007846115600000002,-0.0009075824,-9.057860000000003e-05,-0.0022894272,7.059,0,0
-0.003871678,0.014584685600000001,-0.000780981,0.00031708020000000003,-0.0010884731999999998,7.06,0,0
-0.004567944000000001,0.01769606,-0.001264467,0.0006359082,7.87988000000001e-05,7.061,0,0
-0.0032330342,0.015480920800000002,-0.0016792769999999999,0.00027683480000000006,0.0013230048,7.062,0,0
-0.0014942982000000003,0.009820840800000001,-0.0031702885999999996,-0.0005685948000000001,0.0019643144,7.063,0,0
-0.0012838362000000005,0.0025790408,-0.0054113966,-0.0015236312000000002,0.0014362956,7.064,0,0
0.0006856158000000002,-0.0055622192,-0.006340372,-0.0028957740000000003,0.0012109776,7.065,0,0
0.0056557958,-0.011787679200000001,-0.0062891940000000006,-0.0037960960000000005,0.0018156736000000003,7.066,0,0
0.009607688,-0.01398688,-0.00488184,-0.0035112034000000006,0.0024485136000000005,7.067,0,0
0.010667776,-0.013420718000000002,-0.0015003640000000003,-0.0033003174000000002,0.00268736,7.068,0,0
0.011527662000000001,-0.01169127,0.0018804340000000003,-0.0026850254000000003,0.002963089,7.069,0,0
0.011480516,-0.008108309999999999,0.004029312,-0.0006331974,0.0025922847999999997,7.07,0,0
0.007845588,-0.003427585999999999,0.005241470000000001,0.0012101505999999999,0.0007477368000000002,7.071,0,0
0.00241751,-0.00049373,0.0050163105,0.002613112,-0.0007544912000000001,7.072,0,0
-0.00271065,0.0021851200000000005,0.0044540545,0.00431315,-0.0011802136,7.073,0,0
-0.0072332360000000005,0.005583052,0.0050152085,0.005571818,-0.0011964687999999998,7.074,0,0
-0.01002343,0.008067612,0.0051539885,0.005901688,-0.0013533006,7.075,0,0
-0.011360186000000001,0.009946508,0.0046737861000000006,0.00520152,-0.0013488666,7.076,0,0
-0.011481562000000002,0.011709312000000001,0.004563365000000001,0.00394029,-0.0011810726,7.077,0,0
-0.0083260296,0.011442106,0.0037126190000000003,0.0027151522000000003,-0.0012733142,7.078,0,0
-0.0031556796,0.008187253999999998,0.0018261770000000002,0.0013512982000000002,-0.0007038540000000002,7.079,0,0
0.0001340024000000004,0.0037285359999999997,0.0005976125999999998,2.7462800000000045e-05,0.0002848439999999999,7.08,0,0
0.0033677504000000002,-0.0013992920000000001,0.000676555,-0.0007426672,0.0009553879999999999,7.081,0,0
0.0087138244,-0.006772592,0.0013119975999999998,-0.0014871832,0.00171317,7.082,0,0
0.013102152000000002,-0.010040238,0.0014413796000000002,-0.0019662574,0.00253441,7.083,0,0
0.013707982000000002,-0.010087632000000001,0.0011617222,-0.0018497952,0.002286668,7.084,0,0
0.011764620000000002,-0.009485886,0.0011791932000000003,-0.0021224278,0.001767508,7.085,0,0
0.007846996000000002,-0.009193328,0.0009575412000000003,-0.0023463618,0.0018216200000000004,7.086,0,0
0.00012479600000000167,-0.006729852000000001,6.667200000000091e-06,-0.0017585072000000002,0.001058172,7.087,0,0
-0.008731944,-0.0032698040000000007,-0.0007403748000000001,-0.0013999858000000001,-6.968800000000004e-05,7.088,0,0
-0.014563664,-0.0010577340000000007,-0.0010909614,-0.001438554,-0.0008390760000000001,7.089,0,0
-0.015636998,0.0006637399999999997,-0.0018047699999999998,-0.0014380920000000002,-0.001600154,7.09,0,0
-0.012373490000000001,0.002445974,-0.002266522,-0.001371054,-0.002350704,7.091,0,0
-0.0081348158,0.004238304,-0.0024058440000000003,-0.0013128078,-0.002859366,7.092,0,0
-0.0055134838,0.005084524,-0.00270877,-0.0010829596,-0.00280457,7.093,0,0
-0.0045193638000000005,0.005011602,-0.0028217540000000005,-0.0002859795999999999,-0.002642216,7.094,0,0
-0.003215523,0.004952818000000001,-0.0021994364,0.0004607204000000002,-0.002361096,7.095,0,0
-0.000346631,0.004708086200000001,-0.0015342136000000004,0.0008048992000000002,-0.001637004,7.096,0,0
0.0041215348,0.0045328962,-0.0017528216,0.0007952982000000001,-0.0008853978000000001,7.097,0,0
0.0112826228,0.0042389402,-0.0022799816,0.0006352358000000001,-0.00048283519999999994,7.098,0,0
0.0193127428,0.0025033481999999995,-0.0024854096000000003,9.699880000000006e-05,-0.0003073338,7.099,0,0
0.0222944,9.704219999999973e-05,-0.0022553824,2.4048000000000418e-06,4.560460000000001e-05,7.1,0,0
0.019129064000000005,-0.0011462860000000003,-0.0016134292000000005,0.000401622,0.00027384060000000006,7.101,0,0
0.0144640338,-0.003136584,0.0003137808,0.0004105188,0.00048334,7.102,0,0
0.008068683800000002,-0.00541985,0.0027878108,0.0007678816000000001,0.0008423134,7.103,0,0
-9.245619999999994e-05,-0.0043085860000000005,0.0035825228000000006,0.0012992446000000002,0.0007216380000000001,7.104,0,0
-0.0047295302,-0.0011535420000000002,0.0032182472,0.0014810646000000002,0.00020146560000000005,7.105,0,0
-0.0065261241999999995,0.0016255520000000002,0.0024746164000000004,0.0015623646,-0.00014992580000000003,7.106,0,0
-0.009062634,0.005220134,0.0008516544000000002,0.001888642,-0.0005238134000000001,7.107,0,0
-0.011240684,0.009363748000000002,-0.0017400316000000002,0.0016422900000000002,-0.0008367094000000001,7.108,0,0
-0.011528324000000001,0.011735334,-0.0046513856,0.0009161836000000001,-0.00012757140000000007,7.109,0,0
-0.01295347,0.012909378,-0.007508900800000001,0.00044096719999999997,0.0005992946,7.11,0,0
-0.0156582,0.012965558,-0.009683022000000001,-2.5537599999999947e-06,0.000271258,7.111,0,0
-0.01577702,0.00958682,-0.008636684,-0.00049359776,0.0006431638000000001,7.112,0,0
-0.01499194,0.0030850599999999997,-0.004017370000000001,-0.00095046576,0.0016125218,7.113,0,0
-0.01071705,-0.004423,0.0011645299999999996,-0.00129267536,0.0018330738,7.114,0,0
0.00021768999999999955,-0.012424600000000001,0.005605136000000001,-0.00198553496,0.0019321118000000003,7.115,0,0
0.01115665,-0.019597118,0.009542642,-0.002820054,0.0021082440000000004,7.116,0,0
0.01619487,-0.02310092,0.010658978000000001,-0.002979862,0.0016798682000000002,7.117,0,0
0.019532474,-0.021748293999999998,0.008681564,-0.0027450160000000003,0.0004963022,7.118,0,0
0.022292644,-0.017284432000000002,0.007705112000000001,-0.0025771080000000003,-0.0005120658,7.119,0,0
0.017822864,-0.011471618000000001,0.00759369,-0.0019083580000000004,-0.0011499298000000001,7.12,0,0
0.008847843999999999,-0.004674796000000001,0.00572523,-0.0009339108000000001,-0.001426558,7.121,0,0
0.0022680240000000004,0.0009559299999999998,0.0025214800000000004,-0.0002871328,-0.0013222064000000002,7.122,0,0
-0.0027999400000000016,0.0039125240000000006,-0.001281106,0.00024807120000000006,-0.001260238,7.123,0,0
-0.01105016,0.006065148,-0.005020774,0.0011909092,-0.0012586000000000001,7.124,0,0
-0.01755986,0.008385814,-0.00711263,0.0020057132,-0.001481494,7.125,0,0
-0.017248976000000003,0.009709112,-0.007330008000000001,0.0021557520000000004,-0.00145757,7.126,0,0
-0.012246634000000001,0.011168866000000001,-0.006575012000000001,0.0020685806,-0.0012668711,7.127,0,0
-0.0036313740000000006,0.013543766,-0.0045484160000000004,0.0016482786000000002,-0.0012659448999999998,7.128,0,0
0.005529926,0.01491396,-0.0018351740000000002,0.0008195066000000002,-0.0008856889,7.129,0,0
0.012303306,0.014746100000000002,-0.0003298680000000001,-0.0002463194000000001,-0.00017637690000000004,7.13,0,0
0.016282362,0.013098994,-0.00010862399999999998,-0.0006899003999999999,0.00015075069999999997,7.131,0,0
0.01817196,0.007832633999999998,0.00024218000000000004,-0.000694305,0.0003313834,7.132,0,0
0.014712822,-0.0007099660000000002,0.00048188920000000017,-0.000841667,0.0008237348000000001,7.133,0,0
0.005844442,-0.007749006000000001,-0.0007162588,-0.0008412230000000001,0.0011128828,7.134,0,0
-0.0015228580000000002,-0.012373046000000002,-0.0022334627999999997,-0.0007101416000000001,0.0014212908000000002,7.135,0,0
-0.007360758,-0.01574862,-0.0026967947999999996,-0.0005006514000000001,0.0015645020000000002,7.136,0,0
-0.015843118000000003,-0.01607516,-0.0026958807999999997,-0.00014318940000000003,0.0010751928000000003,7.137,0,0
-0.02257832,-0.01349344,-0.0015252939999999997,0.0005209746,0.0005031048,7.138,0,0
-0.022636740000000002,-0.010590918000000001,0.0009130220000000001,0.0007795266,-0.00012263119999999996,7.139,0,0
-0.020196348000000003,-0.0065460200000000005,0.002287648,0.0012559772,-0.0008809982,7.14,0,0
-0.015434868,8.14399999999986e-05,0.002206804,0.0017336159999999999,-0.0015351750000000002,7.141,0,0
-0.004978327999999998,0.007943740000000001,0.0011995039999999999,0.0013701368000000002,-0.0014995750000000002,7.142,0,0
0.005260552000000001,0.01536006,-0.0007873500000000001,0.0012384288,-0.0009670729999999999,7.143,0,0
0.011460571999999999,0.018783318,-0.0016210320000000003,0.0015556448,-0.0005493776,7.144,0,0
0.01601116,0.016018518000000002,-0.00014510800000000013,0.0015872948,6.532740000000003e-05,7.145,0,0
0.016639556,0.008470978,0.002296766,0.0009759102,0.0011094034000000003,7.146,0,0
0.012250178,-0.001264621999999999,0.004935958,0.0003682574,0.0019021874000000002,7.147,0,0
0.009734532,-0.010975982,0.006354658,-0.0005098326000000002,0.0022042654000000005,7.148,0,0
0.011481091999999998,-0.018480542000000003,0.004233274,-0.0016860726000000003,0.0028504040000000004,7.149,0,0
0.011530931999999999,-0.02019026,-0.0004582660000000006,-0.0027678786000000007,0.0032979280000000003,7.15,0,0
0.009926566000000001,-0.016134738000000003,-0.005284916000000001,-0.00327387,0.0030355720000000003,7.151,0,0
0.008642802000000002,-0.01084507,-0.008675118,-0.003067268,0.0028168900000000007,7.152,0,0
0.003867068,-0.005624716000000001,-0.0089736506,-0.002633117,0.0024891620000000005,7.153,0,0
-0.0050012319999999996,0.0006897599999999999,-0.006654218600000001,-0.0017327370000000003,0.001473024,7.154,0,0
-0.011813212,0.00550604,-0.0015153186000000005,-0.000644655,0.00018582000000000017,7.155,0,0
-0.014594902000000002,0.007475197999999999,0.005488341400000001,0.0006232830000000001,-0.0005995200000000001,7.156,0,0
-0.0174248,0.00930971,0.0098352414,0.0019023389999999999,-0.001543942,7.157,0,0
-0.01809414,0.010121062,0.010659988,0.0029879859999999998,-0.0025482919999999997,7.158,0,0
-0.014323124000000001,0.007927342,0.010034562,0.0038188120000000004,-0.0027813440000000007,7.159,0,0
-0.010951578000000002,0.004102572,0.006940842000000001,0.004288898,-0.002836296,7.16,0,0
-0.0076950460000000005,0.0009959400000000003,0.0020647440000000003,0.004053774,-0.0029584520000000003,7.161,0,0
-0.0004718659999999996,0.00210098,-0.0010000100000000002,0.0031578156000000002,-0.0028828260000000002,7.162,0,0
0.007038094,0.007868034,-0.0025773540000000005,0.0022551221600000003,-0.002178704,7.163,0,0
0.010163258,0.014003958,-0.0034107700000000005,0.00110148016,-0.0012422020000000002,7.164,0,0
0.01140659,0.016624146,-0.0029243462,0.00010146816,-1.1334000000000214e-05,7.165,0,0
0.01151644,0.014658398,-0.0019363564000000003,-0.00075133784,0.0019148180000000002,7.166,0,0
0.009107548,0.007204998000000001,-0.00101989,-0.0016422574399999998,0.00349532,7.167,0,0
0.007426508,-0.003565962,0.00010416599999999988,-0.002006794,0.004115064,7.168,0,0
0.0072234280000000005,-0.011792542,0.001029406,-0.002008656,0.00449127,7.169,0,0
0.005307688000000001,-0.01481288,0.0014268581999999999,-0.0018404174000000001,0.0043669220000000005,7.17,0,0
0.0013339860000000005,-0.012631376,0.0018106284,-0.0016319180000000002,0.0029163832000000003,7.171,0,0
-0.0028936219999999998,-0.008083112,0.0016204665999999999,-0.001626922,0.0015315592000000003,7.172,0,0
-0.008947742000000002,-0.0033773860000000005,0.0003003086000000002,-0.00158839,0.0005204732000000002,7.173,0,0
-0.016312962,0.001419338,-0.0011614894,-0.001009264,-0.0013224208,7.174,0,0
-0.02080314,0.00444228,-0.0018471854,-0.0008082190000000001,-0.0031714808000000002,7.175,0,0
-0.021463500000000003,0.003728396,-0.0024074054,-0.0007255934000000001,-0.00374492,7.176,0,0
-0.019240444000000002,0.0006798519999999999,-0.0027233200000000004,0.0002118698,-0.004008996000000001,7.177,0,0
-0.014905288000000003,-0.0035391140000000003,-0.00217963,0.0003243598,-0.00431167,7.178,0,0
-0.005953448000000002,-0.011511998,-0.0014019802,-0.0006652702,-0.003778122,7.179,0,0
0.006125412,-0.01809848,-0.0007561222,-0.0012210218,-0.0029111400000000004,7.18,0,0
0.019406292000000002,-0.018164744,0.00025920580000000004,-0.0013941968,-0.0024858859999999997,7.181,0,0
0.032778836000000006,-0.016436248,0.0019047918000000001,-0.001906194,-0.0015051560000000001,7.182,0,0
0.037966780000000006,-0.012757412000000003,0.0030650578,-0.0015349666,0.0009508840000000001,7.183,0,0
0.032494106,-0.004014131999999999,0.0029990206000000004,8.47173999999997e-05,0.00345801,7.184,0,0
0.022232506000000006,0.0035992280000000003,0.0020800806,0.0012985514,0.0047783420000000005,7.185,0,0
0.010117226000000002,0.005389938,0.0007141026000000002,0.0020623934,0.0051772888,7.186,0,0
-0.0036993259999999993,0.00711504,-0.0008238194000000001,0.0027462054,0.0043676208,7.187,0,0
-0.012550006,0.009651704,-0.0017943456000000001,0.002545296,0.0013821408,7.188,0,0
-0.013482032000000001,0.010158624,-0.0020336622,0.0013203960000000002,-0.0020897232000000004,7.189,0,0
-0.012482312,0.011009103999999999,-0.0026542122,0.00029748600000000007,-0.004191001200000001,7.19,0,0
-0.013800352000000002,0.014314998000000002,-0.0037007042,-8.958080000000001e-05,-0.0053504500000000005,7.191,0,0
-0.015807540000000002,0.017643680000000002,-0.0044519162,-0.00024162720000000008,-0.005585874000000001,7.192,0,0
-0.014676798000000003,0.01794482,-0.004726673999999999,0.00018296079999999997,-0.004433062800000001,7.193,0,0
-0.0121216476,0.01713898,-0.003936946,0.0009784268,-0.0027616624000000004,7.194,0,0
-0.0074998875999999996,0.01535675,-0.0022882220000000003,0.0011152786000000001,-0.0013415084000000003,7.195,0,0
0.00011419240000000008,0.010006284,-0.0009595200000000001,0.00045303940000000005,0.0001518815999999999,7.196,0,0
0.0060182524,0.002892184,-0.0008684979999999999,-0.00035263420000000007,0.0011906276,7.197,0,0
0.0095703824,-0.0034644560000000003,-0.0026587359999999997,-0.0015320702,0.0018220724000000002,7.198,0,0
0.012691812000000002,-0.010418376,-0.00486279,-0.0028094822000000004,0.0023092800000000004,7.199,0,0
0.013025872,-0.016498406,-0.004789302,-0.0030172000000000003,0.00244392,7.2,0,0
0.010257214,-0.01887064,-0.0012869839999999993,-0.0028308120000000003,0.002368704,7.201,0,0
0.008296886,-0.01956348,0.006049466000000002,-0.0026130019999999997,0.0020489468,7.202,0,0
0.00566732,-0.019320000000000004,0.014097826,-0.0018360060000000003,0.0015019128,7.203,0,0
-0.00041823999999999984,-0.015133072000000001,0.01693718,-0.0008571740000000003,0.0008416026000000001,7.204,0,0
-0.006017359999999999,-0.008341556,0.014316800000000001,-0.00015551199999999996,3.321060000000003e-05,7.205,0,0
-0.008793348,-0.002887560000000001,0.0086693,0.0007431460000000001,-0.0007401154000000001,7.206,0,0
-0.01238518,0.00287358,0.0002302999999999997,0.0018445560000000002,-0.0012289682,7.207,0,0
-0.015823726,0.00981324,-0.007594658,0.002659624,-0.0016035702000000002,7.208,0,0
-0.015331726000000004,0.014226172000000002,-0.010156008,0.0034242120000000003,-0.0018040428000000003,7.209,0,0
-0.013090520000000001,0.014951536,-0.008588682,0.0034835120000000002,-0.0015725894,7.21,0,0
-0.010176642000000001,0.015127918,-0.0061591020000000005,0.0027383760000000003,-0.0016115874,7.211,0,0
-0.003765942000000002,0.014249692000000001,-0.0038786088000000007,0.0016173980000000001,-0.0013780374,7.212,0,0
0.0052409579999999996,0.0100633511308,-0.0016668848000000003,0.00023023599999999998,-0.0004343214,7.213,0,0
0.011852698,0.0059483567308,0.00012617720000000012,-0.0012564240000000001,-5.236400000000011e-05,7.214,0,0
0.015310171999999999,0.0026482787308,0.0009150226,-0.0022633740000000003,0.0006341626,7.215,0,0
0.016228628,-0.0029949792692,0.0010617256,-0.002429552,0.0019158946,7.216,0,0
0.01382412,-0.0090971532692,0.0005167144,-0.0018899194000000005,0.0025607946,7.217,0,0
0.009595282,-0.0136509524,-8.340760000000001e-05,-0.0008883254000000002,0.0026655306000000004,7.218,0,0
0.00516859,-0.018712158000000003,0.00013646639999999988,-0.0001838314000000001,0.0031350220000000003,7.219,0,0
-8.392999999999986e-05,-0.021601480000000003,0.000682769,0.000536412,0.003167194,7.22,0,0
-0.0063145580000000005,-0.018849314000000002,0.000834094,0.0012113100000000002,0.0024192792,7.221,0,0
-0.008741128,-0.013159214000000002,0.0008434579999999998,0.0010119006000000002,0.0019662338000000002,7.222,0,0
-0.008818624000000002,-0.005894794000000002,0.0005954920000000001,0.0005650202000000001,0.0010742358000000003,7.223,0,0
-0.011045572,0.003571186,-0.000548498,0.0006676462000000001,-0.0002352482000000001,7.224,0,0
-0.011521392000000002,0.012306826,-0.0015466160000000002,0.0005063142000000001,-0.0010952802000000002,7.225,0,0
-0.009827712,0.0168225,-0.0024164240000000003,0.00010005060000000003,-0.0016293134,7.226,0,0
-0.012515894000000001,0.01887594,-0.0032237100000000003,0.00011353200000000004,-0.002269444,7.227,0,0
-0.015797620000000002,0.01845706,-0.0037335940000000007,-0.00041657559999999996,-0.002989722,7.228,0,0
-0.00954486,0.013470266,-0.003960218,-0.0016260276000000001,-0.00366866,7.229,0,0
0.002310040000000001,0.007157508,-0.003229336,-0.002155315,-0.004183178,7.23,0,0
0.011896580000000002,0.0038591280000000007,-0.0008520419999999999,-0.0020847378,-0.00408542,7.231,0,0
0.020378200000000006,0.0007022984000000002,0.0017160900000000002,-0.0018482318000000001,-0.0033241485999999996,7.232,0,0
0.025316188000000007,-0.0026631835999999997,0.003043692,-0.0009774437999999998,-0.0019309065999999998,7.233,0,0
0.020834150000000003,-0.0024472816,0.004178682,0.0003954742000000001,-0.0002026445999999999,7.234,0,0
0.011216154000000002,-0.0027076896000000003,0.0031139480000000005,0.0018324322,0.0006778024,7.235,0,0
0.0014562740000000009,-0.0038496076000000003,-0.00025111199999999995,0.0024617166,0.0010846196,7.236,0,0
-0.0061404860000000006,-0.004342266000000001,-0.0039011640000000004,0.002932842,0.0009464640000000002,7.237,0,0
-0.011205814000000001,-0.0012549040000000007,-0.0040921078000000005,0.0032584500000000004,-1.784999999999992e-05,7.238,0,0
-0.0104506626,0.0006010859999999996,0.00027627019999999954,0.0019507700000000005,9.153000000000004e-05,7.239,0,0
-6.688660000000145e-05,-0.006899988,0.004680966199999999,-0.0007794699999999998,0.0010927670000000001,7.24,0,0
0.014456553399999999,-0.017779510000000002,0.009096452199999999,-0.004006546,0.0026995438000000003,7.241,0,0
0.027887353400000002,-0.027988202,0.0140138722,-0.007319496,0.005293866000000001,7.242,0,0
0.0383112734,-0.038609682,0.01534044,-0.00968171,0.007679434,7.243,0,0
0.041436820000000006,-0.043877000000000006,0.0106372624,-0.009534266,0.008781688000000001,7.244,0,0
0.031432122,-0.034873735,0.0043740624,-0.007463764,0.008881646,7.245,0,0
0.013056382000000002,-0.017334475000000002,-0.0015286376000000009,-0.003329172,0.007341712800000001,7.246,0,0
-0.007928978,0.0037740249999999986,-0.007110477600000001,0.0019773080000000005,0.0037905528000000003,7.247,0,0
-0.027977398,0.025653345,-0.0108819176,0.006551434000000001,8.484680000000024e-05,7.248,0,0
-0.044939858,0.043835965000000005,-0.012418390000000001,0.010580126000000002,-0.0038374012,7.249,0,0
-0.059055159999999995,0.057984179999999996,-0.011311256,0.013506272000000001,-0.0079710392,7.25,0,0
-0.06455242,0.06325438,-0.00943903,0.01453454,-0.010506976000000001,7.251,0,0
-0.060903820000000004,0.05852048000000001,-0.007292940000000001,0.013639734000000002,-0.011176402000000002,7.252,0,0
-0.0504595,0.045897136000000005,-0.005120491000000001,0.01125507,-0.01057579,7.253,0,0
-0.03158034,0.027514776000000005,-0.0030165589999999994,0.00722828,-0.008195154400000002,7.254,0,0
-0.006350139999999997,0.005294996,-0.0001548789999999999,0.0023586119999999995,-0.004276640400000001,7.255,0,0
0.01725264,-0.016205504000000003,0.002598869,-0.0021876479999999995,-0.00048558040000000035,7.256,0,0
0.03676896,-0.033301104000000005,0.0046476370000000005,-0.0066207819999999995,0.0030474696,7.257,0,0
0.05262586,-0.04611118,0.00610129,-0.010410538,0.0064433736,7.258,0,0
0.0598625,-0.05324124,0.006658138000000001,-0.012522228,0.008557838,7.259,0,0
0.05806676,-0.053244480000000004,0.005970288000000001,-0.012914340000000002,0.009151286,7.26,0,0
0.05144612,-0.04643282,0.004968588,-0.011917912000000001,0.008640496,7.261,0,0
0.039451536,-0.034248697999999994,0.0034575120000000003,-0.009275236,0.00715047,7.262,0,0
0.021136415999999998,-0.017778738000000002,0.0007200479999999998,-0.0048348900000000005,0.004422662000000001,7.263,0,0
0.00024347599999999942,0.0015534220000000005,-0.0016659860000000004,0.0001860099999999999,0.0008579160000000005,7.264,0,0
-0.020132204,0.022027682,-0.0028572240000000002,0.00471445,-0.0022950740000000002,7.265,0,0
-0.038172124,0.040847962,-0.0028698880000000006,0.008514161999999999,-0.004955748,7.266,0,0
-0.050385780000000005,0.0535211,-0.0017336960000000003,0.011154206000000002,-0.007433546,7.267,0,0
-0.05348468000000001,0.057291520000000005,-0.0002661084,0.012121040000000001,-0.008645844,7.268,0,0
-0.049523340000000006,0.051517560000000004,0.00023018160000000008,0.011202774000000002,-0.008181852,7.269,0,0
-0.04054474,0.035783680000000005,-0.0003377403999999997,0.00915158,-0.006892602,7.27,0,0
-0.025743150000000003,0.011111919999999999,-0.0008410007999999998,0.0057933640000000005,-0.00476191,7.271,0,0
-0.00850263,-0.01629534,-0.0008496267999999999,0.0013801400000000002,-0.0018565559999999999,7.272,0,0
0.00538151,-0.034911460000000005,-0.00019378639999999986,-0.00276924,0.001393048,7.273,0,0
0.017880729999999997,-0.0421059,0.0014367756000000001,-0.006532894000000001,0.004401622000000001,7.274,0,0
0.034119790000000004,-0.043456020000000005,0.0034192096000000005,-0.009838200000000002,0.0069015000000000005,7.275,0,0
0.04633936,-0.03756836000000001,0.004185826,-0.011716084000000002,0.008649732,7.276,0,0
0.04885432000000001,-0.024714060000000003,0.0033928318,-0.011634618000000001,0.009013116,7.277,0,0
0.04653910000000001,-0.013853246000000001,0.0017704738000000001,-0.010512804,0.008052888000000001,7.278,0,0
0.03742488800000001,-0.006112246,-0.0004610561999999999,-0.0081234146,0.005951108,7.279,0,0
0.017288368000000002,0.004297414000000001,-0.0029191582,-0.0044235046,0.002840244,7.28,0,0
-0.005271492,0.014078214000000002,-0.0042677262,-0.0011118866,-0.0008300840000000001,7.281,0,0
-0.022822632000000002,0.021195114,-0.0041546940000000004,0.0013408094000000002,-0.004007282000000001,7.282,0,0
-0.037712672,0.027307200000000004,-0.003531006,0.0036440194,-0.006728272,7.283,0,0
-0.04466014000000001,0.029176640000000004,-0.0026217320000000003,0.0049959,-0.008833332000000001,7.284,0,0
-0.04072722000000001,0.025751580000000003,-0.001481166,0.004694866,-0.009805298000000002,7.285,0,0
-0.03237207600000001,0.020853474000000004,-0.0009000661999999999,0.0039931778,-0.010068956000000002,7.286,0,0
-0.020792528000000005,0.015620062000000002,-0.0005205481999999998,0.0029238377999999997,-0.008974856,7.287,0,0
-0.004552228000000002,0.007050682000000001,0.0007550438000000001,0.0011425498000000001,-0.006530522000000001,7.288,0,0
0.010015352,-0.0033803380000000005,0.0023195058,-0.0005034382,-0.0033814820000000003,7.289,0,0
0.019449872,-0.013392738000000001,0.0034461938000000004,-0.0019176482000000002,3.92579999999997e-05,7.29,0,0
0.029662668000000003,-0.024044512000000004,0.0038781840000000002,-0.0032418300000000002,0.0035742700000000005,7.291,0,0
0.036983060000000005,-0.0324227,0.0038427500000000002,-0.0036184060000000002,0.0068359300000000005,7.292,0,0
0.035415379999999996,-0.033331120000000006,0.0038111819999999998,-0.0030817544,0.009022196000000001,7.293,0,0
0.030000374,-0.028355456000000005,0.003431136,-0.0020548864,0.009867738000000001,7.294,0,0
0.022450414000000002,-0.02021038,0.00318153,-0.00038164040000000007,0.009294226000000001,7.295,0,0
0.008801373999999999,-0.00814432,0.0030165540000000003,0.0014859836000000004,0.007897238000000001,7.296,0,0
-0.006282246000000001,0.0033780800000000008,0.001744276,0.0034541076000000003,0.0056123422,7.297,0,0
-0.015192486000000002,0.009704540000000001,-0.0003347939999999998,0.005069286,0.0027571362,7.298,0,0
-0.020683200000000002,0.013719076000000002,-0.0022259740000000004,0.006026360000000001,0.00017912219999999994,7.299,0,0
-0.025717540000000004,0.018342160000000003,-0.00391826,0.007087372,-0.0021135938,7.3,0,0
-0.02876296,0.020696899999999997,-0.004689068,0.00806499,-0.0037888558,7.301,0,0
-0.02968092,0.019522480000000002,-0.0037866638,0.007888442,-0.0044378479999999994,7.302,0,0
-0.02884658,0.017917484,-0.0021828598000000004,0.006652476000000001,-0.00441978,7.303,0,0
-0.023920952,0.016068647999999998,-0.00043699980000000004,0.004687482000000001,-0.004023534,7.304,0,0
-0.013362511999999997,0.010502642,0.0009953562,0.0017826940000000002,-0.002322862,7.305,0,0
0.0014315280000000005,0.001720841999999999,0.0016793422,-0.0010862180000000001,-0.00029370799999999984,7.306,0,0
0.018650848,-0.006021358000000001,0.001894206,-0.0036089740000000005,0.0007314800000000001,7.307,0,0
0.031889388000000005,-0.012761162000000001,0.00236482,-0.006304634000000001,0.001780684,7.308,0,0
0.03553028,-0.019570726000000004,0.003159896,-0.007998304000000001,0.00278509,7.309,0,0
0.031842618,-0.0231785,0.003459928,-0.008442442,0.002672486,7.31,0,0
0.02475942,-0.021691240000000004,0.002536854,-0.008508422,0.0020892354,7.311,0,0
0.014766862,-0.01700488,-0.0003934860000000002,-0.007557397999999999,0.0019819254,7.312,0,0
0.0034088020000000007,-0.00953088,-0.004935073999999999,-0.0054076552,0.0013133208,7.313,0,0
-0.0053043380000000005,3.3459999999999913e-05,-0.009845218000000001,-0.0026527232,-0.00021851719999999995,7.314,0,0
-0.011083216,0.009102680000000002,-0.012534084000000001,0.0004200527999999998,-0.0016075992,7.315,0,0
-0.017083358,0.016920980000000002,-0.010830936,0.0034864668,-0.0029916326,7.316,0,0
-0.02262758,0.02268106,-0.006200716,0.0058656868,-0.0048772946,7.317,0,0
-0.02347186,0.024087039999999997,-0.0010281140000000008,0.00733159,-0.0060105620000000005,7.318,0,0
-0.0207546,0.020710175999999997,0.004188014,0.00764188,-0.005578334,7.319,0,0
-0.016866868,0.014440342,0.007796248000000001,0.006363522,-0.004530403200000001,7.32,0,0
-0.009357728,0.005263582,0.007751412000000001,0.0036669520000000002,-0.0029750152,7.321,0,0
0.00031723199999999976,-0.006438458000000001,0.006177106000000001,0.00033434999999999997,-0.0008530812000000001,7.322,0,0
0.008189012,-0.017070938,0.005023692000000001,-0.002406358,0.0012452588,7.323,0,0
0.014942852,-0.024227614,0.0037839760000000005,-0.00456259,0.0027001308,7.324,0,0
0.02029434,-0.026210380000000002,0.0026197440000000002,-0.005790986000000001,0.00371587,7.325,0,0
0.021106060000000003,-0.022236642,0.001977742,-0.005450866,0.004120576,7.326,0,0
0.018505910000000004,-0.014911612000000001,0.001343643,-0.004274178,0.0036439671999999998,7.327,0,0
0.01591722,-0.0074542700000000016,0.0004404769999999999,-0.0030788412,0.0030211552,7.328,0,0
0.0111659744,-0.00048423399999999994,-0.00047925699999999997,-0.0015562932,0.0022279172,7.329,0,0
0.0031296144000000016,0.0054219260000000005,-0.002128819,0.00031343880000000003,0.0009983612,7.33,0,0
-0.004804905600000001,0.008674928,-0.004901705,0.0019092808,-0.0003233427999999999,7.331,0,0
-0.012312355600000002,0.010018618,-0.0074289,0.0035344128,-0.001128042,7.332,0,0
-0.020794025600000002,0.011481936,-0.008363552,0.005329380000000001,-0.002105838,7.333,0,0
-0.028663840000000003,0.01389118,-0.007483312000000001,0.006449634000000001,-0.0032342860000000003,7.334,0,0
-0.032449200000000004,0.01547764,-0.004211872,0.006583018,-0.0034949720000000007,7.335,0,0
-0.02878342,0.014637820000000001,0.0008456280000000006,0.00606031,-0.003205248,7.336,0,0
-0.016289699999999997,0.011932726,0.005249032000000001,0.004293082000000001,-0.0026207352000000004,7.337,0,0
-0.00015453999999999989,0.007870227999999998,0.007776324,0.0016952579999999998,-0.0015450112000000003,7.338,0,0
0.015300260000000001,0.002638228,0.007798088,-0.000964126,0.0001557787999999998,7.339,0,0
0.02972714,-0.003941452,0.00523689,-0.0035880520000000004,0.0013996508,7.34,0,0
0.036775440000000006,-0.010201252,0.0018127299999999998,-0.005680308,0.0023349808000000002,7.341,0,0
0.03256112,-0.013593738000000001,-0.00055221,-0.006899178000000001,0.0034093360000000002,7.342,0,0
0.023630442,-0.013808200000000001,-0.002290606,-0.007088934000000001,0.0034446040000000004,7.343,0,0
0.015572929999999997,-0.01294866,-0.004485942000000001,-0.006537742000000001,0.002570007,7.344,0,0
0.007492279999999999,-0.012163006,-0.0057367419999999995,-0.0054734560000000015,0.0021455310000000004,7.345,0,0
-0.0016200000000000003,-0.008399732000000002,-0.005691914,-0.00401002,0.001834273,7.346,0,0
-0.00959636,-0.0015780719999999998,-0.0044192960000000005,-0.0020495720000000004,0.00046565299999999995,7.347,0,0
-0.014585942000000001,0.004702528,-0.00017940199999999995,7.42999999999998e-05,-0.0003313230000000001,7.348,0,0
-0.01843913,0.010420228,0.004840652000000001,0.0019089980000000003,-0.000500402,7.349,0,0
-0.02089272,0.016977434000000003,0.0062946040000000005,0.00354186,-0.001162634,7.35,0,0
-0.017757426399999998,0.02130864,0.005487016,0.004557652000000001,-0.0014648574000000003,7.351,0,0
-0.0119286784,0.02059826,0.0034438360000000005,0.0051014039999999995,-0.0011153186000000001,7.352,0,0
-0.0083622244,0.017188424,-0.0013748879999999999,0.00529355,-0.0002641366,7.353,0,0
-0.0039687763999999995,0.012362404,-0.0050170580000000005,0.00446348,0.0006443994000000001,7.354,0,0
0.0017054836000000002,0.004670964,-0.004292294,0.00298354,0.0020647194,7.355,0,0
0.004899390000000001,-0.005233596,-0.0019051160000000005,0.00168066,0.0037976028,7.356,0,0
0.007653682,-0.014119036,0.00019459799999999982,4.182800000000005e-05,0.004247282,7.357,0,0
0.011830388,-0.0210343,0.0018981940000000002,-0.002430282,0.00352592,7.358,0,0
0.014236060000000002,-0.02550466,0.0028376900000000004,-0.004280736,0.0028895052,7.359,0,0
0.012591976000000001,-0.024722858,0.0026237622,-0.004910268000000001,0.0014668612000000001,7.36,0,0
0.008542590000000001,-0.01864721,0.0015941182000000001,-0.005395566,-0.0011362668000000002,7.361,0,0
0.003486716000000001,-0.010503952,0.0010730442,-0.005368624,-0.0022048168000000003,7.362,0,0
-0.003030504,-0.0019974920000000005,0.0006100830722,-0.0039653136,-0.0025043608000000005,7.363,0,0
-0.008799684,0.005498668,-0.0005418709278000001,-0.0020206755999999998,-0.0035047380000000003,7.364,0,0
-0.01272502,0.009590966,-0.0012257131278,-0.0007965156,-0.003817262,7.365,0,0
-0.014812074,0.010787426,-0.0016765171278000002,0.0006845044,-0.0038099180000000002,7.366,0,0
-0.013438798000000002,0.011380208000000001,-0.0032105471278,0.0024689884000000002,-0.004364496,7.367,0,0
-0.009829518000000002,0.011206568,-0.004601536000000001,0.003211172,-0.004554242,7.368,0,0
-0.007322456,0.010123534,-0.0041227698,0.0036327440000000003,-0.003827652,7.369,0,0
-0.005602214,0.009436206,-0.0031456058000000004,0.003915992,-0.003637312,7.37,0,0
-0.0012065760000000004,0.007792666,-0.0022234118,0.003314582,-0.003185874,7.371,0,0
0.004119862,0.003941062,0.0001583381999999999,0.002089022,-0.0019227112600000002,7.372,0,0
0.006809142000000001,0.00016780000000000007,0.0035628762000000005,0.0008941119999999999,-0.0010634152600000001,7.373,0,0
0.009300880000000001,-0.0027134100000000003,0.005121100000000001,-0.0006227240000000002,-0.0003205552600000001,7.374,0,0
0.012924138,-0.006189502,0.0047811748,-0.0019709740000000003,0.0009420687400000001,7.375,0,0
0.012367732,-0.008594230000000001,0.0038659468,-0.0025564340000000002,0.0022998347400000002,7.376,0,0
0.0074314663999999996,-0.008070032,0.0014432308000000005,-0.0028891800000000003,0.0028642940000000007,7.377,0,0
0.0055152644,-0.0072137139999999995,-0.0012127532,-0.0027722300000000005,0.0033133860000000006,7.378,0,0
0.0054192124,-0.006462872000000001,-0.0030604372,-0.0022408278,0.0036054400000000006,7.379,0,0
0.0026551404000000004,-0.002999728,-0.004239846,-0.0014103507000000003,0.003261916,7.38,0,0
0.00040646439999999996,0.001027448,-0.002671404,-0.0005373986999999999,0.002603082,7.381,0,0
-0.0006150980000000001,0.0028973740000000003,0.0006128880000000002,0.00017147870000000005,0.0021111534000000003,7.382,0,0
-0.003945836,0.005135038000000001,0.0019158920000000004,0.0008531787,0.0013177414000000002,7.383,0,0
-0.008235944,0.007395184000000001,0.00371509,0.0014120265000000002,-0.0001520426,7.384,0,0
-0.009389444,0.006481718000000001,0.0076930720000000005,0.0020977534,-0.0012047386,7.385,0,0
-0.009549031999999999,0.004194304,0.008938614000000001,0.0028661394000000003,-0.0019645906,7.386,0,0
-0.00923347,0.002696236,0.0070755702,0.003207132,-0.0025086920000000003,7.387,0,0
-0.00430941,5.2943999999999864e-05,0.005596830200000001,0.0029630719999999998,-0.0023913546000000003,7.388,0,0
0.0017267100000000007,-0.003259088,0.0039301822,0.0025532557999999998,-0.0016913484000000002,7.389,0,0
0.004384850000000001,-0.004714656,0.0012733182000000003,0.0018005386,-0.0007431164,7.39,0,0
0.006470044000000001,-0.005741012,-0.00032234380000000006,0.00032721659999999995,0.00037541960000000003,7.391,0,0
0.008229908000000001,-0.007410944,2.234600000000002e-05,-0.0008871614,0.0014371796,7.392,0,0
0.006015836000000001,-0.007792042,0.0008726478,-0.0015198854,0.0018340322000000003,7.393,0,0
0.00326359,-0.00687771,0.0007353798,-0.0021294872000000003,0.0019105286000000003,7.394,0,0
0.003615796,-0.006463428,-0.0007625242000000002,-0.0024938160000000003,0.0019237446000000002,7.395,0,0
0.00347723,-0.0051799226,-0.0033524222,-0.0021822308,0.0016169946000000003,7.396,0,0
0.0020475640000000004,-0.0018165485999999998,-0.006203126200000001,-0.0015689072,0.0008382514000000002,7.397,0,0
0.0017412468000000002,0.0007884594000000004,-0.00813169,-0.0008119952,0.0002288274000000001,7.398,0,0
0.0012284452000000004,0.0026198774,-0.0076719254000000014,0.00044994079999999997,0.00015496720000000006,7.399,0,0
-0.0008299868000000001,0.0048954794000000005,-0.004961691400000001,0.0021692008,-0.00014727679999999998,7.4,0,0
-0.0021150488000000003,0.006363586,-0.001851903400000001,0.0038128596000000002,-0.00043376080000000005,7.401,0,0
-0.0028940708,0.006670814000000001,0.0011080646000000002,0.004960614,-0.00021627980000000005,7.402,0,0
-0.0053548416,0.007433312,0.0025136946,0.0053533899999999995,-0.0002130438,7.403,0,0
-0.006609798,0.007936386,0.0005772739999999996,0.0044829564,-0.0006499522,7.404,0,0
-0.004889094,0.006186152,-0.002550814,0.0026923064,-0.0006054836,7.405,0,0
-0.0031725480000000007,0.00336999,-0.004155778,0.0010158011999999998,-0.0006630518000000001,7.406,0,0
-0.00028504599999999995,-5.941199999999957e-05,-0.00494183,-0.0002822368000000002,-0.0009940916,7.407,0,0
0.004854914,-0.004416668,-0.004209738,-0.0015871968000000002,-0.00039334760000000004,7.408,0,0
0.007872352,-0.008306864,-0.0014513300000000002,-0.0023314492000000003,0.0005018144,7.409,0,0
0.0069860902,-0.008635362,0.000993162,-0.0026366272,0.0007247438,7.41,0,0
0.005763180200000001,-0.006690946000000001,0.002563916,-0.00314458,0.000743976,7.411,0,0
0.0037102062000000002,-0.005525844,0.003665246,-0.003568654,0.00105108182,7.412,0,0
-0.0015186338,-0.00425399,0.003689454,-0.003631776,0.0006836866199999999,7.413,0,0
-0.0052230618,-0.0031954980000000006,0.0026926980000000003,-0.003234268,-0.0005058013800000001,7.414,0,0
-0.006381962,-0.0039029000000000004,0.0015922700000000002,-0.0029509240000000006,-0.0015101553800000002,7.415,0,0
-0.009365752,-0.0026769560000000003,0.0001354400000000003,-0.00274428,-0.00220451938,7.416,0,0
-0.01278379,0.0032151420000000007,-0.001359046,-0.002085292,-0.0029596532000000005,7.417,0,0
-0.010662522,0.007110128,-0.00218689,-0.0013646316,-0.0034659680000000003,7.418,0,0
-0.003948748,0.007570462000000002,-0.002756844,-0.0007513260000000001,-0.0029197984000000005,7.419,0,0
0.0005284479999999991,0.009165974000000002,-0.002939976,0.000516224,-0.0017441984,7.42,0,0
0.003521036,0.009304788000000001,-0.0024880728000000003,0.001921112,-0.0005341904000000001,7.421,0,0
0.00700285,0.004973506,-0.0029715528,0.002578246,0.0007455416,7.422,0,0
0.004673422,0.0024340786000000003,-0.0053350368,0.0031857276,0.0019178876000000003,7.423,0,0
-0.0032978580000000003,0.0034303746,-0.007458138800000001,0.0034476080000000004,0.002693546,7.424,0,0
-0.005765402,0.0017355026000000003,-0.008046122800000001,0.0026309562000000003,0.0028044880000000004,7.425,0,0
-0.0009646699999999991,-0.0014088074,-0.005530794,0.0014366562,0.002851918,7.426,0,0
0.003781176,-0.0016944854,0.0010641460000000002,0.0004898522000000002,0.00307935,7.427,0,0
0.008640036,-0.0006908480000000002,0.008355726,-0.0006219998,0.0031793439999999997,7.428,0,0
0.013231966,-0.0006880460000000003,0.013446866000000002,-0.0014129478,0.003026226,7.429,0,0
0.012697582,0.00037755180000000006,0.015687782,-0.0015618860000000002,0.002414715,7.43,0,0
0.00829119432,0.0012717998,0.013494866000000003,-0.0015543820000000002,0.0018263350000000003,7.431,0,0
0.00402368752,-0.00022551220000000015,0.007845922,-0.0011602054,0.0012339448000000001,7.432,0,0
0.0006195335200000001,-0.0018569962000000001,0.0031708580000000004,-0.0004957354000000001,8.963079999999994e-05,7.433,0,0
-0.00201621848,-0.0020618752000000004,0.0002901379999999999,0.00015866860000000003,-0.0012466492000000001,7.434,0,0
-0.0026857244800000003,-0.002219415,-0.0016708760000000002,0.0004635996000000001,-0.0017407482,7.435,0,0
-0.0032086308000000003,-0.002480223,-0.00273872,0.0006687252000000001,-0.0020641222,7.436,0,0
-0.00442534,-0.0011711550000000001,-0.00345961,0.0007263702,-0.002638468,7.437,0,0
-0.0040255280000000004,-0.00034256100000000007,-0.00339936,0.0007548082000000001,-0.001676508,7.438,0,0
-0.00219088,-0.0005988220000000002,-0.002459696,0.0011737802,0.0006640840000000001,7.439,0,0
-0.0007372760000000003,0.00018587199999999996,-0.0015096016000000002,0.0019586532,0.002549776,7.44,0,0
-0.0007562580000000003,0.001188592,-0.0007156372,0.0028825916,0.004096876000000001,7.441,0,0
-0.00157737,0.00087372,7.169259999999998e-05,0.003046158,0.00515204,7.442,0,0
-0.004377608000000001,0.000990524,-7.024339999999997e-05,0.002468056,0.004125448,7.443,0,0
-0.009044654000000001,0.00132032,-0.0009282894,0.00123668,0.001683056,7.444,0,0
-0.012281464000000002,-0.000804926,-0.0015032718,-0.00047544000000000004,-7.175399999999994e-05,7.445,0,0
-0.013879048000000001,-0.0033872060000000002,-0.0018044862000000002,-0.0019127200000000001,-0.000989472,7.446,0,0
-0.012553358,-0.005930950000000001,-0.0017628230000000002,-0.0025518480000000002,-0.001650338,7.447,0,0
-0.004448218000000001,-0.010129814000000001,-0.001110501,-0.002673874,-0.0015291559999999998,7.448,0,0
0.008146502000000002,-0.013132874000000001,-1.02250000000001e-05,-0.0026481060000000003,-0.001055158,7.449,0,0
0.017262062,-0.0113789086,0.0007957870000000001,-0.0023309340000000002,-0.001501984,7.45,0,0
0.019862154,-0.0058919686,0.0012379370000000002,-0.0025734900000000003,-0.002946476,7.451,0,0
0.018934114000000002,-0.00014694859999999981,0.001599086,-0.00344255,-0.0039228100000000005,7.452,0,0
0.015221374,0.004891199400000001,0.0013489862800000001,-0.003950414,-0.004507316000000001,7.453,0,0
0.007428288,0.008856029400000002,0.00063911828,-0.004211218,-0.00554268,7.454,0,0
-0.00023687600000000001,0.009512042000000002,0.00047635628,-0.004352436,-0.0058704840000000005,7.455,0,0
-0.001767526,0.007292674,9.002800000000415e-07,-0.0038391299999999996,-0.005231812000000001,7.456,0,0
-0.002076214,0.006949634,-0.00227808772,-0.0025413558,-0.004585894,7.457,0,0
-0.0067882540000000005,0.009092386000000001,-0.0052489,-0.0010745178,-0.0037620456000000005,7.458,0,0
-0.011954088,0.010350496,-0.007854786,0.0005540522,-0.0015733956000000002,7.459,0,0
-0.013914544000000001,0.011297402,-0.009360982,0.0026609702000000004,0.0012619264000000002,7.46,0,0
-0.011183404000000001,0.011817686,-0.006850926,0.004770890200000001,0.0038101704,7.461,0,0
-0.005294198000000001,0.009697306,-0.0005696860000000007,0.006157238,0.0063383664,7.462,0,0
0.00048196200000000006,0.005915696,0.005046414000000001,0.006559704000000001,0.008224190000000001,7.463,0,0
0.005762959999999999,0.002593596,0.008635132000000002,0.006177960000000001,0.008367432,7.464,0,0
0.009711649999999999,-0.0014383939999999997,0.009758628200000001,0.004703120000000001,0.007002838000000001,7.465,0,0
0.009039802000000001,-0.007259870000000001,0.006399458200000001,0.002351086,0.004757358000000001,7.466,0,0
0.005483854000000001,-0.01256671,0.0009338082000000002,1.2529999999999855e-05,0.00172389,7.467,0,0
0.004615528000000001,-0.0168237,-0.0024219138,-0.0017336760000000002,-0.0005379319999999999,7.468,0,0
0.0042616,-0.02020784,-0.0024492897999999997,-0.0021948079000000003,-0.001681784,7.469,0,0
0.001482476,-0.020884060000000003,-0.0004515459999999997,-0.0016234099000000002,-0.0026831260000000005,7.47,0,0
-0.00022517200000000005,-0.01906264,0.001394438,-0.0009405831000000001,-0.003220438,7.471,0,0
-0.0007325675999999997,-0.014626632,0.0031742460000000004,-0.0006306571000000001,-0.0030823400000000003,7.472,0,0
-0.0034978136,-0.005148772000000001,0.005170754,-0.0010714111000000004,-0.003704422,7.473,0,0
-0.0063702036,0.006604468000000001,0.005496332,-0.0023796892000000004,-0.004832960000000001,7.474,0,0
-0.0068144495999999995,0.015061168,0.004208342,-0.0041486932,-0.004595552,7.475,0,0
-0.0080371816,0.019824928000000002,0.0033437206,-0.005555592000000001,-0.0037388691999999998,7.476,0,0
-0.009791236,0.0198637948,0.0022763666000000004,-0.006572484000000001,-0.0034533532000000002,7.477,0,0
-0.008071554000000002,0.013938260800000003,0.00014510459999999984,-0.007142314,-0.0029223232,7.478,0,0
-0.003947972,0.007586762800000001,-0.0021136434000000003,-0.006688784,-0.0012113771999999999,7.479,0,0
-0.00048174399999999945,0.0045883228,-0.0037578114,-0.005049924,-9.33071999999999e-05,7.48,0,0
0.00326982,0.0028157468000000003,-0.00440074,-0.002687924,0.0005374740000000001,7.481,0,0
0.007304378,0.002647106,-0.0046441,0.0002740160000000006,0.0026113020000000002,7.482,0,0
0.008531864,0.0037063787999999996,-0.0045906820000000004,0.003975628,0.004931582,7.483,0,0
0.007930920000000001,0.0013710207999999998,-0.004130704000000001,0.007413482000000001,0.00598346,7.484,0,0
0.008289026,-0.0034362592000000006,-0.003938032,0.009792074,0.006565828,7.485,0,0
0.007838714,-0.0063354632000000004,-0.004378764,0.010813448000000002,0.006782128,7.486,0,0
0.004951876,-0.0080312972,-0.005319310000000001,0.010948218000000001,0.0052944884,7.487,0,0
0.0009198000000000001,-0.009975556,-0.005279482,0.010171032,0.0035363006000000002,7.488,0,0
-0.004761078,-0.01049922,-0.00401342,0.008480350000000001,0.0025577426,7.489,0,0
-0.012903172000000001,-0.007217487999999999,-0.0016128580000000004,0.006850714000000001,0.0014310182000000001,7.49,0,0
-0.019838498,-0.0017070279999999993,0.00283045,0.005423272,0.0004412612,7.491,0,0
-0.02130716,0.0018631100000000007,0.006859392000000001,0.0041543299999999995,0.00039155940000000006,7.492,0,0
-0.016846635999999998,0.004176152,0.007459930200000001,0.0031153154,0.00047090840000000005,7.493,0,0
-0.007449715999999999,0.006982948000000001,0.006122552200000001,0.0016289114,-0.0002811996,7.494,0,0
0.0036870640000000003,0.006703578000000001,0.0042583481999999995,-0.0004902446,-0.0008134212,7.495,0,0
0.011064675999999999,0.002702742,0.0010088482000000002,-0.0021366346000000003,-0.0010197302,7.496,0,0
0.013292188,-0.00039691200000000013,-0.0012992316,-0.0032805086,-0.0018378188,7.497,0,0
0.012555193999999999,-0.0024260600000000003,-0.0007796698,-0.004398974,-0.002841476,7.498,0,0
0.008450085999999999,-0.005125070000000001,0.0004257902,-0.005139624000000001,-0.00335491,7.499,0,0
0.004349938,-0.0064182580000000005,0.0009256254000000002,-0.005385754,-0.004115512,7.5,0,0
0.005429466,-0.00581618,0.0008437926,-0.005894284,-0.0052052800000000005,7.501,0,0
0.007229654,-0.005146096,0.0005850924000000002,-0.006212640000000001,-0.005605512000000001,7.502,0,0
0.005411570000000001,-0.003621056,0.00016458420000000002,-0.005634686,-0.005722756000000001,7.503,0,0
0.0029029859999999998,-0.0014334460000000001,-0.00016837759999999998,-0.004680202,-0.005682506000000001,7.504,0,0
0.0004077099999999995,-0.0008017604,-0.0001240506,-0.0033509208,-0.0046604540000000005,7.505,0,0
-0.00444182,-0.00047516940000000003,-0.0003083298,-0.0014494587999999999,-0.0031948957999999995,7.506,0,0
-0.006796784,0.0016290966000000002,-0.0007736858000000001,0.00021959519999999996,-0.0019194089999999997,7.507,0,0
-0.0040518460000000004,0.004961602600000001,-0.0010910576,0.0009584492,-0.000512039,7.508,0,0
-0.0025308640000000003,0.0085508266,-0.0013175294,0.0014646252,0.0008799910000000001,7.509,0,0
-0.0032837000000000005,0.011873887000000001,-0.0017517356000000001,0.0017074680000000002,0.002009391,7.51,0,0
-0.003125262,0.013964474000000001,-0.0019148196,0.0014782640000000002,0.0028875788,7.511,0,0
-0.0027176382,0.012397199999999999,-0.0016625336,0.0007216980000000001,0.0036945240000000002,7.512,0,0
-0.004523055000000001,0.00682652,-0.0021804976,7.226600000000008e-05,0.004544334000000001,7.513,0,0
-0.006023053000000001,-5.6159999999999544e-05,-0.004189118,-0.00036282999999999997,0.004643344,7.514,0,0
-0.003154775,-0.007200380000000001,-0.007472540000000001,-0.0013303380000000001,0.0040082,7.515,0,0
0.0014454770000000001,-0.01274202,-0.010841184,-0.001963316,0.0035593519999999996,7.516,0,0
0.0035599772,-0.013952608,-0.011633014,-0.002219668,0.0025257364,7.517,0,0
0.00525428,-0.011988938000000001,-0.00802078,-0.002601368,0.0008058503999999999,7.518,0,0
0.007718490000000001,-0.008866828000000002,-0.0015903799999999997,-0.0028584240000000005,-0.00012501159999999995,7.519,0,0
0.008352192,-0.004446096,0.005007020000000001,-0.002919694,-0.0010747696000000001,7.52,0,0
0.008563792,0.00010765599999999981,0.01102346,-0.003358968,-0.0028649516,7.521,0,0
0.008901392000000001,0.002807054,0.014170670000000002,-0.0037814619999999998,-0.003978402,7.522,0,0
0.006748850000000001,0.0037880260000000003,0.012443338000000002,-0.003707742,-0.004481106,7.523,0,0
0.003955428,0.004578948,0.009322557999999998,-0.003465302,-0.005068068,7.524,0,0
0.0016820899999999996,0.005303918,0.007349174,-0.0026745212,-0.0043378436,7.525,0,0
-0.002215484,0.0047924560000000005,0.005368972,-0.0009345491999999999,-0.0020706576000000003,7.526,0,0
-0.006535852,0.004560276,0.0036286467999999995,0.0013281148000000003,0.00029372040000000006,7.527,0,0
-0.00845276,0.005044010000000001,0.0030437047999999993,0.0029512028000000003,0.0025899404,7.528,0,0
-0.007571584000000001,0.0040094996,0.0021512648000000002,0.004010330800000001,0.004870408400000001,7.529,0,0
-0.007583276000000001,0.0023583796,0.0006924908000000001,0.004565448000000001,0.006051476000000001,7.53,0,0
-0.007778828,0.0014558676,-0.00013757120000000008,0.003875150000000001,0.006265058000000001,7.531,0,0
-0.00608584,6.75815999999997e-05,-0.00087448,0.0025754975800000007,0.006509242000000001,7.532,0,0
-0.003507076,-0.0022178904000000003,-0.0015755919999999998,0.0019293195800000002,0.006539882,7.533,0,0
-0.0004777300000000002,-0.004754952,-0.0016584169999999997,0.0016439315800000002,0.005584792000000001,7.534,0,0
0.002237206,-0.0076836940000000005,-0.001531517,0.00149924158,0.004123108,7.535,0,0
0.00379826,-0.010169352,-0.0008363258,0.00220877358,0.0032441780000000003,7.536,0,0
0.0018730399999999994,-0.010549818,0.0014672322000000002,0.003204032,0.0019054244,7.537,0,0
-0.0014409240000000005,-0.00877476,0.0034227662000000003,0.003575144,-8.606759999999999e-05,7.538,0,0
-0.0052178500000000004,-0.004920968,0.0032882032,0.003519096,-0.0011575156,7.539,0,0
-0.0073712840000000005,-0.00045103199999999987,0.0008742412000000001,0.0034831560000000003,-0.0019559116,7.54,0,0
-0.004096472000000001,0.0012811300000000005,-0.004158946,0.0029511340000000002,-0.0032383056,7.541,0,0
0.0025981680000000005,-0.0005220279999999999,-0.01021652,0.0020053596,-0.00391595,7.542,0,0
0.008412708000000001,-0.0016723799999999994,-0.014104468000000002,0.001316617,-0.004058438,7.543,0,0
0.012666312,-0.00047155199999999965,-0.013147076,0.000678583,-0.004745178000000001,7.544,0,0
0.016691880000000003,-3.888399999999945e-05,-0.006952396000000001,-0.0009284730000000001,-0.00549265,7.545,0,0
0.013716688000000001,0.0025493280000000004,0.0010282840000000004,-0.0030917190000000006,-0.0060416720000000005,7.546,0,0
0.005125187999999999,0.008861448000000001,0.006472146000000001,-0.0046239086000000006,-0.006601338,7.547,0,0
-0.000638552000000001,0.01051656,0.009127992000000001,-0.006126492000000001,-0.006492834,7.548,0,0
-0.00425644,0.00530186,0.008684142,-0.007211150000000001,-0.005786864,7.549,0,0
-0.00751568662,0.0011651959999999999,0.005441848,-0.006331488000000001,-0.004547186,7.55,0,0
-0.004443874620000001,-0.001571064,0.002653468,-0.004297768,-0.0032189998,7.551,0,0
0.00557932538,-0.005300706,0.001476056,-0.002759141,-0.00208594566,7.552,0,0
0.011233785379999998,-0.004296658,0.0008848589999999998,-0.0011207124000000002,-0.0010257736600000002,7.553,0,0
0.010594621379999999,0.0020717220000000007,7.472100000000003e-05,0.0004180596,-0.00053636086,7.554,0,0
0.006940887999999999,0.007686142000000001,-0.0009033390000000001,0.0010569396,0.00021604714,7.555,0,0
-0.0012343320000000007,0.010834508000000001,-0.002037643,0.0016029716000000001,0.00126617494,7.556,0,0
-0.011584072,0.012795944000000002,-0.003137687,0.0026004986,0.0018634528,7.557,0,0
-0.017839232000000003,0.01219688,-0.0036837579999999997,0.00380167,0.0025815368,7.558,0,0
-0.018713860000000002,0.008696562,-0.003648654,0.004738318,0.003926814,7.559,0,0
-0.01816666,0.005209533999999999,-0.003362472,0.005542260000000001,0.004688502,7.56,0,0
-0.0164563,0.0023649599999999997,-0.002688804,0.006430188000000001,0.004921592,7.561,0,0
-0.012517582000000001,-0.001971494,-0.0015088168,0.006643728000000001,0.00610122,7.562,0,0
-0.007528198,-0.006676039999999999,-0.000918747,0.005588638000000001,0.006929098,7.563,0,0
-0.000664118,-0.009684682,-0.0005832914,0.0035744160000000004,0.006406788,7.564,0,0
0.008713482,-0.012241133999999999,0.0004788226,0.0004403520000000002,0.0052740338,7.565,0,0
0.016480702,-0.01458214,0.0010301645999999999,-0.00377717,0.0035813958,7.566,0,0
0.019661244,-0.01512194,0.0006875974,-0.00726134,0.0008731218,7.567,0,0
0.0204489,-0.013980040000000001,0.0002678756000000001,-0.008885684,-0.0017243162000000001,7.568,0,0
0.017898352,-0.011994986,-0.0002723420000000002,-0.008825872,-0.0025222624,7.569,0,0
0.010627260000000001,-0.007785975999999999,-0.0006709560000000001,-0.006708686,-0.0020413782,7.57,0,0
0.0030445599999999995,-0.0015613759999999997,-0.0002772839999999998,-0.0037857300000000006,-0.0014765982,7.571,0,0
-0.0021615799999999998,0.004558384,-2.58392e-05,-0.0016675300000000004,-0.0007563782,7.572,0,0
-0.00784866,0.010852984,-0.0005110452,0.00036387400000000003,-0.00023481420000000003,7.573,0,0
-0.014656052,0.01709757,-0.0009286371999999998,0.0025410240000000002,-0.0006113760000000001,7.574,0,0
-0.01756356,0.020228600000000003,-0.0014493891999999998,0.0036020740000000002,-0.0013836080000000001,7.575,0,0
-0.017006514,0.02002206,-0.0018150172,0.0039028200000000004,-0.0020574400000000002,7.576,0,0
-0.017067654,0.018847004,-0.0008653979999999998,0.004223084,-0.00291345,7.577,0,0
-0.015943854,0.014187973999999999,0.0017707819999999998,0.0033401439999999998,-0.0037145940000000007,7.578,0,0
-0.009903666,0.004854113999999998,0.005104436,0.0013799559999999999,-0.0036532640000000007,7.579,0,0
-0.001116446,-0.004330606000000001,0.0075882400000000004,-0.0004746859999999999,-0.0034058966000000005,7.58,0,0
0.006364568,-0.011730146,0.008906598000000002,-0.001591502,-0.002561077,7.581,0,0
0.013779908,-0.01921145,0.008487168,-0.001032308,0.000409195,7.582,0,0
0.020293368,-0.02351402,0.004663208,0.001421738,0.004351373,7.583,0,0
0.02339654,-0.02203668,-0.0011619319999999992,0.004358334,0.007148953,7.584,0,0
0.02338646,-0.018489664,-0.005609171999999999,0.005949688000000001,0.0089047916,7.585,0,0
0.02015488,-0.013359036000000001,-0.008172668,0.006204974,0.009353462,7.586,0,0
0.013936938000000001,-0.004313316,-0.0087575482,0.004936548000000001,0.006998492,7.587,0,0
0.007084818000000001,0.005867524000000001,-0.00654504492,0.001544116,0.0030409139999999996,7.588,0,0
-0.00039302200000000025,0.013164304000000002,-0.00451830692,-0.0023995660000000005,-0.0005941439999999998,7.589,0,0
-0.010000282,0.018088268,-0.00602806692,-0.004939230000000001,-0.0037091480000000002,7.59,0,0
-0.017372982000000002,0.02060218,-0.010193578920000002,-0.005737478000000001,-0.005939268,7.591,0,0
-0.019320900000000002,0.01927828,-0.01420535872,-0.005264170000000001,-0.006420322,7.592,0,0
-0.017691250000000002,0.015039369999999998,-0.014633398000000002,-0.0035677220000000006,-0.005745016,7.593,0,0
-0.013607830000000001,0.0102463766,-0.009063296000000002,-0.0012780360000000002,-0.004729264,7.594,0,0
-0.007076240000000001,0.0055539686000000005,0.0014111640000000003,0.001050684,-0.0025989000000000003,7.595,0,0
-0.0003718559999999996,0.00039272859999999995,0.012387144000000001,0.00320577,0.0005713260000000003,7.596,0,0
0.0028947668,-0.0038064314,0.020713344,0.004294668000000001,0.003075154,7.597,0,0
0.0042243108000000005,-0.007719961399999999,0.023964240000000005,0.004205546,0.0049874820000000005,7.598,0,0
0.005602584800000001,-0.012677468,0.020650084000000003,0.0035322042000000007,0.006452282000000001,7.599,0,0
0.0056654368000000005,-0.015831159999999997,0.013517214,0.002350754200000001,0.006087564000000001,7.6,0,0
0.0054044348,-0.015773698,0.006795663999999999,0.00042344219999999985,0.0043373660000000005,7.601,0,0
0.006854203999999999,-0.014776992000000001,0.001955302,-0.0014155278,0.0024484120000000005,7.602,0,0
0.00663185,-0.011801661800000002,-0.0017748680000000002,-0.0023177278,0.00026658400000000005,7.603,0,0
0.003666354,-0.0058338598000000005,-0.0035518900000000003,-0.003157208,-0.0018933600000000002,7.604,0,0
0.0018388796,-0.0007888778,-0.0035319080000000003,-0.004349014,-0.0033429740000000003,7.605,0,0
-0.0007184723999999999,0.0021294421999999997,-0.0032063360000000006,-0.00552356,-0.005122596,7.606,0,0
-0.0059481044,0.0052218562,-0.0037619800000000003,-0.006924228000000001,-0.007592670000000001,7.607,0,0
-0.0101704044,0.008303426000000001,-0.005416809999999999,-0.008561762,-0.009767418,7.608,0,0
-0.010644204400000001,0.010179944000000002,-0.007484252,-0.009366942000000001,-0.010822648,7.609,0,0
-0.011389636,0.012102462000000001,-0.009540983999999999,-0.008210016,-0.010486556000000001,7.61,0,0
-0.013607626000000001,0.01381498,-0.009341236000000001,-0.00561035,-0.0084040346,7.611,0,0
-0.013177066000000001,0.012020062,-0.005366590000000001,-0.002263462,-0.004371908600000001,7.612,0,0
-0.011756246000000001,0.007190341999999999,3.569999999999615e-06,0.0015669780000000003,0.0005825714,7.613,0,0
-0.011592368000000002,0.0016392819999999997,0.0037936,0.004819688,0.0045323994,7.614,0,0
-0.008606544,-0.006066938000000001,0.006146108000000001,0.006454954,0.0068826074,7.615,0,0
0.0008754159999999995,-0.013925558000000001,0.00619276,0.006604619999999999,0.0080857,7.616,0,0
0.012762616000000001,-0.01811206,0.0028484340000000004,0.006372052,0.007499364,7.617,0,0
0.023165576,-0.020492120000000003,-0.0007119340000000001,0.005817765999999999,0.005778508,7.618,0,0
0.02959024,-0.019865204,-0.002152864,0.00485536,0.00427667,7.619,0,0
0.026781876000000003,-0.012008884000000001,-0.0023447480000000002,0.004001778,0.0028430518000000004,7.62,0,0
0.015942056000000003,-0.0020130040000000023,-0.002258892,0.003154394,0.0013264318000000002,7.621,0,0
0.005457306000000001,0.004438215999999998,-0.0014026860000000002,0.0020958514000000003,0.0002686538,7.622,0,0
-0.00269745,0.010245978,-0.00029936800000000005,0.0012267013999999999,-0.0006529261999999999,7.623,0,0
-0.01040867,0.014617661999999998,3.779400000000001e-05,0.0012147694,-0.0015974682,7.624,0,0
-0.011964586,0.013639421999999998,0.00046220180000000003,0.0013994734000000002,-0.001942364,7.625,0,0
-0.00791132,0.010907382,0.0009069478,0.0014329712,-0.00170652806,7.626,0,0
-0.0066218860000000004,0.010810462,0.0005190114,0.0012388118,-0.0014767522599999998,7.627,0,0
-0.0061687954,0.010691184000000001,-7.567459999999995e-05,0.0002535717999999999,-0.00144234626,7.628,0,0
-0.002456173400000001,0.0081790272,8.501800000000006e-05,-0.0013426001999999999,-0.00140215026,7.629,0,0
0.0006103765999999999,0.0051938212000000004,0.00013128080000000006,-0.0026051542000000002,-0.0014778442600000001,7.63,0,0
0.0020412586,0.0018168292000000006,-1.4902399999999988e-05,-0.0031860300000000003,-0.0019172262000000002,7.631,0,0
0.0039350486,-0.0031712308,0.00043421800000000005,-0.0041522220000000006,-0.002581868,7.632,0,0
0.00454618,-0.007609294799999999,0.0008130171999999999,-0.0052800239999999995,-0.0031302020000000003,7.633,0,0
0.0029858720000000005,-0.009126171999999998,0.0009840466000000001,-0.006112596,-0.003766004,7.634,0,0
0.0023513760000000005,-0.009349062,0.001285928,-0.006348816,-0.004006988,7.635,0,0
0.002955764,-0.009142908000000002,0.0019008212,-0.005194598,-0.002789248,7.636,0,0
0.002330914,-0.0064601419999999994,0.0023790832000000002,-0.0021357399999999997,-0.00028783,7.637,0,0
0.0020675199999999998,-0.0023643279999999997,0.0029681380000000004,0.0020536380000000004,0.0021260560000000003,7.638,0,0
0.002421352,0.0006917520000000003,0.0030218872,0.005547710000000001,0.004030352000000001,7.639,0,0
1.957999999999821e-06,0.0036745860000000005,0.0016704672000000002,0.0074492820000000015,0.004768955,7.64,0,0
-0.003761678,0.006597128000000001,-0.0004010328000000001,0.00716106,0.0034897090000000006,7.641,0,0
-0.005641044000000001,0.007234466000000001,-0.0038421388000000004,0.004988946000000001,0.0011440169999999998,7.642,0,0
-0.0073364020000000005,0.006568168000000001,-0.007172376800000001,0.0018980620000000003,-0.001002875,7.643,0,0
-0.008882822000000002,0.005500092000000001,-0.007307531800000001,-0.0009004460000000001,-0.002094629,7.644,0,0
-0.0073942240000000005,0.0022231920000000006,-0.004526705800000001,-0.0022129420000000003,-0.0020726684,7.645,0,0
-0.004934080600000001,-0.0014252299999999998,-0.0010714398000000007,-0.0019776100000000003,-0.0011361104,7.646,0,0
-0.0042796526,-0.002765834,0.0028078862,-0.0005537520000000002,0.0006420835999999999,7.647,0,0
-0.0026750604000000005,-0.002642172,0.005967714200000001,0.001853552,0.0032099996,7.648,0,0
0.0015734336000000002,-0.002551674,0.006009870400000001,0.004351818,0.0055155956,7.649,0,0
0.0067019156,-0.0024250219999999998,0.0037567703999999997,0.005617766000000001,0.006883810000000001,7.65,0,0
0.011316712200000002,-0.0019618500000000002,0.0014518772000000001,0.005247167400000001,0.0072821380000000005,7.651,0,0
0.014678606200000001,-0.0025265700000000006,0.0005069192000000001,0.0037716834000000006,0.006164032000000002,7.652,0,0
0.015322062000000001,-0.004635384000000001,0.0005389412,0.0012442773999999995,0.0037161560000000013,7.653,0,0
0.011627298000000001,-0.0057572560000000005,0.0005887096,-0.0020435386000000003,0.00029642000000000015,7.654,0,0
0.004517278,-0.005361712,0.00038809960000000014,-0.0053006466,-0.00308338,7.655,0,0
-0.004336282,-0.005773584,1.7888000000001276e-06,-0.007781898000000001,-0.005689068,7.656,0,0
-0.012840642000000001,-0.005656658,-0.0002975251999999999,-0.009267312,-0.008062008,7.657,0,0
-0.016540644,-0.005865512000000001,0.0001306368,-0.010101272,-0.010037598000000002,7.658,0,0
-0.015738324,-0.00674372,0.00119417,-0.009581516,-0.010351466000000002,7.659,0,0
-0.013813898000000002,-0.003067213999999999,0.001116934,-0.008122678,-0.009733942000000002,7.66,0,0
-0.008965072000000001,0.004779103999999999,-0.0007992620000000002,-0.00625837,-0.008965024000000002,7.661,0,0
-0.0017197539999999998,0.011151898,-0.0034224960000000006,-0.003679658,-0.005999454000000001,7.662,0,0
0.0020962619999999998,0.014378584000000002,-0.0074230480000000015,9.560800000000006e-05,-0.0010034540000000004,7.663,0,0
0.001923886,0.014842962000000001,-0.011900944,0.004912108,0.0041372100000000005,7.664,0,0
0.003617954,0.009859182000000001,-0.012238024,0.00942893,0.009800291999999999,7.665,0,0
0.008104648,0.0006278420000000009,-0.008120268,0.012911922,0.015157149999999998,7.666,0,0
0.01224205,-0.006949397999999999,-0.0027391280000000004,0.013842406000000002,0.0171784,7.667,0,0
0.015236074,-0.009333302,0.0034454320000000004,0.011526374400000003,0.015675297999999997,7.668,0,0
0.017371034,-0.007469514,0.010021772,0.0072323984,0.0124104002,7.669,0,0
0.014827138000000002,-0.0035001359999999996,0.013952416,0.0028648384000000008,0.0077063862,7.67,0,0
0.006108458000000001,0.001052978,0.01430764,-0.00033452199999999997,0.0027361962,7.671,0,0
-0.0030577220000000006,0.00390286,0.012652710000000001,-0.001898554,-0.00046804780000000025,7.672,0,0
-0.010442222000000001,0.0046616062,0.009802422,-0.0014488784000000002,-0.0020831458,7.673,0,0
-0.012549576000000002,0.0041934222000000005,0.006239694000000001,0.0001574756,-0.0031412040000000007,7.674,0,0
-0.007897094,0.0037610502000000002,0.0024434840000000005,0.0016988516000000001,-0.003264034,7.675,0,0
-0.0033493439999999998,0.005755036200000001,-0.001052762,0.0030413519999999998,-0.0024103520000000006,7.676,0,0
-0.0018303659999999997,0.009409754200000002,-0.004160378000000001,0.004802004,-0.001172894,7.677,0,0
-0.00042442599999999945,0.01089729,-0.006585930000000002,0.0056898520000000005,7.502000000000268e-06,7.678,0,0
-0.001734582,0.009204788,-0.008456822000000001,0.00436262,0.0005070700000000001,7.679,0,0
-0.007408302,0.004403221999999998,-0.009523518,0.0017504220000000008,-0.0004740479999999997,7.68,0,0
-0.011433192,-0.003466598000000001,-0.008463564000000002,-0.002529918,-0.0029766999999999997,7.681,0,0
-0.010346082,-0.012519838000000002,-0.005862870000000001,-0.008476724,-0.006179194,7.682,0,0
-0.006021522,-0.019182092,-0.0033145059999999996,-0.014125556000000001,-0.009460050000000001,7.683,0,0
-0.001277131999999999,-0.02159072,-0.0005311960000000001,-0.017875642,-0.011770882,7.684,0,0
0.005483108,-0.02011686,0.0029056900000000003,-0.0193248,-0.01258712,7.685,0,0
0.012739108,-0.014557846,0.004877716,-0.0190881,-0.012248752,7.686,0,0
0.014488024000000002,-0.0059656460000000015,0.00460406,-0.01693304,-0.011272470000000001,7.687,0,0
0.010986680000000002,0.002677914,0.0039208238,-0.01340122,-0.010068418000000003,7.688,0,0
0.007008410000000001,0.008591474,0.0030936996000000003,-0.010048886,-0.008569590000000002,7.689,0,0
0.0011686919999999998,0.012762754000000001,0.0013144735999999998,-0.006562962,-0.0065129488000000004,7.69,0,0
-0.006154808,0.01421466,-0.0003375958,-0.0018669740000000004,-0.0038146808000000003,7.691,0,0
-0.009478092,0.011635290000000001,-0.0003697138000000001,0.0037842660000000005,3.4357199999999685e-05,7.692,0,0
-0.009845712,0.008253858000000001,8.768239999999998e-05,0.009685686,0.0053387852000000005,7.693,0,0
-0.009850964000000002,0.006137667200000001,9.074840000000001e-05,0.015815072000000003,0.0106353972,7.694,0,0
-0.0059770859999999995,0.0050104772,-0.00034847960000000005,0.021291848000000002,0.015543235999999998,7.695,0,0
0.004710514000000001,0.0038744732000000003,-0.0024036042000000002,0.024318740000000005,0.02017922,7.696,0,0
0.014807734,0.0036384352000000007,-0.0061037382,0.023705020000000004,0.022684480000000003,7.697,0,0
0.020893918,0.0029753892000000007,-0.009894662200000001,0.020139702000000002,0.02239634,7.698,0,0
0.024145460000000004,-0.0004133000000000001,-0.01106432,0.014993185200000002,0.020234568,7.699,0,0
0.019952690000000002,-0.00570627,-0.007269606000000001,0.0091152436,0.016164030000000003,7.7,0,0
0.008874510000000002,-0.010661226000000001,-0.000544226000000001,0.0040303036,0.010521772,7.701,0,0
4.7698000000000315e-05,-0.014375798,0.005523973999999999,0.0005447715999999999,0.004642272000000001,7.702,0,0
-0.0031559379999999996,-0.0152748,0.01019696,-0.0012394164000000003,-0.0007851479999999998,7.703,0,0
-0.006192406,-0.010000046,0.0116455534,-0.0015212356000000001,-0.005509396,7.704,0,0
-0.008645976,-0.0024571259999999996,0.0088750674,-0.001778264,-0.008844538,7.705,0,0
-0.011097516,0.0035053339999999997,0.0060015234,-0.002692102,-0.010468034000000001,7.706,0,0
-0.019186364,0.009536614,0.0046310074,-0.0039322160000000005,-0.01075411,7.707,0,0
-0.031310428,0.014962934,0.0037960374000000005,-0.005451038000000001,-0.009763134000000001,7.708,0,0
-0.040011120000000004,0.01710112,0.003480294,-0.00713042,-0.0069901780000000005,7.709,0,0
-0.042522580000000004,0.01682894,0.0013104339999999994,-0.008393356,-0.0041024600000000005,7.71,0,0
-0.038528624,0.015589004000000004,-0.0030400420000000006,-0.009237642,-0.003496482,7.711,0,0
-0.024687424000000003,0.010961046000000002,-0.006029008000000001,-0.010517456,-0.004298326,7.712,0,0
-0.006093764000000001,0.004191846000000001,-0.007649993999999999,-0.011573668,-0.006106602000000001,7.713,0,0
0.009377876,-0.0030290340000000003,-0.008746896,-0.01188283,-0.009683518,7.714,0,0
0.022024916,-0.011143814000000002,-0.007637346000000001,-0.011664299999999999,-0.013204756000000002,7.715,0,0
0.029784559999999998,-0.017106758,-0.00547777,-0.010511488000000001,-0.01483638,7.716,0,0
0.029499220000000003,-0.019158760000000004,-0.0037618184000000007,-0.008054298000000001,-0.015416580000000003,7.717,0,0
0.02672524,-0.020115400000000002,-0.0014258924,-0.0049530012,-0.01497304,7.718,0,0
0.026050820000000002,-0.0200468,0.0010911756000000002,-0.0019296012000000005,-0.012840176000000002,7.719,0,0
0.023415120000000005,-0.015981870000000002,0.0022777496,0.0015765147999999996,-0.009726403800000002,7.72,0,0
0.019563920000000005,-0.009848138,0.0024643396,0.0045542268,-0.006183141800000001,7.721,0,0
0.01816026,-0.003662877999999999,0.00176711,0.0069922368,-0.0015978417999999999,7.722,0,0
0.015710940000000003,0.0035165219999999994,-0.0003208499999999999,0.0094926,0.0029737382,7.723,0,0
0.013713720000000002,0.010003442,-0.0025138319999999997,0.011038000000000001,0.0055971822,7.724,0,0
