bandpass 1,bandpass 2,bandpass 3,bandpass 4,bandpass 5,time,onset,mark
-0.00035930460000000006,0.002998674,-0.00084134,0.001429542,-0.001181268,6.22,0,0
-8.777060000000002e-05,0.0035590839999999997,-0.001346056,0.0003079159999999999,-0.0016812539999999999,6.221,0,0
-2.8168600000000027e-05,0.0035318249999999997,-0.001916348,-0.0004540820000000002,-0.001986618,6.222,0,0
0.0006101416,0.001383573,-0.0022671820000000004,-0.001843178,-0.0019148900000000003,6.223,0,0
0.0008947322,-0.000749105,-0.0027101879999999997,-0.004041904000000001,-0.001971402,6.224,0,0
0.0008948882000000002,-0.002344417,-0.002671,-0.004708484000000001,-0.0019359080000000003,6.225,0,0
0.00028671820000000006,-0.0035565430000000006,-0.0022687546,-0.003888704,-0.0016283502,6.226,0,0
-6.166379999999989e-05,-0.0034757350000000006,-0.0017785320000000002,-0.0036384360000000005,-0.0012198996,6.227,0,0
0.00020746600000000012,-0.0027264344,-0.001173842,-0.0025730056000000004,-0.00040928359999999997,6.228,0,0
1.9180200000000088e-05,-0.0019864504,-0.001162448,-0.00034090560000000017,0.0004943804000000001,6.229,0,0
-0.0001992601999999999,-0.0009291476000000002,-0.001625446,0.0010253783999999999,0.0011996044,6.23,0,0
0.00026727680000000005,-0.00010357280000000007,-0.0014472554,0.0017755463999999997,0.0016823826000000003,6.231,0,0
0.0005635912000000002,0.00012057819999999994,-0.000836856,0.0029351624,0.0017807,6.232,0,0
0.0001481818,0.0004754236,-0.00044657800000000005,0.003618146,0.001292673,6.233,0,0
-8.659240000000006e-05,0.00043693560000000005,0.0005687020000000001,0.002949976,0.0006808526,6.234,0,0
-0.00038442600000000005,0.0006399468000000001,0.0019681320000000005,0.0025618159999999997,0.0005820074,6.235,0,0
-0.0012607270000000001,0.001015588,0.0020123034000000006,0.002788456,0.0004573296,6.236,0,0
-0.0021769034,0.00012434000000000002,0.0010198874,0.001838756,0.00016210340000000006,6.237,0,0
-0.0021936888000000003,-0.000787926,0.0003469094000000002,0.00025189599999999993,0.00027375720000000003,6.238,0,0
-0.0015100168,-0.0008031500000000001,-0.0005309945999999999,-0.0002871460000000001,0.0003956016,6.239,0,0
-0.0008174908,-4.408400000000001e-05,-0.0019498046,-0.0015131780000000002,0.00010567560000000002,6.24,0,0
0.00045093120000000013,0.0009025820000000001,-0.002595462,-0.0034120100000000005,0.0001008688,6.241,0,0
0.0015895032,0.001287504,-0.0024770400000000002,-0.0035419260000000004,0.0003729128,6.242,0,0
0.0018044414,0.001132792,-0.0025728440000000003,-0.003124864,5.0446799999999945e-05,6.243,0,0
0.0011136374000000004,0.0007962540000000001,-0.0027941800000000003,-0.0032282140000000005,-0.0002766972000000001,6.244,0,0
-0.0004154406,-0.000562542,-0.00252524,-0.0021899114000000003,-0.00014644000000000004,6.245,0,0
-0.0015402666,-0.0018078740000000001,-0.0016573620000000001,-0.00038338940000000007,-0.00016529020000000003,6.246,0,0
-0.0014005986,-0.0015858480000000002,-0.000988834,0.0004978086,-0.0002604508,6.247,0,0
-0.000588758,-0.0013264220000000003,-9.929199999999996e-05,0.0014698146,7.481160000000003e-05,6.248,0,0
0.0002450639999999999,-0.00020197000000000005,0.0012973440000000002,0.0027894906,0.00038479960000000006,6.249,0,0
0.0015103606000000003,0.0012779520000000002,0.0022689480000000002,0.0032380000000000004,2.551560000000003e-05,6.25,0,0
0.0024091466000000002,0.00147257,0.00283134,0.00320527,-0.000273986,6.251,0,0
0.0021743482,0.002207764,0.003112936,0.0031548060000000005,-0.0004991495999999999,6.252,0,0
0.0012742908,0.00393072,0.0030197260000000004,0.0022544020000000004,-0.0009128348,6.253,0,0
0.0007283788000000001,0.004181410000000001,0.002815834,0.0005251040000000001,-0.000705516,6.254,0,0
0.000633674,0.0037448740000000005,0.00269652,-0.00102201,5.642800000000008e-05,6.255,0,0
-0.00024338799999999998,0.004241994000000001,0.0019468110000000001,-0.00251606,0.00041061700000000006,6.256,0,0
-0.0009789336000000002,0.0035607174000000003,0.001286886,-0.004100024000000001,0.0006727186000000001,6.257,0,0
-0.0008504944,0.0015299534000000003,0.0013048259999999998,-0.004993906,0.0012857986,6.258,0,0
-0.00036593439999999997,0.0002711394,0.0010315020000000001,-0.004659258,0.0013797998000000002,6.259,0,0
0.0004237498000000001,-0.0010117926,0.000805402,-0.004141798000000001,0.0010048894,6.26,0,0
0.0020414198000000003,-0.0031571326,0.0007883192,-0.0037419980000000007,0.0010454868000000003,6.261,0,0
0.0032359138000000003,-0.004259976,0.0007705962,-0.0022544080000000007,0.0012216816000000003,6.262,0,0
0.0029096867999999997,-0.004189998,0.0005668254,-0.0007465600000000003,0.0007942439999999999,6.263,0,0
0.0020153108000000005,-0.004086022,0.00013860939999999993,-0.0001322996000000001,0.0004571612000000001,6.264,0,0
0.00017047679999999997,-0.0032699520000000004,-2.330400000000004e-05,0.0011812584,0.0005154256,6.265,0,0
-0.0019017712,-0.0011745240000000001,0.0001792598,0.0030540804,4.772560000000002e-05,6.266,0,0
-0.0028489412000000003,0.0007899179999999999,0.00033355080000000006,0.0036201144,-0.0006170364000000001,6.267,0,0
-0.0033254900000000004,0.002035292,0.00025233722000000004,0.0039349324000000005,-0.0006557484,6.268,0,0
-0.0037939440000000005,0.003091314,4.8337219999999956e-05,0.004642098000000001,-0.0004640514000000001,6.269,0,0
-0.003162104,0.0029532292,-0.00030609338000000007,0.0038506350000000007,-0.000661298,6.27,0,0
-0.0019215500000000002,0.0016235932,-0.0006514293800000001,0.0024400708,-0.000782028,6.271,0,0
-0.0016793520000000005,5.730719999999989e-05,-0.0006682195800000001,0.0018862108000000004,-0.0004889328,6.272,0,0
-0.0014930380000000004,-0.0014782868,-0.0004910938000000002,0.0008429048000000003,-0.0005598942000000001,6.273,0,0
-0.0002971560000000001,-0.0029168448,3.144920000000002e-05,-0.0010297152,-0.0010634024,6.274,0,0
0.0012681000000000003,-0.00403144,0.00034690965200000006,-0.0017859882,-0.0011763758,6.275,0,0
0.0022518440000000002,-0.00456089,0.00017890745200000002,-0.0020499480000000002,-0.0008319457999999999,6.276,0,0
0.0027518660000000004,-0.004097948,-0.00020564734800000004,-0.0031467319999999993,-0.000450775,6.277,0,0
0.0031318040000000006,-0.0030557177999999997,-0.0010153047480000001,-0.0031585679999999996,2.008000000000012e-06,6.278,0,0
0.0025664144000000005,-0.0021641264,-0.0014542817480000002,-0.0016303720000000002,0.0005420112000000001,6.279,0,0
0.0011858942000000003,-0.0010508088,-0.0018059682,-0.0007788740000000001,0.0010498532,6.28,0,0
-0.0001498366,-6.119800000000002e-06,-0.002436244,-0.00034781840000000004,0.0014287912,6.281,0,0
-0.0010333846,0.0007763742000000001,-0.002994568,0.0013042616000000001,0.0014263952,6.282,0,0
-0.0011434556,0.00158692,-0.0029848500000000003,0.0027030296000000002,0.00110471,6.283,0,0
-0.0007504279999999999,0.0021531646,-0.0026990286000000002,0.0028004856000000003,0.000750943,6.284,0,0
-0.0006785971999999999,0.0025197550000000003,-0.0024664696000000004,0.0032035336000000004,0.0005334512000000001,6.285,0,0
-0.0010758004000000002,0.00335178,-0.0016043244000000002,0.0036521620000000005,6.22116e-05,6.286,0,0
-0.0008786244000000001,0.003970908,-6.986040000000007e-05,0.0025981846000000005,-0.0007101944000000001,6.287,0,0
-0.00033954940000000005,0.0032608220000000005,0.0012800636000000001,0.0009166726000000002,-0.0011423052000000002,6.288,0,0
-0.0001518774000000001,0.0018183120000000003,0.0016862602000000003,-0.00017985739999999987,-0.0014696174,6.289,0,0
-0.00015375180000000012,0.0009008660000000001,0.0022165052,-0.0017734914,-0.0021656716,6.29,0,0
-0.0003301158,0.0005740260000000002,0.0028575480000000006,-0.0036964474000000004,-0.00233619,6.291,0,0
-0.00014226279999999993,-4.95999999999895e-07,0.002751172,-0.0037887240000000003,-0.0017039352000000002,6.292,0,0
0.0006980491999999999,-0.0006805719999999998,0.002245964,-0.0031721986,-0.001094525,6.293,0,0
0.0016726032,-0.0008599199999999999,0.0018331964000000002,-0.0030814486,-0.00011854900000000002,6.294,0,0
0.002726399,-0.0011184199999999997,0.0013645526000000002,-0.0020174084,0.001211833,6.295,0,0
0.003875337,-0.001989736,0.0006378380000000001,-0.00022700640000000006,0.0018983049999999999,6.296,0,0
0.0040066022,-0.002393304,0.00020555240000000004,0.0005386875999999999,0.0019109942000000001,6.297,0,0
0.0027278306000000003,-0.0026049280000000003,7.743220000000001e-05,0.0012542182000000002,0.0019005222,6.298,0,0
0.0010543485999999999,-0.002923568,9.55816e-05,0.0031255902,0.0016896142000000002,6.299,0,0
-0.0008386514000000001,-0.002682676,0.00016133931999999998,0.00429838,0.0012436742000000002,6.3,0,0
-0.0028930214,-0.002276588,0.00025356772,0.0045753980000000005,0.0009190198000000001,6.301,0,0
-0.0040255716000000006,-0.001075618,0.00044131932,0.004869394000000001,0.0007895010000000002,6.302,0,0
-0.004141564800000001,0.001852424,0.00037485792,0.004417446,0.00041559880000000026,6.303,0,0
-0.00382510476,0.004707302,0.00030379051999999995,0.002345484,-0.00040168120000000005,6.304,0,0
-0.00263334476,0.005934038,0.00037840419999999995,0.0001290000000000001,-0.0007696010000000001,6.305,0,0
-0.0005430767600000002,0.006478834,0.00026840360000000005,-0.001547958,-0.0010049520000000001,6.306,0,0
0.0013975472400000002,0.0052041674,0.00017109360000000002,-0.0035698120000000003,-0.0015439392000000003,6.307,0,0
0.0024977620400000004,0.0021996714,0.00021062520000000002,-0.004524274000000001,-0.0017890932,6.308,0,0
0.00285381,-0.0002315466,-2.4653199999999983e-05,-0.004050198,-0.0014224354,6.309,0,0
0.0025979869602000003,-0.0017111486,-0.0003511908,-0.0036168960000000005,-0.0012016516,6.31,0,0
0.0019206049602000003,-0.0031105366,-0.000482249,-0.0033271660000000003,-0.0010868990000000001,6.311,0,0
0.0007821849602000002,-0.004480138,-0.001201571,-0.0022223202000000004,-0.00014943699999999999,6.312,0,0
-0.0005087790398,-0.004546654000000001,-0.0020319550000000002,-0.0013048182000000002,0.000688833,6.313,0,0
-0.0011486390398,-0.003972376,-0.002099679,-0.0011103416000000001,0.0008634172,6.314,0,0
-0.001506714,-0.0032544242,-0.002287249,0.00015603840000000008,0.0011636352000000002,6.315,0,0
-0.00164408,-0.0018972142000000002,-0.002748052,0.0022097344000000002,0.0013786496,6.316,0,0
-0.0016129100000000002,9.526780000000028e-05,-0.0022892628,0.0032756646000000004,0.0006530536,6.317,0,0
-0.001899574,0.0019052218,-0.0011967888,0.0038320826000000003,7.083960000000005e-05,6.318,0,0
-0.0024044620000000004,0.0031752838,-0.0007832048,0.004382686,1.6486199999999978e-05,6.319,0,0
-0.002574512,0.00408489,-0.0006004508,0.0034811744,-0.0007513258,6.32,0,0
-0.0021846890000000005,0.0038275700000000006,-0.00011657479999999996,0.0014458144000000003,-0.0015137954000000002,6.321,0,0
-0.0017637396000000003,0.0029457554000000006,9.535380000000009e-05,-0.00011267360000000008,-0.0016021074,6.322,0,0
-0.0010489298000000001,0.002101108,0.0002322938,-0.0016366536,-0.0016736714000000002,6.323,0,0
-0.00039353360000000004,0.001149316,0.0009180858000000001,-0.0033826956,-0.0017716246,6.324,0,0
-0.00011766959999999998,-0.00025999599999999997,0.0016994738000000002,-0.00399813,-0.0014145266,6.325,0,0
0.0006207594,-0.001324886,0.00186548864,-0.003920328,-0.0008464105999999999,6.326,0,0
0.001823806,-0.0019897974000000003,0.0014761848399999999,-0.00417215,-0.0005915364000000001,6.327,0,0
0.0024990942000000004,-0.003286618,0.0008484994399999998,-0.003642676,-0.00012361820000000002,6.328,0,0
0.003243164,-0.004350814,4.354163999999988e-05,-0.0020169880000000004,0.00042918040000000006,6.329,0,0
0.004334628,-0.004461761999999999,-0.00092927236,-0.0010280880000000001,0.0004353504,6.33,0,0
0.0036945692000000005,-0.00377267,-0.0013808732,-0.000475933,0.000374256,6.331,0,0
0.0016893211999999998,-0.002581628,-0.0010799998000000002,0.001072141,0.00042474760000000005,6.332,0,0
0.00010602319999999975,-0.0006832379999999999,-0.0007353468000000001,0.0022569210000000003,0.0002953508,6.333,0,0
-0.0009738868000000003,0.001448604,-0.0004383426000000001,0.0023392810000000003,8.603740000000002e-05,6.334,0,0
-0.0020885008000000004,0.0029702120000000007,0.00028316539999999996,0.002756817,0.00016191680000000001,6.335,0,0
-0.0026892360000000002,0.003756120000000001,0.0010080354000000001,0.0032389439999999997,0.0001960568,6.336,0,0
-0.0021500272,0.00423021,0.0011799800000000002,0.0024109016,-1.396899999999996e-05,6.337,0,0
-0.0015041677999999999,0.0043762820000000004,0.0012956164,0.0011957715999999998,-0.00024290739999999997,6.338,0,0
-0.0011321168000000001,0.003719262,0.0013203216000000002,0.0005841602,-0.0006296,6.339,0,0
-0.00023323479999999997,0.0025109119999999997,0.0010549404,-0.0006091518,-0.0008833484000000001,6.34,0,0
0.0010697992000000003,0.0010256679999999998,0.0008434238,-0.0021134938000000004,-0.000516802,6.341,0,0
0.0020045084000000005,-0.00038478799999999995,0.00046918359999999996,-0.0025000154,0.00018390599999999996,6.342,0,0
0.0026773210000000003,-0.0020024839999999997,-0.0001021284,-0.0024876834000000002,0.0006322330000000001,6.343,0,0
0.0028480430000000006,-0.003467678,-0.000420215,-0.0027265740000000003,0.001363231,6.344,0,0
0.0022821092,-0.004095798,-0.0005476718,-0.0020557534,0.0022932440000000003,6.345,0,0
0.0018426172000000002,-0.004293620000000001,-0.0006637088,-0.0004218914000000001,0.0022650060000000004,6.346,0,0
0.0013299892,-0.004445812,-0.0006629632000000001,0.0009342646,0.0018975260000000003,6.347,0,0
0.0005268692,-0.004188874000000001,-0.0005874510000000001,0.0021457986,0.002128482,6.348,0,0
-0.0004363738000000001,-0.0026866380000000003,-0.00048292800000000004,0.0037417046000000004,0.002000426,6.349,0,0
-0.0015292060000000002,-0.0003639339999999998,-0.00028343780000000005,0.004578284,0.0013245518,6.35,0,0
-0.0026582900000000002,0.0019355260000000001,7.795980000000003e-05,0.004300933999999999,0.0011156756,6.351,0,0
-0.0035186880000000003,0.00433735,0.0005182264,0.003916818,0.0011611964,6.352,0,0
-0.0031296192000000002,0.00650909,0.0006047387999999999,0.0032587920000000004,0.0007922858,6.353,0,0
-0.0021176258,0.007176846000000001,0.0006200058460000001,0.0017596532,0.00046877040000000005,6.354,0,0
-0.0011005458000000004,0.006558336000000001,0.000787807646,0.00042361720000000006,0.00045486440000000006,6.355,0,0
0.00011558019999999991,0.005466384,0.00042179024599999995,-0.0003907128,0.00022576800000000002,6.356,0,0
0.0012092202,0.0034224140000000004,2.0379445999999982e-05,-0.0019424588,-0.00032500880000000006,6.357,0,0
0.0016349274,0.0009468780000000001,0.00019950264599999997,-0.0032311488,-0.0009022122000000002,6.358,0,0
0.0014593593999999998,-0.0012747000000000001,0.00021594632,-0.0035281360000000003,-0.0014227288000000001,6.359,0,0
0.0013514566,-0.00353235,-5.0127679999999996e-05,-0.004039958,-0.0019305426000000001,6.36,0,0
0.0012952705999999998,-0.0060268000000000006,0.00015511832,-0.004166342,-0.0020218120000000004,6.361,0,0
0.0007691988800000001,-0.00795522,0.00060271912,-0.0031636418000000003,-0.001934738,6.362,0,0
-3.140112000000003e-05,-0.008265964,0.00080426732,-0.0021784038000000005,-0.002190168,6.363,0,0
-7.818132000000005e-05,-0.007398006000000001,0.0008894362000000001,-0.0018741094,-0.002132858,6.364,0,0
-0.00015069112000000003,-0.005550022000000001,0.0009206112000000001,-0.0007925814,-0.0016633578000000001,6.365,0,0
-0.0009253231200000001,-0.0028631,0.0006299532000000001,0.0009691766000000002,-0.0013703624,6.366,0,0
-0.0011305276,-0.00020594600000000036,-4.204879999999999e-05,0.0016877364000000001,-0.0008183644,6.367,0,0
-0.0008984154000000001,0.001587976,-0.0005046344,0.0023904264000000003,0.00025403160000000004,6.368,0,0
-0.0012594366,0.003005964,-0.0006567664000000001,0.0037213520000000003,0.0011361536000000002,6.369,0,0
-0.0015108640000000002,0.004258264,-0.0006076964,0.003846926,0.0013731774000000003,6.37,0,0
-0.0009646559999999999,0.004518876000000001,-0.000274033,0.002506372,0.0015950480000000004,6.371,0,0
-0.0005848626,0.004525412,0.00024306500000000002,0.0015219019999999999,0.0018595160000000003,6.372,0,0
-0.0005863742,0.004359160000000001,0.0007119406000000001,0.00047302400000000017,0.0016721446,6.373,0,0
-0.000196228,0.0033029562000000006,0.0009440182000000001,-0.0016275740000000001,0.0013952666,6.374,0,0
3.625400000000002e-05,0.0016036001999999998,0.0008412334,-0.002803776,0.0013604846,6.375,0,0
-1.8197199999999975e-05,0.0005301902,0.0005904840000000001,-0.002814258,0.0013600306000000001,6.376,0,0
0.0005164716,-0.00029137179999999996,0.00036000140000000007,-0.002961964,0.0010283434,6.377,0,0
0.0007569760000000001,-0.0013989818000000002,3.44084e-05,-0.0028035200000000003,0.0006427168,6.378,0,0
0.0005311617999999999,-0.0020532420000000003,-0.00019110060000000002,-0.0017393892000000003,7.758480000000001e-05,6.379,0,0
0.0009785217999999998,-0.002721332,-0.0005482508,-0.0006540792000000002,-0.0007156832,6.38,0,0
0.001286871,-0.003556446,-0.0008986774000000001,0.0002421608,-0.0013125192000000001,6.381,0,0
0.000960771,-0.004795590000000001,-0.0009741676000000001,0.0018910148,-0.00137567,6.382,0,0
0.0006626599999999999,-0.005492898,-0.0012366366,0.0033151248000000003,-0.0013593176,6.383,0,0
0.00046484799999999996,-0.004518334000000001,-0.0015083447999999998,0.0040015499999999996,-0.0013227695999999999,6.384,0,0
-0.00031426600000000006,-0.0012792440000000001,-0.0009993576000000002,0.004377602,-0.0005365196,6.385,0,0
-0.0016240299999999998,0.003204666,-0.00018518560000000002,0.004196236,-4.58546e-05,6.386,0,0
-0.0021336984,0.006584548,0.00036712320000000003,0.0029052011999999997,-0.0002527524,6.387,0,0
-0.0015571324,0.008548646000000002,0.0009959032,0.0009423151999999997,-0.000191685,6.388,0,0
-0.0006990883999999998,0.008339972000000001,0.0010154092000000002,-0.00039609080000000015,1.5079999999999998e-06,6.389,0,0
0.00026031360000000007,0.005466156,0.00039172800000000004,-0.0017955508000000002,-0.0004912720000000001,6.39,0,0
0.0014483196,0.0014213299999999995,-0.0004576139999999999,-0.0034172748,-0.0009232509999999999,6.391,0,0
0.0014253414,-0.0012060120000000002,-0.001372304,-0.00408688,-0.0008035502000000001,6.392,0,0
0.00027589339999999996,-0.0022423720000000003,-0.0018857606,-0.00401287,-0.0007278138000000001,6.393,0,0
-0.0003903126000000001,-0.003105796,-0.0015385467999999998,-0.004103628,-0.0004638276000000001,6.394,0,0
-0.000767386,-0.0036962699999999998,-0.0006374587999999999,-0.003564556,0.00010711439999999998,6.395,0,0
-0.00108554046,-0.003497828,0.0002834451999999999,-0.0017747579999999995,0.0006032844000000001,6.396,0,0
-0.00075786166,-0.0028853100000000003,0.0011594512,-0.000389096,0.0010270774,6.397,0,0
0.00012536214000000005,-0.0027258942,0.0015349824000000002,0.001119256,0.0015200252,6.398,0,0
0.00040404814000000004,-0.0016831182,0.0014732546000000002,0.003355112,0.0015301482,6.399,0,0
0.00034737214000000007,0.00011461380000000001,0.0009097606000000002,0.004639188000000001,0.00124741668,6.4,0,0
0.0003287526,0.0009274278,0.0004043026,0.004831788,0.00103266608,6.401,0,0
5.62064e-05,0.0014733978,0.00030803460000000004,0.00511012,0.00068659288,6.402,0,0
0.00013865060000000002,0.0024921300000000004,8.362420000000004e-05,0.004739518,0.00027316088,6.403,0,0
0.0006566486000000001,0.0032828600000000003,0.00014560000000000004,0.0027971,-3.019492e-05,6.404,0,0
0.000968698,0.0035620120000000007,0.000571392,0.0007859659999999997,-4.438739999999999e-05,6.405,0,0
0.0011330927999999999,0.0037855560000000007,0.00039241220000000004,-0.0011009860000000004,-3.1872800000000004e-05,6.406,0,0
0.0016750308,0.0034251376,-0.00032987580000000004,-0.0035200380000000005,-0.0003794756,6.407,0,0
0.0020161588,0.0020587576,-0.000779838,-0.005539362000000001,-0.0006462576,6.408,0,0
0.0022337748000000003,9.518560000000011e-05,-0.0013365318,-0.006094352000000001,-0.0005346676,6.409,0,0
0.0026045228,-0.0013741624,-0.0017408516,-0.006079630000000001,-0.0006956396,6.41,0,0
0.0023876184000000003,-0.0020075820000000004,-0.0014153356,-0.006040864000000001,-0.0010457516,6.411,0,0
0.0016682944000000002,-0.0026544076000000003,-0.0009271870000000001,-0.004744826000000001,-0.0009060068,6.412,0,0
0.0008331264000000001,-0.0029572616000000003,-0.0007544350000000001,-0.002858054,-0.0007119547999999999,6.413,0,0
-0.00013890559999999992,-0.0022024296000000003,-0.000612577,-0.0018203286,-0.0008582222,6.414,0,0
-0.0016193416,-0.0011779376000000002,-0.0003724752000000001,-0.0002722506,-0.0004867602,6.415,0,0
-0.002624794,-0.00044423400000000017,-0.0004145502000000001,0.0021440894,-0.00011546300000000002,6.416,0,0
-0.0025715760000000003,0.001169916,-0.0007073688000000002,0.0035141214000000004,-0.0005967098,6.417,0,0
-0.002615248,0.0024614980000000003,-0.0005997988,0.0044846514,-0.0007240916,6.418,0,0
-0.002731174,0.0025042936,-9.19168e-05,0.005887510000000001,-0.0005349666,6.419,0,0
-0.002171534,0.0025445876,0.0001589892,0.006059702,-0.0010343066,6.42,0,0
-0.0010837572,0.0018797774,0.00041015999999999996,0.0044758856,-0.001132432,6.421,0,0
-0.0004300192,0.00039965140000000014,0.0004917394,0.0031408376000000003,-0.00036900560000000004,6.422,0,0
-0.0003969612,-0.0005615546,9.764539999999996e-05,0.0017874097999999996,2.5708200000000006e-05,6.423,0,0
-0.00027519120000000006,-0.0015017662,-0.00046307460000000005,-0.00040696420000000007,0.00030355620000000003,6.424,0,0
0.0007883188,-0.0038674022,-0.0011604646000000001,-0.0018019022000000003,0.0008707842,6.425,0,0
0.001504892,-0.00499984,-0.0015688414,-0.0019853158,0.0012367464,6.426,0,0
0.0011263448,-0.00368271,-0.0011857928,-0.0023636498,0.001493222,6.427,0,0
0.0016845328000000001,-0.00295559,-0.0003366387999999999,-0.0027635220000000005,0.001574776,6.428,0,0
0.0020991398,-0.002746338,0.0004232812000000001,-0.0016421960000000003,0.0013327128,6.429,0,0
0.0009550878000000002,-0.0012073540000000003,0.0011801452000000001,-0.0002917779999999998,0.0007448288,6.43,0,0
0.00035895420000000005,-0.00011614900000000007,0.001527062,0.000594222,0.0002829931999999999,6.431,0,0
0.0007620394000000001,-0.0009777152,0.001638534,0.002342438,0.0001815352,6.432,0,0
0.0005960086,-0.0015334032,0.0020994200000000003,0.00400704,-0.00011308048000000003,6.433,0,0
-0.00017085440000000004,-0.0010884872,0.0025603600000000002,0.004022588,-0.00020197448000000003,6.434,0,0
-0.00045265240000000003,-9.513719999999998e-05,0.002584536,0.0033701562,0.00038683552,6.435,0,0
-0.00036846480000000004,0.0008449258000000001,0.0023500298000000003,0.0026922978,0.00069303272,6.436,0,0
-0.0008590532000000001,0.0014881260000000002,0.0022034538,0.0008032418000000001,-9.672528000000005e-05,6.437,0,0
-0.0015272404000000002,0.002507184,0.001644028,-0.0014529562,-0.0008180976,6.438,0,0
-0.0014213604000000001,0.003407688,0.0008799304,-0.0027887682,-0.0009030102000000002,6.439,0,0
-0.0009418742,0.0033164220000000003,0.00025251019999999997,-0.0040365964,-0.0012949744000000003,6.44,0,0
-0.0007778102000000002,0.0026759080000000003,-0.0002596116000000001,-0.005199068,-0.0017482800000000003,6.441,0,0
-0.00035031380000000005,0.0017927600000000007,-0.0008033696000000001,-0.005345764,-0.001387027,6.442,0,0
0.0004924482,0.00038454400000000034,-0.0013829218000000001,-0.005113176,-0.0008660818,6.443,0,0
0.0016765482,-0.0011282159999999998,-0.0017824562,-0.004972962,-0.000796823,6.444,0,0
0.0025750720000000003,-0.002356058,-0.0018249660000000001,-0.0038843244000000003,-0.0004622067999999999,6.445,0,0
0.002041096,-0.002352026,-0.0015634,-0.0020564024,-0.00011608020000000001,6.446,0,0
0.0009070020000000001,-0.0020452838,-0.001439848,-0.0005060424000000001,-2.2935000000000003e-05,6.447,0,0
-0.00048231200000000015,-0.0023558658,-0.001265328,0.0011134336,0.00039670380000000004,6.448,0,0
-0.002213124,-0.0019728638,-0.0009728024000000001,0.0029629376,0.0008771228,6.449,0,0
-0.0025358,-0.0011161918,-0.0006394016,0.004124312000000001,0.0007374905999999999,6.45,0,0
-0.0015752320000000002,-0.0006228158000000001,-0.0002882298,0.004385190000000001,0.0006557179999999999,6.451,0,0
-0.0011742819999999998,0.0004240359999999999,8.584840000000002e-05,0.004652772,0.0009872998000000001,6.452,0,0
-0.0005300600000000002,0.0022335239999999998,0.00019076859999999992,0.004280974,0.0007387678,6.453,0,0
0.0003065117999999998,0.0033510180000000003,0.00019038999999999997,0.0026574800000000007,-5.588819999999999e-05,6.454,0,0
-0.00020947560000000005,0.003770916,0.0006198072,0.0011633800000000003,-0.000427952,6.455,0,0
-0.0008851362000000001,0.004047866,0.0008740414,-4.470799999999975e-05,-0.0002396606,6.456,0,0
-0.0002949042000000001,0.003866748,0.0009354951999999999,-0.001901076,-0.0002438726,6.457,0,0
0.0007533678,0.003267887,0.0013924570000000002,-0.003224106,-2.4217800000000044e-05,6.458,0,0
0.001243154,0.002382063,0.0014922854,-0.0029239910000000004,0.0007172542,6.459,0,0
0.0008349734000000001,0.0014688789999999998,0.00097724382,-0.002931401,0.0013069582,6.46,0,0
0.00010959199999999994,0.0003670327999999999,0.00038539482000000003,-0.003275203,0.0016348588000000002,6.461,0,0
-0.00017497460000000006,-0.0014858172,-0.00056308318,-0.0024810310000000003,0.0018671908,6.462,0,0
-0.000632201,-0.0032547202,-0.0018151851800000001,-0.0016328050000000002,0.002040814,6.463,0,0
-0.0008075594000000003,-0.0039339542,-0.0030280965800000004,-0.0013624670000000002,0.002037294,6.464,0,0
-0.00046625080000000003,-0.0031414162000000002,-0.003961195000000001,-0.00039270500000000025,0.002002776,6.465,0,0
-0.0008258488000000001,-0.001236924,-0.004290394,0.001351281,0.0018118600000000002,6.466,0,0
-0.0010499622,0.0009786740000000003,-0.0034403280000000003,0.0023971770000000003,0.001298754,6.467,0,0
-0.00044534579999999993,0.0029791800000000005,-0.0013563840000000002,0.0029510970000000006,0.0006351340000000001,6.468,0,0
-0.0004990858000000001,0.004037399200000001,0.000997978,0.003476734000000001,-0.000205634,6.469,0,0
-0.0008458124,0.0034445372000000006,0.0030468300000000004,0.0031335468000000003,-0.001063884,6.47,0,0
-0.0006671864,0.0018564298000000002,0.004677152,0.0014867108000000003,-0.001805268,6.471,0,0
-0.0010028904,0.0006061006000000001,0.005094812000000001,-0.0003169951999999999,-0.002257474,6.472,0,0
-0.0011519383999999998,-0.0011215774,0.0040806076,-0.0017702972000000002,-0.002400554,6.473,0,0
8.842000000000225e-06,-0.0031664866000000002,0.002818923,-0.0035688592000000007,-0.0024206720000000004,6.474,0,0
0.0018099140000000004,-0.004904206600000001,0.001402527,-0.004519054000000001,-0.002193758,6.475,0,0
0.0029417800000000006,-0.0063656232,-0.00019508699999999993,-0.0039626688,-0.002082328,6.476,0,0
0.0031524780000000002,-0.006591942,-0.001433145,-0.0032415488,-0.0021066319999999998,6.477,0,0
0.003096618,-0.005955322000000001,-0.0020805246,-0.0023547292000000004,-0.0019427860000000002,6.478,0,0
0.002561774,-0.004613418,-0.002549786,-0.0003684532,-0.0013356084000000002,6.479,0,0
0.0012187778000000002,-0.0026315274000000004,-0.00330113,0.0014650688,-0.0005821864,6.48,0,0
0.0005156058000000001,-0.0010100114,-0.003403398,0.0025456836,-7.91116e-05,6.481,0,0
0.000693333,-0.00029113340000000003,-0.0028062494,0.004206165600000001,0.0007731664000000001,6.482,0,0
-0.000335299,0.0008538186000000001,-0.0021171438,0.005986470000000001,0.0013892524,6.483,0,0
-0.0020939770000000003,0.0022324546,-0.0008416957999999999,0.006619674000000001,0.001167477,6.484,0,0
-0.0032445828000000005,0.002658098,0.0012272422,0.006717164,0.0007053186000000001,6.485,0,0
-0.0036464988000000005,0.003196024,0.0030626482000000003,0.006723812000000001,0.0004009286000000001,6.486,0,0
-0.0035230762000000005,0.003682126,0.004198197600000001,0.0053979226000000005,-0.00013300239999999999,6.487,0,0
-0.0027564042,0.0034929040000000002,0.004553956000000001,0.0029394706000000007,-0.0006716112,6.488,0,0
-0.0014240162000000002,0.0030639260000000007,0.0038816456000000006,0.0007419645999999999,-0.0007257682,6.489,0,0
-0.0002530162000000001,0.0028153480000000005,0.0025912116,-0.0010522194,-0.0011801958,6.49,0,0
0.0007523498000000001,0.0018124254000000002,0.0011729784000000002,-0.0027400314000000005,-0.0018676246000000002,6.491,0,0
0.00140347,7.713400000000149e-06,-6.909620000000009e-05,-0.0037473700000000007,-0.0018618124000000002,6.492,0,0
0.00193741,-0.0010536345999999997,-0.0008809202000000002,-0.004028668000000001,-0.0015161680000000002,6.493,0,0
0.002637654,-0.0014796409999999999,-0.0011553598000000002,-0.004404004,-0.0010252352000000003,6.494,0,0
0.0031684860000000003,-0.002115829,-0.0013694058,-0.0046366720000000005,0.00014554080000000005,6.495,0,0
0.0029365006,-0.0022651343999999995,-0.0015915846,-0.004012912,0.0015002828000000002,6.496,0,0
0.0018177166000000002,-0.0021148164000000004,-0.00160859,-0.0028888720000000002,0.0024190136,6.497,0,0
-8.903140000000019e-05,-0.0022512524,-0.0013426264000000001,-0.0015810700000000002,0.003012816,6.498,0,0
-0.0019222754000000003,-0.0011098160000000002,-0.0006689763999999999,0.000683758,0.0031260180000000004,6.499,0,0
-0.002245083,0.0011569719999999998,8.267160000000013e-05,0.002906242,0.0027601080000000003,6.5,1,1
-0.0019933816000000004,0.003110014,0.00037259380000000006,0.003644076,0.0022956364,6.501,0,0
-0.0018736736000000004,0.005185086,0.0006086952000000001,0.004144442000000001,0.0016812791999999998,6.502,0,0
-0.0013668716000000002,0.006759211999999999,0.0007130852000000001,0.00448385,0.0010413036000000001,6.503,0,0
-0.0006736042,0.0052799019999999995,0.0004672892,0.0031659312000000004,0.0006671112000000001,6.504,0,0
-0.0008444294200000001,0.0024943520000000005,0.0008294572000000001,0.0013134792000000003,0.00040479211999999996,6.505,0,0
-0.00127309682,0.0008185414000000003,0.001453347,0.00032500120000000007,0.0004961221199999999,6.506,0,0
0.00019024318000000003,-0.0007128865999999999,0.0016534576,-0.0012886847999999998,0.00054396712,6.507,0,0
0.00234883918,-0.0020687626000000002,0.0013604140000000001,-0.0034052668,0.0003942555200000001,6.508,0,0
0.00304803578,-0.0021095686,0.0004064820000000001,-0.004216292,0.0007587179200000001,6.509,0,0
0.0028446998,-0.0013863092,-0.0008520719999999999,-0.004446304,0.0008675240000000002,6.51,0,0
0.0028558561999999996,-0.0020321506,-0.0015839640000000002,-0.004699577999999999,0.0001766456000000001,6.511,0,0
0.0021210782,-0.0033325766000000005,-0.002111764,-0.0038893604000000003,2.5769400000000038e-05,6.512,0,0
0.0008128802,-0.0039150186,-0.002448964,-0.0021665143999999997,3.236140000000007e-05,6.513,0,0
0.0008359002,-0.0038495506,-0.00190971,-0.0008904283999999999,-0.0008626726000000001,6.514,0,0
0.001673729,-0.0037478614,-0.001485906,0.0006372296000000002,-0.0012804236,6.515,0,0
0.0013688720000000004,-0.0025842034,-0.0015155379999999999,0.0028688996,-0.0010625496,6.516,0,0
-0.00042334000000000013,0.00046018860000000025,-0.001535072,0.004293948,-0.0015586512000000002,6.517,0,0
-0.001975834,0.0033602246000000004,-0.001379838,0.004639672000000001,-0.0021476480000000003,6.518,0,0
-0.0031382240000000002,0.0047834986,-0.0010561976000000002,0.004729082,-0.0023827260000000004,6.519,0,0
-0.0038884963999999997,0.005222664,-0.0007651795999999999,0.00373046,-0.0028617020000000003,6.52,0,0
-0.0030420344,0.005056402000000001,-0.00027820960000000017,0.0010365060000000002,-0.0029582600000000003,6.521,0,0
-0.0012239904,0.0035472339600000004,0.0005415063999999999,-0.0012603979999999998,-0.0023517086000000003,6.522,0,0
9.97974e-05,0.0017990809599999998,0.0013233304,-0.0027670740000000004,-0.0014759186,6.523,0,0
0.0006842782,0.0006349107600000001,0.0015248400000000002,-0.004514492,-0.0007157079999999999,6.524,0,0
0.0008419128000000001,-0.00032228723999999995,0.0015414868,-0.005344618000000001,0.000256733,6.525,0,0
0.00039353280000000004,-0.00123214524,0.0015482808,-0.0047260620000000005,0.001169847,6.526,0,0
-4.63672e-05,-0.0018355092,0.0014370448000000002,-0.004196392,0.0011409033999999999,6.527,0,0
0.00044515900000000004,-0.0027397602,0.0012633788000000002,-0.003420219,0.0011114954000000002,6.528,0,0
0.0012661522,-0.004139342,0.0009082216000000001,-0.0018111549999999998,0.0014960168,6.529,0,0
0.0016084920000000002,-0.004683082000000001,0.0007261132,-0.0002486909999999999,0.0014202142,6.53,0,0
0.0021033300000000005,-0.004534608000000001,0.0001554032,0.000532671,0.0011791002,6.531,0,0
0.002712762,-0.003960549000000001,-0.0010500708,0.0017860150000000002,0.0014129224,6.532,0,0
0.0020848022000000003,-0.002520215,-0.0023058068,0.003259786,0.0012920726,6.533,0,0
0.0007829262000000002,-0.0005811170000000002,-0.0030056316,0.0038878440000000005,0.00069561,6.534,0,0
-0.0002517398,0.001130039,-0.0028620708,0.004247266,0.0003880016,6.535,0,0
-0.0012646858,0.002523845,-0.0019482448000000003,0.003972170800000001,6.296859999999996e-05,6.536,0,0
-0.0020015358000000003,0.003100956,-0.0002172827999999999,0.0029553586,-0.0004179186000000001,6.537,0,0
-0.0023142740000000003,0.0027067734,0.0015886332,0.00019126660000000004,-0.0002357088000000001,6.538,0,0
-0.002055496,0.0013736053999999997,0.0029452672,-0.0010327314,0.0002639738,6.539,0,0
-0.0019815300000000004,0.0009829113999999999,0.003371344,-0.0030115894000000004,0.0006790658,6.54,0,0
-0.00096246,-7.79502000000002e-05,0.0027997865400000003,-0.0037323002,0.0013422768000000002,6.541,0,0
-0.0002733300000000002,-0.0007426842000000001,0.00198259294,0.0033256419999999997,0.0013365477999999998,6.542,0,0
-0.002383046,0.0031328364,0.0017463869399999997,0.009875952,0.0002764397999999999,6.543,0,0
-0.004218380000000001,0.0066462564,0.00199583494,0.011757966,-0.0008272282000000001,6.544,0,0
-0.0046723400000000005,0.007083638400000001,0.00216018094,0.013147984,-0.0020988741999999998,6.545,0,0
-0.0057753299999999995,0.007535334000000001,0.0025372104000000004,0.010796228,-0.0040114222,6.546,0,0
-0.005620432,0.006804158,0.0025294596,-0.0003565720000000003,-0.004952618000000001,6.547,0,0
-0.0013555380000000005,0.0013483140000000002,0.0012293796,-0.011067232,-0.004684982,6.548,0,0
0.003440322,-0.0040604460000000005,-0.0009695524,-0.018064392000000002,-0.00392975,6.549,0,0
0.007579468000000001,-0.0076820759999999995,-0.0031763964,-0.023376160000000003,-0.002448766,6.55,0,0
0.01132845,-0.011082176000000001,-0.0053490404,-0.0237779,-0.00029025799999999984,6.551,0,0
0.012623414000000001,-0.012497984,-0.007129906,-0.020890778000000002,0.0020743620000000006,6.552,0,0
0.011659542,-0.012133918,-0.007597260000000001,-0.015305706700000001,0.0042771860000000005,6.553,0,0
0.008647164,-0.0098158,-0.007089772000000001,-0.0078114267000000005,0.006102656000000001,6.554,0,0
0.004083521999999999,-0.006558980000000001,-0.00597455,0.0013370133000000007,0.006761502,6.555,0,0
-0.0011329580000000003,-0.002599682,-0.004019198000000001,0.0105097733,0.006563488,6.556,0,0
-0.005773018,0.0011054499999999998,-0.001421014,0.0178954313,0.005662937999999999,6.557,0,0
-0.00968496,0.004886708,0.001235364,0.023635500000000004,0.0038104327999999993,6.558,0,0
-0.011986142,0.00908867,0.00364261,0.02623672,0.0015547528,6.559,0,0
-0.012071128,0.01170821,0.00554457,0.024594420000000002,-0.0005561311999999999,6.56,0,0
-0.011092998,0.012628034,0.006335412,0.019468540000000003,-0.0025366472,6.561,0,0
-0.00871645,0.011733354,0.00604994,0.012303586,-0.0041217572,6.562,0,0
-0.004611806,0.008245932,0.004984134,0.0033763460000000006,-0.0047247800000000005,6.563,0,0
-0.00038191400000000034,0.003154456000000001,0.0034411766,-0.006115234000000001,-0.004712544000000001,6.564,0,0
0.002915186,-0.0013872200000000004,0.0018376306,-0.013878954,-0.004107234,6.565,0,0
0.0060197340000000005,-0.004930274,0.0003397265999999999,-0.019585754000000004,-0.0028462332000000006,6.566,0,0
0.008667206,-0.007500146000000001,-0.0010036794,-0.022913420000000004,-0.0011980232000000002,6.567,0,0
0.009283628000000002,-0.009090304,-0.0021092734,-0.022501640000000003,0.0005734388000000002,6.568,0,0
0.008261192,-0.009881048000000002,-0.0027701180000000002,-0.018366558,0.0021918508000000007,6.569,0,0
0.00693447,-0.009887518000000001,-0.0031477700000000003,-0.012325732,0.0034667728,6.57,0,0
0.0044931120000000005,-0.009176488,-0.0030609319999999997,-0.004950172000000001,0.004367152,6.571,0,0
0.0006502880000000002,-0.006940570000000001,-0.0025627019999999996,0.0034383279999999996,0.004545078000000001,6.572,0,0
-0.002711592,-0.0027156019999999997,-0.0019406416,0.010660028,0.0035018902000000006,6.573,0,0
-0.004566436,0.0021337980000000006,-0.0009269795999999999,0.016097146,0.0020657142000000002,6.574,0,0
-0.0061596360000000005,0.0068236040000000005,0.00027797840000000004,0.02002982,0.0006046802000000003,6.575,0,0
-0.007092029999999999,0.010805146,0.0012009224000000002,0.021023299999999998,-0.0011880538,6.576,0,0
-0.0062101380000000005,0.012420292,0.0018449064,0.018181708,-0.0028597978,6.577,0,0
-0.00468467,0.012144648,0.002355888,0.013371969999999999,-0.00395833,6.578,0,0
-0.0032390668,0.010686313999999999,0.0025083880000000003,0.006972381999999999,-0.004874604,6.579,0,0
-0.0012208148,0.00723292,0.002063518,-0.0012374580000000003,-0.005291932000000001,6.58,0,0
0.0013895992000000001,0.0025340320000000003,0.001192574,-0.008812718,-0.004686588,6.581,0,0
0.0031877032,-0.0014851319999999997,0.000520186,-0.014627786000000002,-0.0034061179999999996,6.582,0,0
0.0049145892,-0.005162396,-0.0001729120000000001,-0.019054308,-0.001779666,6.583,0,0
0.006781734000000001,-0.008934702,-0.00135017,-0.02096402,-0.00014882999999999986,6.584,0,0
0.0070756560000000005,-0.010714748000000001,-0.0021965020000000003,-0.019416078000000003,0.001557266,6.585,0,0
0.0065144980000000005,-0.010280898000000002,-0.0024239500000000002,-0.015819806000000002,0.002405416,6.586,0,0
0.005853802000000001,-0.008608756000000002,-0.0024129240000000003,-0.010266628000000002,0.002426684,6.587,0,0
0.003973272,-0.005804738000000001,-0.0020172460000000003,-0.0027945680000000007,0.0025969319999999997,6.588,0,0
0.0008114540000000005,-0.002275672,-0.0012777008000000004,0.004566992000000001,0.002593598,6.589,0,0
-0.002076006,0.0007810840000000001,-0.00022633880000000003,0.01064427,0.002219756,6.59,0,0
-0.005021807999999999,0.003850102,0.0012417952,0.015249878000000001,0.001713548294,6.591,0,0
-0.007214208,0.00690962,0.0019874512,0.018124920000000003,0.000994482294,6.592,0,0
-0.007153296,0.008193862,0.0021487432,0.018065420000000002,-0.000544539706,6.593,0,0
-0.006037257899999999,0.008867822000000001,0.002945862,0.015331424,-0.0022296897059999998,6.594,0,0
-0.0042271489,0.009519016000000002,0.003335676,0.010954034,-0.0036253697060000005,6.595,0,0
-0.0015668449,0.008245824,0.003251302,0.005002594,-0.004865784000000001,6.596,0,0
0.0011697851,0.004577606,0.003820668000000001,-0.001805466,-0.005434564,6.597,0,0
0.0030697591000000005,4.974599999999982e-05,0.0041187080000000004,-0.007799106,-0.004921158,6.598,0,0
0.0048620270000000005,-0.005059,0.0031596010000000006,-0.012329590000000001,-0.0035632042000000004,6.599,0,0
0.006755584000000001,-0.009701050000000001,0.001882369,-0.0151757,-0.0020187982,6.6,0,0
0.007060384000000001,-0.011815946,0.0004730849999999998,-0.014950845999999999,0.0002289617999999999,6.601,0,0
0.005786182000000001,-0.011562405999999999,-0.0014483270000000001,-0.012520582,0.0025521058,6.602,0,0
0.004100204400000001,-0.009249787999999998,-0.0029867650000000006,-0.00915994,0.0039501098000000005,6.603,0,0
0.0021689834000000008,-0.005306764,-0.0038522520000000005,-0.004412618,0.004791454,6.604,0,0
-0.00047987660000000005,-0.0010992120000000005,-0.004174216,0.001109122,0.00522716,6.605,0,0
-0.0025455026,0.002194156,-0.0040447,0.006039468000000001,0.005106790000000001,6.606,0,0
-0.0036401686000000003,0.004683914,-0.003504186,0.010266084,0.004438152000000001,6.607,0,0
-0.004949267,0.006557052000000001,-0.002406786,0.013853482000000002,0.0034876986000000007,6.608,0,0
-0.005892224000000001,0.007736286000000001,-0.0011277600000000002,0.015419920000000002,0.0022402826000000003,6.609,0,0
-0.00608089,0.007928904,0.00031155599999999994,0.014262906000000002,0.0007846606000000003,6.61,0,0
-0.0055539660000000005,0.006733842000000001,0.001827038,0.011371628000000002,-0.0006190913999999999,6.611,0,0
-0.0043019746,0.0056052920000000004,0.0029259940000000003,0.007238844000000001,-0.0015679194,6.612,0,0
-0.0022244086,0.004462254000000001,0.003385068,0.0015737440000000006,-0.00213015,6.613,0,0
-0.0004813606,0.0019228020000000004,0.0031980394000000003,-0.004127436,-0.002193154,6.614,0,0
0.0007842394000000001,-0.00039550800000000004,0.0021057614,-0.008153542,-0.0017153770000000001,6.615,0,0
0.0026892894000000002,-0.0015507680000000001,0.0003344314000000001,-0.011150244,-0.0012414487999999999,6.616,0,0
0.004029054000000001,-0.00317314,-0.0010704546000000002,-0.0130271,-0.0006026948,6.617,0,0
0.0046056380000000004,-0.005522272,-0.0019601526,-0.012442696,0.0006658312,6.618,0,0
0.0051284,-0.006838378000000001,-0.0025418280000000003,-0.010272366,0.0019545112,6.619,0,0
0.0053967600000000004,-0.007014436000000001,-0.0025860740000000003,-0.007728198,0.0026899462000000004,6.62,0,0
0.0045084392000000004,-0.006818904,-0.0019731292,-0.0040612239999999996,0.0033245720000000005,6.621,0,0
0.0026547972000000005,-0.0056170858,-0.0016101792000000003,0.000528536,0.0034634700000000006,6.622,0,0
0.0006447432,-0.0029701878000000003,-0.0016222072000000001,0.004360992,0.0028462976,6.623,0,0
-0.0016432768000000002,3.825020000000005e-05,-0.0010447322,0.007433462000000001,0.0018078544000000004,6.624,0,0
-0.0037568028000000003,0.0021060842000000003,-0.0002439282,0.010018954,0.0007841804000000001,6.625,0,0
-0.005328374,0.0035309582000000003,0.00027385300000000006,0.01055431,-0.00015130559999999995,6.626,0,0
-0.006168296,0.003926762,0.0008699230000000001,0.008934442,-0.0012195396000000002,6.627,0,0
-0.006425950000000001,0.0032638466,0.001574803,0.0064578094,-0.0021711612000000005,6.628,0,0
-0.0057717160000000005,0.0037839306000000007,0.0017161400000000001,0.0029647234,-0.002804384,6.629,0,0
-0.0036302700000000005,0.0042860206,0.001582818,-0.0016131165999999997,-0.0030055520000000003,6.63,0,0
-0.0006448600000000006,0.0028377346,0.0014153548,-0.0055062666,-0.0028420738000000004,6.631,0,0
0.002188064,0.0014600206000000004,0.0005740468,-0.0082305986,-0.0020145878000000002,6.632,0,0
0.004287408,9.599200000000026e-05,-0.0005413372000000001,-0.010377286000000001,-0.0008223617999999999,6.633,0,0
0.005523388000000001,-0.0027723780000000003,-0.0014657052000000002,-0.010956050000000002,0.0003957162000000001,6.634,0,0
0.005354676,-0.005115386,-0.0023139712000000002,-0.009493478000000001,0.0016442602,6.635,0,0
0.004229664,-0.005278604,-0.002636481,-0.007245358000000001,0.002282138,6.636,0,0
0.0030862560000000003,-0.004925616,-0.0020651434000000003,-0.004923242400000001,0.002347946,6.637,0,0
0.00203231172,-0.003941832,-0.0011787552000000001,-0.0012548324000000001,0.0021014072,6.638,0,0
0.00133963032,-0.002099628,-0.0003726792,0.0028261776000000002,0.0013527291999999998,6.639,0,0
0.00026744232000000003,-0.0005202279999999999,0.0004369476,0.005858725600000001,0.00027939719999999993,6.64,0,0
-0.00128298568,0.00143142,0.0006932488000000001,0.0088333456,-0.0006481568,6.641,0,0
-0.00237461368,0.0037295719999999996,0.0007789738000000001,0.011068910000000001,-0.0015033828,6.642,0,0
-0.0032683194,0.0054741139999999995,0.0010409016,0.010879314000000001,-0.002201362,6.643,0,0
-0.0041919340000000005,0.006271164,0.0009103210000000002,0.008920702,-0.0025142220000000004,6.644,0,0
-0.00416153,0.0062978800000000005,0.0009278648000000001,0.006696202800000002,-0.002585202,6.645,0,0
-0.0029463858,0.0051430878,0.0011793466000000002,0.0032949708000000006,-0.002677798,6.646,0,0
-0.0012003618,0.0028167498,0.0011912088,-0.0007043772000000002,-0.0030165200000000004,6.647,0,0
0.0009280642,0.0003585658,0.0011139868,-0.0034308192000000004,-0.0032061340000000002,6.648,0,0
0.0028975102000000003,-0.0018388942,0.001086192,-0.0052292672,-0.003378884,6.649,0,0
0.0044011282,-0.0032715162,0.0006353494,-0.00647987,-0.003529898,6.65,0,0
0.004773502000000001,-0.00344342434,0.000282389,-0.0063501880000000005,-0.0029130806,6.651,0,0
0.003674368,-0.002859275096,0.000254524,-0.004834614000000001,-0.0017512905999999997,6.652,0,0
0.0017998500000000002,-0.0019973770960000003,-4.8243080000000004e-05,-0.0032291713999999996,-0.0005447425999999997,6.653,0,0
0.0001811139999999999,-0.0012831330960000002,-9.151679999999988e-06,-0.0012214894000000002,0.0008713714000000003,6.654,0,0
-0.0008454136000000003,-0.001157225096,0.00045439432,0.0010070326000000001,0.0020972294,6.655,0,0
-0.0017784916,-0.000909520756,0.00064916072,0.0028089866000000005,0.0024948640000000003,6.656,0,0
-0.0025404536,3.11799999999999e-05,0.00038163292000000003,0.004574452600000001,0.0026967980000000003,6.657,0,0
-0.0033425756,0.0013613560000000002,0.0005227458000000001,0.006502118000000001,0.00274008,6.658,0,0
-0.0043133016000000005,0.002828198,0.0007320078000000001,0.007786846,0.0021443584,6.659,0,0
-0.005206582,0.004142268,0.0005742808,0.007443232000000001,0.0015751918000000001,6.66,0,0
-0.004853765,0.0039557644,0.0007597048,0.006224329800000001,0.0015078458,6.661,0,0
-0.003527927,0.0025235704,0.0011847008000000002,0.004374341800000001,0.0013917538000000002,6.662,0,0
-0.0019010782000000001,0.0009926084,0.001257481,0.0012020558,0.0010088076,6.663,0,0
0.00030588580000000015,-0.0010223056,0.0009192935999999999,-0.0023061402,0.0009301955000000002,6.664,0,0
0.0022644518,-0.0033662476000000004,0.0005980886000000001,-0.0047422882,0.0008604099000000001,6.665,0,0
0.0031731788000000003,-0.005421110000000001,-8.072340000000002e-05,-0.006656066,0.00035079330000000017,6.666,0,0
0.0029762950000000003,-0.006316248000000001,-0.0008421294000000001,-0.008215028000000001,-0.0001606945,6.667,0,0
0.0032551422000000004,-0.006022321400000002,-0.0015450654000000001,-0.008385430000000001,-0.00037506970000000003,6.668,0,0
0.0039777122000000005,-0.004589281400000001,-0.002074072,-0.007512048,-0.0005320704000000001,6.669,0,0
0.0038049582000000003,-0.0024145914,-0.0024154940000000002,-0.006150138000000001,-0.0007319462000000001,6.67,0,0
0.0029175882,-0.00010086940000000031,-0.0029192099999999998,-0.003506286000000001,-0.0008075090000000001,6.671,0,0
0.0020353,0.0020968906,-0.002941,-0.00020408800000000027,-0.0010342312,6.672,0,0
0.00048687800000000027,0.003073704,-0.0027028919999999997,0.002071194,-0.0012449038,6.673,0,0
-0.002199518,0.00305798,-0.0024825259999999997,0.004070644,-0.0012663948000000002,6.674,0,0
-0.003975288,0.0032293520000000004,-0.002106274,0.006033256,-0.0013327228,6.675,0,0
-0.004301482000000001,0.0036883560000000003,-0.0011691994,0.006095620000000001,-0.0013668054,6.676,0,0
-0.0038083780000000003,0.003448518,0.00012292459999999994,0.004725232000000001,-0.0010922808,6.677,0,0
-0.0029196694000000003,0.0027720794,0.0012754705999999999,0.0036283116000000006,-0.0006034488,6.678,0,0
-0.0022085514,0.0024404214,0.0026600805999999998,0.0020308076000000006,-0.00044499939999999993,6.679,0,0
-0.0015176654,0.0019085444000000004,0.0038810486,-0.0007456504000000001,-0.00026942360000000007,6.68,0,0
-0.0006656014,0.0008683704000000002,0.004159932000000001,-0.0028153304000000006,0.00013240059999999998,6.681,0,0
0.00015900060000000006,-0.0005257156,0.0031122700000000003,-0.0036201024000000006,0.0004445928,6.682,0,0
0.0009715300000000001,-0.002196763,0.0017207940000000003,-0.004534472000000001,0.0006436308000000001,6.683,0,0
0.002425266,-0.004121625,0.0003435519999999999,-0.004973994000000001,0.0012174548,6.684,0,0
0.0030852,-0.005177456,-0.00100533,-0.003936269,0.001792413,6.685,0,0
0.0024427266000000003,-0.004583212,-0.0014675172,-0.0028508047999999996,0.0017259362,6.686,0,0
0.0021573246000000006,-0.002474780000000001,-0.0014534612000000001,-0.0024649768,0.0017003556,6.687,0,0
0.0018101386,0.000753622,-0.0012263532,-0.0013554867999999998,0.0015911896,6.688,0,0
0.0009017043999999999,0.0030906279999999998,-0.0009018901999999999,3.219520000000001e-05,0.00104002748,6.689,0,0
0.0006019098,0.00366751,-0.0005698477999999999,0.0007701522000000001,0.0005058904800000001,6.69,0,0
0.0012058492,0.002974988,-0.0003940912,0.0016092760000000002,0.00027337948,6.691,0,0
0.0009252282,0.0012684380000000002,-8.197739999999999e-05,0.0028486880000000003,-0.00019935072000000004,6.692,0,0
0.0003084302,-0.0006068764,0.00043146860000000005,0.003468022,-0.0010225367200000003,6.693,0,0
0.0003843146,-0.0012721776000000002,0.0009203036,0.002951952,-0.0014187186,6.694,0,0
-6.422080000000003e-05,-0.0010761944,0.0012311072,0.002444435,-0.0014650058000000002,6.695,0,0
-0.0006596052,-0.0012327824,0.0009359941999999998,0.0016472184,-0.0017528522000000001,6.696,0,0
-0.00041671819999999996,-0.0009542932,0.0007115394,0.00016502239999999983,-0.0016939382000000004,6.697,0,0
-0.00024254500000000004,-0.00022444079999999985,0.00042358879999999997,-0.0006560198,-0.001091268,6.698,0,0
-0.0002831366,-3.006199999999856e-06,-0.0002643712,-0.000893256,-0.000718868,6.699,0,0
0.0004831734,-0.0003729233999999999,-0.0008519032000000002,-0.0015485530000000003,-0.0005863379199999999,6.7,0,0
0.0010265558,-0.00028925339999999987,-0.0008457416000000001,-0.0018634544,-0.00014040712,6.701,0,0
0.0008675223999999999,-0.00045661260000000005,-0.0008371992000000001,-0.0010457744,0.00039926088,6.702,0,0
0.0010387388800000002,-0.0017425966,-0.0011084886000000001,-0.0005618702,0.00057478668,6.703,0,0
0.00114083828,-0.002412838,-0.0011415706000000002,-0.00047815139999999993,0.00072474548,6.704,0,0
0.00061822828,-0.0021522380000000003,-0.0013302886,0.0006298146,0.0008290482,6.705,0,0
0.00015906248,-0.0015809588000000004,-0.0014832606,0.0017230686000000001,0.0009354774,6.706,0,0
0.00017597008,-0.0006918208000000001,-0.0013452449599999998,0.0017882806,0.0009182054,6.707,0,0
-0.0002828396,0.00041266120000000016,-0.0011582639600000002,0.0023222425999999997,0.000788719,6.708,0,0
-0.0013168836,0.0009747780000000001,-0.0006544559599999999,0.003453426,0.0007456238,6.709,0,0
-0.0019047036000000002,0.0016980520000000002,0.00017767404000000004,0.00316134,0.0008324892,6.71,0,0
-0.0024316918,0.0031914428000000003,0.0006775200400000001,0.00247998696,0.0010403812,6.711,0,0
-0.0025966392,0.004160084800000001,0.0008562162000000001,0.0024379909599999998,0.0010674792000000002,6.712,0,0
-0.0014703452000000006,0.0042732328,0.0008475238,0.00121658696,0.0010346178,6.713,0,0
0.00011554479999999992,0.004063353600000001,0.0004396386,-0.00079076904,0.0009106336000000001,6.714,0,0
0.0011566848000000001,0.0034743974000000003,-0.00034003740000000004,-0.00190544704,0.0007530040000000002,6.715,0,0
0.0014513848000000003,0.0020861214,-0.0010307454000000001,-0.002792512,0.00043575480000000006,6.716,0,0
0.00109698,-5.025460000000011e-05,-0.0011315169999999999,-0.003951282,0.00017610080000000003,6.717,0,0
0.00024306039999999994,-0.0021607606000000005,-0.0007963776,-0.004014784,0.00044784860000000003,6.718,0,0
-0.0008365376,-0.0028553482000000002,-0.0002022144,-0.0032564378,0.0008299192,6.719,0,0
-0.0011335212,-0.0028839336000000006,0.0008709776,-0.0028095738,0.0008352274,6.72,0,0
-0.0005283032,-0.0034190856000000007,0.0018470456,-0.002009721,0.0009542194,6.721,0,0
-0.0002213378,-0.0031103716000000004,0.002342102,-0.000743329,0.0012022734000000001,6.722,0,0
-0.00026192019999999997,-0.0015831670000000003,0.0029329860000000003,-0.00028855784,0.0007966034,6.723,0,0
-0.0002660562,-0.000303977,0.0026871556,8.186536000000006e-05,0.00036585340000000005,6.724,0,0
-0.0005324482,0.0006348966,0.0016214576,0.0012874673600000001,0.0004989856000000001,6.725,0,0
-0.0009420766,0.0014895946,0.0008142556000000003,0.0017208085600000003,0.00039717880000000004,6.726,0,0
-0.00043149400000000004,0.0022341566000000004,-2.0002400000000004e-05,0.00151277396,-0.00017972719999999998,6.727,0,0
0.000592236,0.0026859,-0.0009769140000000002,0.0022252408,-0.0005051372,6.728,0,0
0.001252988,0.0019934340000000005,-0.0012662544000000002,0.0025141154,-0.0008957872,6.729,0,0
0.0017273396,0.00021994400000000013,-0.0005695164,0.0012329054,-0.0014387260000000002,6.73,0,0
0.002170944,-0.001595542,0.00024085959999999994,0.0004919233999999999,-0.001499522,6.731,0,0
0.0019145100000000003,-0.0022103714,0.0005880550000000001,0.0005720600000000001,-0.0012243660000000002,6.732,0,0
0.0010776034,-0.0019747954000000002,0.0005666256,-0.000389638,-0.001180378,6.733,0,0
0.0010287174,-0.0021383734,0.0006888450199999999,-0.001367018,-0.0011166820000000001,6.734,0,0
0.00017678140000000012,-0.0019931054,0.0002143070199999999,-0.0006750992,-0.001060668,6.735,0,0
-0.0011909606,-0.0005343554,-0.00091101498,-0.00020492540000000004,-0.001525956,6.736,0,0
-0.0010389365999999998,0.00030660400000000014,-0.0013055303800000003,-0.0009457694000000001,-0.0014613892,6.737,0,0
-0.0008707345999999997,0.00017731000000000018,-0.0013767253800000003,-0.0007787886000000001,-0.0005975631999999999,6.738,0,0
-0.0012277807999999998,0.0005221244000000001,-0.0015728238000000002,-0.00011484120000000003,3.46128e-05,6.739,0,0
-0.0002022087999999999,0.0009298584,-0.0012051418000000001,-0.0003415614000000001,0.00035924700000000004,6.74,0,0
0.0012106592,0.0011075764,-0.00021727779999999993,-0.0004046503,0.0011144890000000002,6.741,0,0
0.0009126291999999999,0.0010853044000000002,0.0006435042000000001,0.0002535041,0.0014004282,6.742,0,0
0.0007468271999999999,0.0007500410000000001,0.0012073462000000003,0.00043417350000000005,0.0009097010000000001,6.743,0,0
0.0006748726,0.0002915725999999999,0.0014310008000000003,0.00037806050000000006,0.0008341064000000001,6.744,0,0
-0.0003594674,0.000651773,0.0011577640000000004,0.0008003079000000001,0.0007766244000000001,6.745,0,0
-0.0013302694,0.001235249,0.0005577640000000001,0.0007188044000000001,0.0003619554000000001,6.746,0,0
-0.0020257494000000004,0.0009279449999999999,-0.00024300399999999995,8.794200000000003e-05,5.8401999999999886e-06,6.747,0,0
-0.0021593318,0.0007132117999999999,-0.000820044,6.82318e-05,-2.9462999999999996e-05,6.748,0,0
-0.001662353,0.0012403537999999999,-0.0008790654000000001,0.0002615874,-0.00010262419999999999,6.749,0,0
-0.0009182044000000002,0.0009765553999999999,-0.0004954886,-0.000272179,-0.000191146,6.75,0,0
-0.0005676364000000002,0.00010860360000000005,-6.172599999999969e-06,-0.00032668480000000005,2.7401600000000005e-05,6.751,0,0
-0.0001886304,-4.9932400000000064e-05,-2.1280599999999974e-05,0.0001543684,0.00012743999999999999,6.752,0,0
0.0006554846,-0.0011650138000000002,-0.0005183026,-2.443920000000005e-05,-0.0001036076,6.753,0,0
0.0008382626000000001,-0.0029293398000000003,-0.001153848,-0.0005952752,-0.0002738128,6.754,0,0
0.0011993260000000001,-0.0033389938000000004,-0.0017784460000000001,-0.0009059568,-0.00017796240000000002,6.755,0,0
0.002400844,-0.00288424,-0.0021176022,-0.0012758324,-0.0003180952,6.756,0,0
0.0027869082000000003,-0.0025460500000000002,-0.0014647102000000002,-0.0018919295999999999,-0.00048325880000000003,6.757,0,0
0.0019602100000000004,-0.0014097685999999998,0.0003625618,-0.002022772,-0.0002471416,6.758,0,0
0.0013048586,0.0008347593999999999,0.0018269678000000001,-0.0016289965999999997,-0.0002150528,6.759,0,0
0.0008294449999999998,0.0023144214,0.0024077798000000004,-0.0012582094,-0.00031865919999999996,6.76,0,0
-0.0001826296,0.0024320034,0.0027519260000000005,-0.0008251704,-0.0003531014,6.761,0,0
-0.0009108198000000002,0.0023642534000000003,0.0023563458180000003,0.0001077036,-0.000472269,6.762,0,0
-0.0010364196,0.0022971326,0.001219160018,0.0005223716000000001,-0.00030826980000000007,6.763,0,0
-0.0009642146000000001,0.0014746266,0.00027323021800000006,0.0005346070000000001,7.362039999999996e-05,6.764,0,0
-0.001739239,0.0010077566000000003,6.356915800000003e-05,0.0011158578000000003,0.00014805639999999998,6.765,0,0
-0.0026210924,0.0010447786,0.000216465158,0.0014387448,0.00039329959999999994,6.766,0,0
-0.0020599465999999998,0.0005405520000000001,0.00039680754,0.0011887556,0.0007744894,6.767,0,0
-0.0014542965999999999,-1.1574599999999969e-05,0.00080900934,0.0013657496000000003,0.0005657582,6.768,0,0
-0.0014884255999999998,-0.0004599926000000001,0.00112719894,0.0017196427999999998,0.000382286,6.769,0,0
-0.0009336938,-0.0013071686000000002,0.000788894,0.0011632034000000002,0.0004869386,6.77,0,0
8.56946e-05,-0.0019932242000000005,-2.6067999999999968e-05,0.0007945806,0.00047822360000000005,6.771,0,0
0.00019337060000000004,-0.0016218436000000006,-0.0007406422,0.0011277418,0.0005329018,6.772,0,0
-0.0001627794,-0.0007037576000000004,-0.0019456122000000003,0.0009208904000000001,0.0004007229999999999,6.773,0,0
1.946840000000001e-05,1.9994199999999986e-05,-0.003075202,0.00037502900000000003,-0.00015125480000000003,6.774,0,0
-0.00014051540000000002,0.0003230742000000001,-0.003242506,0.0007207483999999999,-0.0003742846000000001,6.775,0,0
-0.0002833654,0.00015155779999999995,-0.0031823300000000006,0.0012321072000000001,-0.0007743884,6.776,0,0
0.0004596668,-0.0003774566,-0.0026137570000000004,0.0010069292000000002,-0.0015255244,6.777,0,0
0.0007781788000000001,-0.0009335926,-0.0016801826,0.0012316566,-0.0014629726,6.778,0,0
0.000485127,-0.0007353976,-0.0006169538,0.0016501120000000002,-0.0010565026,6.779,0,0
0.0007022914,5.8162400000000085e-05,0.00045322820000000003,0.001176434,-0.0008875097999999999,6.78,0,0
0.0006187456000000001,0.0006754324,0.0012272062,0.0006449342000000002,-0.0004140677999999999,6.781,0,0
-0.0005411044,0.0012591108,0.0016567292,0.0006194180000000002,0.0002326316,6.782,0,0
-0.0008642848,0.0010399988,0.0018252608000000003,9.353379999999998e-05,0.00026201,6.783,0,0
-0.00038573340000000006,-1.526000000000023e-05,0.0019146114000000002,-0.0005438782000000001,0.0003551156,6.784,0,0
-0.00022611940000000005,-0.0006567032000000001,0.0013961340000000003,-6.52942000000001e-05,0.0010327096000000001,6.785,0,0
0.0002965880000000001,-0.0007811932000000001,0.0008517150000000002,-8.48758000000001e-05,0.0011303016000000002,6.786,0,0
0.001151338,-0.0010883196000000001,0.0004663786000000001,-0.0010218316000000002,0.0007020662000000001,6.787,0,0
0.0015479484,-0.0008174116000000001,-2.0094000000000286e-06,-0.0012492034,0.0009245732000000001,6.788,0,0
0.0014110514,-4.448160000000004e-05,-0.00032331680000000003,-0.0014403694,0.0011591636000000002,6.789,0,0
0.001672517,-0.00048322040000000005,-0.0005044298000000001,-0.0024941574,0.0003752488000000001,6.79,0,0
0.0017648030000000001,-0.0016993964000000003,-0.0006646608,-0.002908234,4.2520400000000034e-05,6.791,0,0
0.0011047630000000001,-0.0029315260000000003,-0.0007686380000000001,-0.002381346,0.0004283824000000001,6.792,0,0
0.0006571551999999999,-0.003136636,-0.00040363100000000005,-0.0022616259999999997,7.478020000000008e-05,6.793,0,0
0.0012320282,-0.002181166,-0.00017986600000000004,-0.0017529190000000001,-0.00041924500000000006,6.794,0,0
0.0019182062,-0.0010873439999999996,6.070120000000003e-05,-0.000686933,-0.0005620542,6.795,0,0
0.0014906756200000002,0.00031529400000000025,0.0003787776,-0.00011816582000000002,-0.0009867838,6.796,0,0
0.00037267562000000017,0.0018480260000000002,0.0001872052,-5.882702000000001e-05,-0.0014589858000000002,6.797,0,0
-0.00026769657999999984,0.0024317210000000004,-9.37162e-05,0.0005567449800000001,-0.0016301212,6.798,0,0
-0.0006132245799999998,0.0025351390000000005,-0.00018386626,0.00137026398,-0.0018133939999999999,6.799,0,0
-0.0017850683800000001,0.002935491,-0.00018224525999999998,0.00122349818,-0.001974536,6.8,0,0
-0.0022136858,0.0027412450000000002,-0.00013122926,0.0012420040000000001,-0.00212777,6.801,0,0
-0.0011096338,0.0025413636,-0.00015054925999999998,0.0016052772,-0.0022784500000000004,6.802,0,0
-0.0006432898000000001,0.0028673066,-0.00036006085999999997,0.0009994692,-0.002196576,6.803,0,0
-0.0010474282,0.0023961426,-0.000406761,-0.00035623680000000007,-0.0018667746,6.804,0,0
-0.0008218669999999999,0.0009282406000000001,-0.0005913006,-0.000886187,-0.0013863789999999999,6.805,0,0
-0.0003281392,-0.0003805913999999999,-0.0008156757999999999,-0.001151806,-0.0009340078,6.806,0,0
-0.00012781719999999997,-0.001361868,-0.00034389780000000013,-0.00200204,-0.00023687219999999994,6.807,0,0
-0.00024898520000000003,-0.002432846,0.0001987676,-0.002032676,0.0006498918,6.808,0,0
-0.0007948288000000001,-0.00269118,0.0004086074,-0.0011930320000000001,0.0011350944,6.809,0,0
-0.0008825322000000002,-0.0019406580000000003,0.0006805412,-0.0007959843400000002,0.0011844626,6.81,0,0
-0.00045852800000000015,-0.0013487920000000001,0.0007210422,-0.00052896354,0.00134537656,6.811,0,0
-0.00022610400000000008,-0.0005988294000000001,0.0004694482,0.00089327446,0.00140400296,6.812,0,0
0.00031196619999999996,0.00014260359999999998,0.00045347340000000006,0.00178535846,0.0007595529600000001,6.813,0,0
0.0010682232,0.00010216859999999998,0.0004642932,0.00152715046,0.00016199256,6.814,0,0
0.0005913832,0.00036243260000000003,0.0004873312,0.0023735228,0.00017983256,6.815,0,0
-0.0005036148,0.0013044426,0.0006069624,0.002877282,0.0001975036,6.816,0,0
-0.0010911248,0.001709994,0.00063137256,0.0019459704000000001,-0.0002338924,6.817,0,0
-0.0015366470000000001,0.0013656616,0.00085854596,0.00146041,-0.0001387218,6.818,0,0
-0.0017229240000000002,0.0015184845999999998,0.00105535556,0.0012462368000000002,0.00029582860000000003,6.819,0,0
-0.0009050480000000001,0.0016793446,0.0012908555600000002,-0.0002525092,-0.0001285212,6.82,0,0
0.000552486,0.0008010926,0.0016757781600000002,-0.0015662592,-0.00045925940000000003,6.821,0,0
0.0013067680000000003,-0.0001892134,0.0017409526,-0.0015991846,-0.000132429,6.822,0,0
0.0015568018000000003,-0.0009724,0.0017148906,-0.0023164362000000003,-3.91988e-05,6.823,0,0
0.0009597638,-0.002409924,0.001428906,-0.003034567,-0.00015622079999999997,6.824,0,0
-0.0006256022000000001,-0.0034615620000000005,0.00044156,-0.0023733206400000004,0.0004495492000000001,6.825,0,0
-0.00148601928,-0.002824154,-0.000497196,-0.0014942424400000002,0.0009812392000000001,6.826,0,0
-0.0011600412800000003,-0.0023082351999999997,-0.0013240126,-0.00145630864,0.0012149648,6.827,0,0
-0.0009016750800000003,-0.0015413512000000001,-0.0025921826,-0.0005658106400000001,0.002019876,6.828,0,0
-0.00022069468000000014,0.0004870928000000001,-0.0034566600000000003,0.0010688393600000001,0.002542928,6.829,0,0
0.00124158372,0.0015361388,-0.0036939420000000004,0.001329993,0.0025468920000000003,6.83,0,0
0.0010526886000000002,0.0015303228,-0.0036131380000000005,0.0015628268,0.0026590439999999997,6.831,0,0
-1.853139999999999e-05,0.002262752,-0.0031621960000000004,0.002847886,0.0025729000000000004,6.832,0,0
-0.00027264719999999995,0.0026449564000000005,-0.0025236940000000004,0.0037121840000000003,0.00163344092,6.833,0,0
-0.0004227142,0.0012851444,-0.0015969346000000001,0.003383072,0.00062347292,6.834,0,0
-0.0009961506,0.0008855263999999999,-0.0003376805999999999,0.003480394,0.00015521871999999996,6.835,0,0
-0.0012424024,0.0013449724,0.0010002474000000003,0.00358037,-0.00017024940000000006,6.836,0,0
-0.0002759384,0.00030534039999999995,0.0021806374,0.00205125,-0.00048404180000000005,6.837,0,0
0.0007355614000000001,-0.0004528820000000001,0.0031018634,0.00022717400000000013,-0.0006186395200000001,6.838,0,0
0.001289602,2.4177000000000145e-05,0.003835504,-0.0007485519999999999,-0.00045563652,6.839,0,0
0.002258378,-2.851299999999995e-05,0.0038606680000000003,-0.001949562,-0.00046749672,6.84,0,0
0.0034146640000000004,-0.0010549410000000002,0.0030702100000000003,-0.0031082360000000003,-0.0003756628000000001,6.841,0,0
0.0031261460000000007,-0.0015243610000000001,0.00248103,-0.0029137168,-9.009040000000005e-05,6.842,0,0
0.0023391880000000003,-0.0017990690000000001,0.0017623412,-0.0027237988,3.9815899999999986e-05,6.843,0,0
0.0020775040000000004,-0.002671838,0.0007235346000000003,-0.0028081788,0.0003961209,6.844,0,0
0.0009806040000000002,-0.0026621580000000004,0.0001675508,-0.0018449738,0.0007289573,6.845,0,0
-0.0006190120000000001,-0.0017084560000000001,-9.500699999999998e-05,-0.0008321397999999998,0.0004445737,6.846,0,0
-0.002076398,-0.0009402967999999998,-0.00048020560000000003,-0.001001513,0.0001639531,6.847,0,0
-0.0032390900000000005,3.123980000000017e-05,-0.0006645108,-0.000797057,0.00016020036000000002,6.848,0,0
-0.004019166,0.0016796698000000002,-0.0007450642,0.00047211299999999997,-0.00037470964,6.849,0,0
-0.003929958000000001,0.0027007258000000004,-0.0008632522,0.001071784,-0.0008265016400000001,6.85,0,0
-0.002863301,0.0026009018,-0.0007565782000000001,0.0013100780000000001,-0.0007287592400000002,6.851,0,0
-0.001222573,0.0020842546000000004,-0.0006901568000000001,0.002300434,-0.00058473364,6.852,0,0
0.0002017469999999999,0.0010806280000000001,-0.0006532614000000001,0.0025766956,-0.0005157516,6.853,0,0
0.0007923762,-3.5203999999999834e-05,-0.0008004314,0.0011898176,-0.0001441154,6.854,0,0
0.0009183882000000001,-0.001203066,-0.0010811916,1.737159999999979e-05,0.00039514860000000005,6.855,0,0
0.0007910063999999999,-0.0017418017999999997,-0.0016539718,-0.0008343164000000001,0.00034042960000000004,6.856,0,0
0.0010206144000000001,-0.0008650897999999998,-0.0024578426000000002,-0.0021831344,9.17914e-05,6.857,0,0
0.0009970164,0.0008175942,-0.0028396320000000004,-0.002442998,0.00018380300000000004,6.858,0,0
0.0009217296,0.0020236802,-0.002954956,-0.0017040572200000001,0.0004038268000000001,6.859,0,0
0.0021332016,0.0015579062,-0.0026839922,-0.00180259122,0.0002292474000000001,6.86,0,0
0.0029452704,0.0006753699999999999,-0.0020590682,-0.00164392802,0.0002953434000000001,6.861,0,0
0.0018923264,0.0009161779999999998,-0.0013146216,-0.00028720001999999996,0.0005625876000000001,6.862,0,0
0.0010053964,0.00123594,-0.00044935360000000003,0.00031648598,-4.112879999999998e-05,6.863,0,0
0.0006339779999999999,0.0014242480000000001,0.0004216964,0.0007445492,-0.0009585708,6.864,0,0
-0.000898462,0.0026539840000000003,0.0009944926,0.0024578072000000003,-0.0015954394,6.865,0,0
-0.002098242,0.003964654,0.0015526166000000004,0.003779344,-0.002238039,6.866,0,0
-0.0019362182,0.004253484,0.0020871180000000007,0.0038346620000000004,-0.003161846,6.867,0,0
-0.0019849541999999998,0.003903892,0.0019038438000000004,0.004227604,-0.003503564,6.868,0,0
-0.0030794562,0.0040786699999999995,0.00153479966,0.0047549260000000005,-0.003261386,6.869,0,0
-0.0040869902,0.005344246,0.00121151006,0.0037166126,-0.002933938,6.87,0,0
-0.0041932042,0.006767588,0.00099464806,0.0023080726,-0.0020864451999999998,6.871,0,0
-0.0038602033999999997,0.007155956,0.0012553800600000001,0.0015279038,-0.0010077471999999999,6.872,0,0
-0.0025088054000000004,0.005822478,0.00192731826,-0.00030881620000000024,-0.00017196420000000005,6.873,0,0
8.63986000000001e-05,0.0020359199999999997,0.0028085484000000003,-0.0033616782000000004,0.00011188499999999996,6.874,0,0
0.0023949846000000004,-0.0038708400000000004,0.0033174940000000007,-0.005645256800000001,0.0002576388,6.875,0,0
0.0037000066000000002,-0.00988725,0.0030185462,-0.0070333928000000006,0.00022626579999999996,6.876,0,0
0.004115774000000001,-0.014730132,0.0020297182000000003,-0.008226552000000002,6.438139999999999e-05,6.877,0,0
0.0030688382,-0.0166288,0.0008255422000000001,-0.007868452,0.0003377824,6.878,0,0
0.002065763,-0.015523128,-0.0006563878,-0.005539486000000001,0.0008064452,6.879,0,0
0.002228941,-0.013109451999999999,-0.0017986098000000003,-0.00304061,0.0014817714000000001,6.88,0,0
0.0022355150000000004,-0.010130244,-0.0020758180000000005,-0.0011117100000000001,0.0021821836,6.881,0,0
0.0022498970000000003,-0.007332364000000001,-0.0020153,0.0009121860000000002,0.0026097180000000005,6.882,0,0
0.0026665508000000004,-0.005290094,-0.0017854982,0.002020156,0.0024916400000000003,6.883,0,0
0.0030644800000000005,-0.004529242,-0.0015530982000000002,0.001447608,0.0020695634000000005,6.884,0,0
0.0031982720000000003,-0.004631004000000001,-0.0016724602000000002,0.0010350308000000002,0.0013966871999999998,6.885,0,0
0.003196988,-0.005153098000000001,-0.0021083042,0.0006020656,0.0003757952,6.886,0,0
0.003258702,-0.006891798000000001,-0.0024577982000000003,-0.0011691124,-0.0003116398,6.887,0,0
0.0034729000000000006,-0.010361728000000002,-0.0031554820000000003,-0.0023660944,-0.0005446764,6.888,0,0
0.0030878692,-0.012723852000000003,-0.0038641540000000003,-0.0022144622,-0.00041470280000000003,6.889,0,0
0.0022421870000000005,-0.011776024000000001,-0.004102902,-0.0023314842,2.0253399999999998e-05,6.89,0,0
0.001873301,-0.008623816000000001,-0.004129042,-0.002019348400000001,0.0008285154000000001,6.891,0,0
0.0007477590000000002,-0.0031180560000000014,-0.0037945200000000004,2.6549600000000048e-05,0.0019465044,6.892,0,0
-0.001028795,0.004682184000000001,-0.0028491024,0.0021847416000000002,0.0030767290000000003,6.893,0,0
-0.0023668762,0.012622004000000001,-0.0014560484000000003,0.0037948094000000003,0.004127576,6.894,0,0
-0.003952794000000001,0.019366282000000002,-6.721440000000009e-05,0.006082292600000001,0.004544573999999999,6.895,0,0
-0.005597032,0.02491586,0.0015461016,0.007775622,0.004116143399999999,6.896,0,0
-0.005787410000000001,0.0285259,0.0026641196,0.007927216,0.0032245416,6.897,0,0
-0.005294896,0.02930742,0.0033663979999999996,0.007787098000000001,0.0020066097999999997,6.898,0,0
-0.005050150000000001,0.027037520000000002,0.004414431999999999,0.00717337,0.0008069444,6.899,0,0
-0.0039662280000000005,0.021192948,0.0051530180000000005,0.004970453600000002,-0.00023301160000000002,6.9,0,0
-0.0025227540000000003,0.012332342,0.005143114000000001,0.0022982876000000006,-0.001080971,6.901,0,0
-0.00132299,0.0036516619999999995,0.004923216000000001,0.00010320560000000008,-0.0018037472000000001,6.902,0,0
-0.00035655940000000014,-0.003442678,0.004618192,-0.0025709704000000002,-0.0025331414,6.903,0,0
0.000719532,-0.009571998,0.0033813164000000002,-0.0051568944000000005,-0.003188728,6.904,0,0
0.0019798180000000004,-0.014073986,0.0017975324000000003,-0.006087696,-0.003617232,6.905,0,0
0.002111356,-0.01576638,0.0003196443999999999,-0.006056342,-0.003531892,6.906,0,0
0.0018898060000000002,-0.015381542,-0.0009050116,-0.0060254060000000005,-0.0030005716000000003,6.907,0,0
0.0029657574000000004,-0.014164442,-0.0017774716,-0.0046113888,-0.0019518976000000004,6.908,0,0
0.003718756,-0.0106341,-0.0024130420000000002,-0.0021391928,-0.0008400276000000003,6.909,0,0
0.0027805036000000003,-0.0048923,-0.0024775860000000004,-0.0006447308000000001,-6.463220000000001e-05,6.91,0,0
0.0013613516000000004,0.0016142200000000004,-0.00226654,0.0009604132000000001,0.0006013418000000001,6.911,0,0
-0.0005838003999999997,0.009206002000000001,-0.0016187172,0.0033055052000000003,0.0011153934000000002,6.912,0,0
-0.0032469044000000002,0.016723322,-0.0006508352000000002,0.004498806,0.0010191176000000001,6.913,0,0
-0.0051836904,0.02074098,0.00048385880000000015,0.0049573840000000004,0.0001845336000000001,6.914,0,0
-0.0059925759999999995,0.021097814,0.0016330848000000002,0.005304636000000001,-0.0005265018,6.915,0,0
-0.005797587999999999,0.018377647999999996,0.0026313628,0.004633564200000001,-0.0013473018,6.916,0,0
-0.004458597999999999,0.010993398000000001,0.0030465040000000002,0.0029819642,-0.0028719078,6.917,0,0
-0.0028849285999999995,0.0019322979999999994,0.002786196,0.0011821402000000002,-0.00405303,6.918,0,0
-0.0015655526000000002,-0.005507782000000001,0.0024357579999999997,-0.0007201578,-0.004259272000000001,6.919,0,0
-0.00024802660000000003,-0.011743836,0.0015884478,-0.0029841858,-0.004222002,6.92,0,0
0.0012392134,-0.01665435,0.0005721958,-0.004868620000000001,-0.0038288319999999995,6.921,0,0
0.0026565674000000004,-0.019070100000000003,-0.0001334122,-0.005861484,-0.0027198379999999996,6.922,0,0
0.0034982800000000003,-0.019059120000000002,-0.0006732882,-0.006514753999999999,-0.0014538182,6.923,0,0
0.003688246,-0.01764214,-0.0014954062,-0.007144563999999999,-0.0004147582,6.924,0,0
0.0032397482000000003,-0.014103090000000002,-0.0021220220000000003,-0.0062677240000000006,0.0008475598000000001,6.925,0,0
0.0023492934000000003,-0.008231688,-0.002172938,-0.00408314,0.0021812918000000004,6.926,0,0
0.0009635794000000001,-0.001972948,-0.0022279160000000004,-0.0022400040000000003,0.0030254758000000004,6.927,0,0
-0.0005103666000000001,0.0034494320000000005,-0.0020586922000000005,4.391799999999978e-05,0.003820518,6.928,0,0
-0.0015618506000000002,0.008204112000000001,-0.0012983682,0.003218526,0.004270530000000001,6.929,0,0
-0.0021064188000000004,0.011592642,-0.00040606119999999995,0.00525081,0.0038427840000000006,6.93,0,0
-0.002367176,0.012847340000000002,1.989679999999993e-05,0.005885538000000001,0.0030537486000000004,6.931,0,0
-0.002636558,0.012215971999999999,0.00048237279999999996,0.006418980000000001,0.0025796846000000003,6.932,0,0
-0.0023397380000000005,0.009602292000000002,0.000834637,0.0055817922,0.0019488006000000003,6.933,0,0
-0.0015099442000000001,0.00553785,0.000857799,0.0033113102,0.0012730074,6.934,0,0
-0.0004846062,0.0008080300000000004,0.0009711700000000001,0.0016175282,0.0011362838000000001,6.935,0,0
0.0007714057999999999,-0.00427899,0.0011479398,4.757619999999998e-05,0.0006184272,6.936,0,0
0.0022085798,-0.008629842,0.0013529638000000003,-0.0020208158,-0.0004919708,6.937,0,0
0.0034009338,-0.011044082,0.0017320118000000002,-0.0030578240000000002,-0.0011748468,6.938,0,0
0.004086656,-0.011300396,0.0016308664,-0.003387944,-0.0013541574,6.939,0,0
0.00411359,-0.010190004,0.0009280523999999999,-0.003989654,-0.0015745928000000001,6.94,0,0
0.0034789498,-0.008568008,0.00031551059999999974,-0.004044112,-0.0011623806000000002,6.941,0,0
0.0024362632,-0.006260280000000001,-0.0008818314000000002,-0.0028877411999999997,-0.0001116186,6.942,0,0
0.0005512252000000002,-0.0031456080000000003,-0.0025615614,-0.0012651132,0.0006396774000000001,6.943,0,0
-0.0010848968,-0.0002439380000000004,-0.0037269160000000003,0.00021067679999999997,0.0012979792000000002,6.944,0,0
-0.0019320788,0.002240952,-0.0039769440000000005,0.0022530768,0.0020388482000000003,6.945,0,0
-0.0028423386,0.005205016,-0.0036618658,0.004198458800000001,0.002208402,6.946,0,0
-0.00328857,0.007891348,-0.0028605876,0.005100684,0.0020057788,6.947,0,0
-0.0035922820000000005,0.00909814,-0.0014347016,0.005697982,0.0017499222,6.948,0,0
-0.004066028,0.009068722000000001,0.0001352984000000001,0.00613915,0.0007928542,6.949,0,0
-0.0032118740000000004,0.0075944196,0.0011992484000000001,0.005190272,-0.0004556198,6.95,0,0
-0.0010725239999999998,0.0043777416,0.0016401182,0.003709293800000001,-0.0011699958000000001,6.951,0,0
0.0005759540000000003,5.516159999999952e-05,0.0017242112,0.0024734778000000007,-0.0017293946000000002,6.952,0,0
0.002640914,-0.004496902400000001,0.0014994012,-6.46281999999998e-05,-0.0022498360000000003,6.953,0,0
0.005219604,-0.0082718384,0.0014516492,-0.0031107242000000005,-0.002320906,6.954,0,0
0.005494746,-0.010510638000000001,0.0012298494,-0.0048204682000000006,-0.0019979640000000005,6.955,0,0
0.004136628600000001,-0.011534560000000001,0.00029263940000000006,-0.005965542,-0.0013986310000000002,6.956,0,0
0.0034347426,-0.0109843,-0.0003874678,-0.007272484,-0.0007751559999999999,6.957,0,0
0.0026660428,-0.00794645,-0.000622872,-0.007044512,-0.0002918904000000001,6.958,0,0
0.0016296868000000003,-0.004032922,-0.0012777214,-0.005435936,0.00040487559999999995,6.959,0,0
0.0018016768,-0.00042586199999999994,-0.0016491496000000001,-0.004363858,0.0007210395800000001,6.96,0,0
0.0018431111999999998,0.003498124,-0.0010802090000000002,-0.0031461755599999997,0.0005961584200000001,6.961,0,0
0.00043931519999999987,0.007314604000000001,-0.0005544760000000001,-0.0008615635600000001,0.00074515542,6.962,0,0
-0.0008409830000000002,0.009451434000000002,-0.0005546530000000001,0.0009103464399999999,0.00045302582,6.963,0,0
-0.0019521350000000005,0.009791946000000001,-0.00030928540000000005,0.00194401244,-0.00013993618,6.964,0,0
-0.0029301564200000002,0.009403825999999999,0.0005104266000000001,0.00349881844,-0.00041311216,6.965,0,0
-0.0031895180200000005,0.00870184,0.0015305940000000001,0.004541626,-0.001156196,6.966,0,0
-0.00272708402,0.006710886000000001,0.002206677,0.0039157535999999995,-0.002532434,6.967,0,0
-0.0013044220199999999,0.002709016,0.0023629324000000004,0.0031004955999999998,-0.003493764,6.968,0,0
-0.0002661640200000001,-0.00021786799999999997,0.0022611822,0.0025423034,-0.004209358,6.969,0,0
-0.00042515140000000005,-0.00171427,0.0018682282000000003,0.00041674340000000005,-0.004935976,6.97,0,0
-1.7826800000000058e-05,-0.00451883,0.0010740112,-0.0021464106,-0.004765014,6.971,0,0
0.0008688092,-0.006842776,0.00011426919999999992,-0.0032523642000000003,-0.003761422,6.972,0,0
0.0008041258000000001,-0.00698795,-0.0005143010000000001,-0.004003530200000001,-0.0025747482,6.973,0,0
0.0012019398000000002,-0.007479524,-0.0009834450000000001,-0.004953410000000001,-0.0011564282000000002,6.974,0,0
0.0019716966,-0.007937648,-0.0015999450000000002,-0.004036553800000001,0.0004517618,6.975,0,0
0.0016982674,-0.005084356,-0.0020519880000000002,-0.0018432538000000003,0.0014894878000000001,6.976,0,0
0.0009653674000000003,-0.0012028400000000006,-0.0018491878000000002,-0.0004899198,0.0019085278000000002,6.977,0,0
-0.0002267911999999999,0.0017542400000000002,-0.0012494426000000001,0.0013533102000000002,0.00238538,6.978,0,0
-0.0022376872000000004,0.005821458000000001,-0.0006552168,0.0036878282,0.002783686,6.979,0,0
-0.0037527792,0.009434224,0.0001441412,0.00453818,0.002677662,6.98,0,0
-0.0036968892,0.010098656000000001,0.0010235132,0.0046627380000000005,0.002669094,6.981,0,0
-0.0031580948,0.009368762000000001,0.0015226330000000002,0.005578680000000001,0.002731526,6.982,0,0
-0.0024778648000000005,0.008377282,0.0017383198,0.005416438,0.002088645,6.983,0,0
-0.0012800538,0.005588642,0.001908548,0.0038303992,0.0010749530000000002,6.984,0,0
-0.00017872580000000005,0.0015694419999999999,0.0018024580000000003,0.0030427578,0.00028391100000000014,6.985,0,0
0.0002915913999999999,-0.002417462,0.0010407336000000003,0.00224836324,-0.000571893,6.986,0,0
0.001153837,-0.006314584,9.85176e-05,8.052324e-05,-0.001199893,6.987,0,0
0.002269885,-0.008704828,-0.0006310944,-0.00195503876,-0.00108909048,6.988,0,0
0.00267464,-0.009342495999999999,-0.0015370264,-0.0030940759600000005,-0.00072283728,6.989,0,0
0.003140044,-0.008895463999999999,-0.0023777464,-0.004545676560000001,-1.3711280000000092e-05,6.99,0,0
0.003484142,-0.00717529,-0.002553266,-0.005619824000000001,0.00102082672,6.991,0,0
0.0026287122,-0.0043937506,-0.002222504,-0.005076590000000001,0.0018507127200000002,6.992,0,0
0.0013594281999999998,-0.0018525246000000001,-0.0019923640000000004,-0.00372731,0.0023345932000000003,6.993,0,0
0.0007113242,0.00018964139999999997,-0.001474204,-0.0023558337999999997,0.002917914,6.994,0,0
-0.0003946278000000001,0.0025198814,-0.0009667798000000001,-0.0003089938000000001,0.0031172760000000004,6.995,0,0
-0.0015602078000000004,0.0047738013999999995,-0.000807629,0.0017900842,0.0025650422000000005,6.996,0,0
-0.002112656,0.006631098,-0.000334889,0.0026919262000000004,0.0021356630000000003,6.997,0,0
-0.0025273020000000004,0.007241946000000001,0.00028134099999999995,0.0031218742,0.0015258624,6.998,0,0
-0.00288608,0.006767502,0.000599347,0.00364325,0.00016517239999999992,6.999,0,0
-0.0027593220000000003,0.005882088,0.0009167807999999999,0.0033694940000000002,-0.0010090596,7.0,0,0
-0.0024578770000000002,0.003979076600000001,0.0012072688,0.002304591,-0.0013526158000000002,7.001,0,0
-0.002103437,0.0008772666000000004,0.0006897508000000001,0.0016498624000000001,-0.0015754886000000003,7.002,0,0
-0.0005441049999999999,-0.0025515594000000003,-0.0007504231999999999,0.0006098264,-0.0019123660000000004,7.003,0,0
0.0012167130000000001,-0.0054705534,-0.0022699092,-0.0012427816,-0.001588914,7.004,0,0
0.002168939,-0.0075650494,-0.0032578472,-0.0023196876,-0.00066536,7.005,0,0
0.00234658,-0.00801409,-0.0034836988,-0.0030620366,-0.00024521100000000006,7.006,0,0
0.0026051420000000004,-0.007283992,-0.0026679108,-0.0044905480000000005,-0.00016288559999999997,7.007,0,0
0.00258075,-0.005638756000000001,-0.0009328088000000003,-0.004995234,0.0004856944,7.008,0,0
0.0017989028,-0.0030601120000000002,0.0009609552000000001,-0.0038541580000000003,0.0015038104,7.009,0,0
0.0014686868000000001,-0.000809118,0.0023263672000000003,-0.002870454,0.0019223744,7.01,0,0
0.0011821240000000001,0.0010069560000000003,0.0032563640000000003,-0.0017430280000000002,0.0022896234000000003,7.011,0,0
0.00034453,0.003053244,0.0033948100000000003,0.0006066700000000001,0.003016636,7.012,0,0
-0.0009136740000000002,0.0050015680000000005,0.003217276,0.0025165279999999996,0.0031735620000000004,7.013,0,0
-0.0018897788000000002,0.006201678,0.0032710960000000002,0.003093528,0.0026596152000000002,7.014,0,0
-0.0025763148000000004,0.006904212,0.0032003720000000004,0.003597726,0.0020627872,7.015,0,0
-0.0031149280000000003,0.006592744000000001,0.00278514,0.004209776,0.0015416181,7.016,0,0
-0.0037641020000000005,0.0050955516,0.0021780532,0.0037383860000000002,0.0006412727,7.017,0,0
-0.004275218000000001,0.0030567076000000007,0.0015992110000000003,0.0028708528,-0.00013451130000000002,7.018,0,0
-0.003909076,0.0008826076000000005,0.000650545,0.0025228328000000003,-0.0010498485,7.019,0,0
-0.0030657600000000003,-0.0007947284000000001,-0.000336443,0.0011536168,-0.0021226485,7.02,0,0
-0.0011015319999999997,-0.0023287364000000002,-0.000964433,-0.0008942292000000001,-0.0028306394000000004,7.021,0,0
0.001882584,-0.003824966000000001,-0.0013910102,-0.0019030712000000002,-0.0035254220000000003,7.022,0,0
0.0045693140000000005,-0.004619434,-0.0018842960000000001,-0.0027894960000000007,-0.003933746,7.023,0,0
0.006132486,-0.004771224,-0.002210756,-0.0039025220000000003,-0.0036338380000000003,7.024,0,0
0.005893178000000001,-0.0043339614,-0.002261086,-0.0036881580000000004,-0.0026342661999999998,7.025,0,0
0.004089694,-0.0027572694,-0.0023233739999999996,-0.0026305782000000002,-0.0016247861999999999,7.026,0,0
0.0024172178,-0.0006913953999999997,-0.0021510160000000004,-0.0020060936,-0.0006384999999999997,7.027,0,0
0.0014796658,0.0015634086000000003,-0.0016790966000000001,-0.0008027196000000001,0.0006222,7.028,0,0
0.0005549818,0.0038003906,-0.0011894458000000002,0.0009332344000000002,0.0017602680000000002,7.029,0,0
0.00046891760000000005,0.005034932000000001,-0.0003905698,0.0017575204000000002,0.0019449362,7.03,0,0
0.0006784516,0.0056124600000000005,0.00047052220000000003,0.0022835866,0.0017160340000000002,7.031,0,0
-0.0005402922,0.006289658,0.0009847742,0.003168506,0.0020140238,7.032,0,0
-0.0022818382,0.006804086000000001,0.0012998468,0.0034290400000000004,0.0017487024,7.033,0,0
-0.0033212422000000004,0.005774370000000001,0.00142048,0.002910246,0.0010156664,7.034,0,0
-0.004172702,0.0036537040000000002,0.0013925880000000002,0.002683622,0.0005406504,7.035,0,0
-0.0044332980000000004,0.0014916960000000003,0.001159234,0.0020459882000000004,-0.00015074740000000004,7.036,0,0
-0.002940292,-0.001569914,0.0009623720000000002,1.8924199999999875e-05,-0.0009849814,7.037,0,0
-0.0010228020000000002,-0.005166194,0.000722128,-0.0018436138,-0.001405296,7.038,0,0
0.000267,-0.007205962,0.0002980020000000001,-0.0029232058,-0.0019070200000000002,7.039,0,0
0.001904814,-0.008092866,-0.000539702,-0.004151131800000001,-0.0024792140000000004,7.04,0,0
0.0036112260000000004,-0.009016326000000002,-0.001429676,-0.00500026,-0.002298588,7.041,0,0
0.0038047660000000007,-0.008853994,-0.002049588,-0.004445678000000001,-0.0020470253999999998,7.042,0,0
0.00305364082,-0.007064202000000001,-0.0024078800000000003,-0.003614322,-0.0018279773999999999,7.043,0,0
0.00256676082,-0.004138522,-0.0020383286000000005,-0.0028593722200000006,-0.0010597514,7.044,0,0
0.00146236342,-0.0011247739999999998,-0.0014463692000000002,-0.00128612222,4.232599999999943e-06,7.045,0,0
2.4893420000000064e-05,0.0018425680000000004,-0.0008643038,0.00042438378,0.0005638226,7.046,0,0
-0.00020584858000000008,0.005161510000000001,-0.00010350379999999996,0.00197050778,0.000681114,7.047,0,0
-0.0001449974000000001,0.007289548,0.0005441542000000001,0.0037458217800000002,0.0005802082000000001,7.048,0,0
-0.0009314754000000001,0.0073788460000000005,0.0009568548000000001,0.005120324,0.00018938519999999996,7.049,0,0
-0.0014005200000000002,0.006749158000000001,0.0014306154000000002,0.005188212,-0.0003797948000000001,7.05,0,0
-0.001531278,0.005261617400000001,0.0018608580000000002,0.0049712,-0.0010889628,7.051,0,0
-0.002301214,0.0028818854000000004,0.002084718,0.0046221380000000005,-0.0011505110000000001,7.052,0,0
-0.002829206,0.0006335194,0.002264264,0.0031659173200000003,-0.0010477412,7.053,0,0
-0.0015933599999999998,-0.0023154446000000005,0.0022215100000000003,0.0011568173200000001,-0.0011304442,7.054,0,0
6.295400000000016e-05,-0.0048922506,0.001976606,-0.0002506706799999998,-0.0008369258,7.055,0,0
0.0007279780000000002,-0.00525116,0.0017186780000000004,-0.00147579668,-0.0002898016,7.056,0,0
0.0012016154000000002,-0.005193676,0.0011780554000000003,-0.00324841868,-0.0002459604,7.057,0,0
0.0012522174000000005,-0.005276856,0.0006258297999999999,-0.0041340380000000005,-0.0004574304,7.058,0,0
0.0003238054000000004,-0.0037915146,0.00044932420000000004,-0.0036362172000000007,-0.00022443662,7.059,0,0
-0.0005358612,-0.0021019906,0.00011834460000000003,-0.0028977556000000003,-5.199702e-05,7.06,0,0
-0.00021179719999999986,-0.0015446567999999998,-0.0003761674,-0.0023599768000000004,0.00028624878000000004,7.061,0,0
0.00029335540000000016,-0.0001432588,-0.0005339308,-0.0008372188000000003,0.0008344137800000001,7.062,0,0
0.0006287404000000002,0.0022544832,-0.0005598862,0.0007976191999999999,0.00127396298,7.063,0,0
0.0007514964,0.0038212658,-0.0011224146000000002,0.0013461944,0.0012608132,7.064,0,0
-1.207000000000031e-06,0.0048851878,-0.0017612910000000001,0.0022699388,0.0012641812000000001,7.065,0,0
-0.0010862210000000003,0.006097318000000001,-0.002005255,0.003391102,0.0012002612,7.066,0,0
-0.0022047410000000005,0.006649608,-0.0020797850000000002,0.003470416,0.0005926588000000001,7.067,0,0
-0.0027255280000000005,0.006153546,-0.0018791154000000003,0.003043266,0.000286085,7.068,0,0
-0.0020550620000000003,0.0049035002,-0.0011877934000000003,0.0027767576,0.0002524034,7.069,0,0
-0.0007031580000000002,0.0028174602,-0.00015609740000000003,0.0015720876000000002,0.00019629079999999995,7.07,0,0
0.000319154,3.840220000000038e-05,0.0009864606,-0.00013393240000000015,1.746839999999999e-05,7.071,0,0
0.0010487422000000001,-0.0029373258000000005,0.0022334646000000003,-0.0012232904,9.18928e-05,7.072,0,0
0.0021089642,-0.0053292038000000005,0.0031890900000000003,-0.0025497404,0.00048323940000000003,7.073,0,0
0.0023765182000000003,-0.005817832,0.003651098,-0.003909786,0.0009185970000000002,7.074,0,0
0.0015277034000000002,-0.004419884,0.0034248006000000006,-0.0037125058,0.0011607156,7.075,0,0
0.0010535674,-0.0023055,0.0025813526000000005,-0.0027225637999999997,0.0013478060000000002,7.076,0,0
0.0010843022000000002,-0.00040563599999999985,0.0011062546000000003,-0.0025488538000000005,0.0017227480000000003,7.077,0,0
0.0003837402000000001,0.00044536000000000017,-0.0004910393999999999,-0.0019172198000000002,0.001790878,7.078,0,0
-0.0005123438,0.0005974720000000002,-0.0013919310000000001,-0.0002589398,0.0017941460000000004,7.079,0,0
-0.0007458850000000001,0.0006439780000000001,-0.0017732376,0.000385188,0.0019309040000000002,7.08,0,0
-0.001033833,-5.058199999999996e-05,-0.0014729548000000001,0.0006178739999999999,0.0018652626000000001,7.081,0,0
-0.0013606560000000002,-0.00043852760000000007,-0.00048332279999999995,0.002499108,0.0013739972000000001,7.082,0,0
-0.0013635140000000001,0.0005914604000000001,0.0005824332000000001,0.003933506,0.0008080152000000002,7.083,0,0
-0.001464198,0.0012922904000000001,0.0010918248000000002,0.0036643142,0.00013767319999999995,7.084,0,0
-0.0017615880000000001,0.0006544444,0.0014024082000000002,0.0033630722,-0.0003553838,7.085,0,0
-0.0014602248000000003,-7.565959999999994e-05,0.0013444465600000004,0.0024916521999999997,-0.000640557,7.086,0,0
-0.0009415068,-0.0006561020000000001,0.0006468005599999999,-0.00010172779999999986,-0.0012081556,7.087,0,0
-0.0009773088000000001,-0.0018599,-0.00022807344000000008,-0.0025800978000000002,-0.0013397356,7.088,0,0
-0.000399687,-0.003011316,-0.00108476544,-0.0036336779999999996,-0.0013316796,7.089,0,0
0.000758767,-0.003257994,-0.00187321284,-0.004870302,-0.0017443006,7.09,0,0
0.0010801838,-0.002954692,-0.0026630560000000005,-0.006058938,-0.0016289224,7.091,0,0
0.0012277618,-0.002725046,-0.0030183740000000003,-0.005640814000000001,-0.0008930878000000001,7.092,0,0
0.0016401255999999999,-0.0020747006,-0.0034924200000000004,-0.004678876,-0.0007893758000000001,7.093,0,0
0.0016880500000000002,-0.0011312506,-0.0037395720000000005,-0.004343396,-0.0006130345999999999,7.094,0,0
0.0016873980000000001,-0.0007377098000000001,-0.003305336,-0.003069438,-4.940060000000002e-05,7.095,0,0
0.0011539994,-0.00020838399999999996,-0.002962648,-0.0006214320000000002,-3.3747999999999867e-06,7.096,0,0
0.0002956614000000001,9.328099999999999e-05,-0.0025623622,0.0010045000000000002,8.799339999999998e-05,7.097,0,0
-0.0005823064,3.739880000000001e-05,-0.0015682666000000002,0.002278782,0.0002822716,7.098,0,0
-0.0017840106000000001,0.0014229388,-0.00047084659999999985,0.004011392,0.0002579418,7.099,0,0
-0.0022821858,0.0033120600000000004,0.0003486474000000001,0.005026306,-0.00023946620000000004,7.1,0,0
-0.002213569,0.0040446062,0.0015011034,0.005218774000000001,-0.0011009416,7.101,0,0
-0.0017644994000000002,0.0046022012,0.0019399976,0.005326864000000001,-0.0016102524,7.102,0,0
-0.00047404140000000016,0.004909328,0.0017314306,0.004826612000000001,-0.0015261354000000002,7.103,0,0
0.0007124578000000001,0.0035347060000000003,0.0016854005999999999,0.0032514600000000003,-0.0014497874000000005,7.104,0,0
0.0008353936,0.0013753900000000002,0.0012878158,0.001441272,-0.0011709274000000003,7.105,0,0
0.0012452794,-0.00029175999999999996,0.00059412822,-0.000451054,-0.00025082960000000004,7.106,0,0
0.0019131038,-0.001675672,0.00035830773999999995,-0.002740442,0.0002680044,7.107,0,0
0.0017109238,-0.0030979920000000004,0.00055173614,-0.0040075480000000005,0.00031887319999999997,7.108,0,0
0.0010206225999999999,-0.004307096,0.00056405814,-0.0038275948000000004,0.0005743918,7.109,0,0
0.0004520819999999999,-0.004006189,0.00053797754,-0.0035941408000000003,0.0009520618,7.11,0,0
0.000747232,-0.002632759,0.0004960029200000001,-0.0027665886,0.00134359,7.111,0,0
0.000916836,-0.0010737070000000001,0.00049457596,-0.0005524245999999999,0.00173893,7.112,0,0
0.001135904,0.0005353749999999998,0.0002538821600000001,0.0012210774000000002,0.0019417920000000001,7.113,0,0
0.002222602,0.00126179,-9.048144000000001e-05,0.0017179102,0.001723678338,7.114,0,0
0.0029329020000000003,0.001501474,-0.00026641524,0.0027998842,0.001169915338,7.115,0,0
0.0018649720000000003,0.002094186,-0.00021011464000000003,0.0037383720000000002,0.0004134193380000002,7.116,0,0
-0.00017922800000000003,0.0025173879999999997,0.00015071880000000002,0.0027910312000000003,-0.000334804662,7.117,0,0
-0.001875448,0.002174334,0.00045764040000000007,0.0020744110000000004,-0.0005986110620000001,7.118,0,0
-0.003166622,0.0018313129999999998,0.00038871760000000005,0.002049141,-0.0002372074,7.119,0,0
-0.0034371017999999995,0.0013514120000000002,-4.00132e-05,0.0006410270000000001,0.0001550136,7.12,0,0
-0.0016446457999999995,-0.00047503599999999986,-0.0005415196000000001,-0.001417457,0.00042421019999999997,7.121,0,0
0.0011187122000000003,-0.002263872,-0.0007335684000000001,-0.0022856042,0.0007930836,7.122,0,0
0.0023119048000000003,-0.0026595200000000003,-0.0004205052,-0.0031489680000000003,0.0006296170000000001,7.123,0,0
0.0029245628,-0.0024756580000000004,2.170120000000007e-05,-0.00463322,1.2830999999999986e-05,7.124,0,0
0.0031228506,-0.0019942780000000004,0.0006662586000000001,-0.004624072,-0.00024655240000000006,7.125,0,0
0.0015620446000000003,-0.0010491102,0.0010059840000000001,-0.0031477359999999995,-0.00035316040000000007,7.126,0,0
-0.00030975740000000005,-0.0006117362000000002,0.0005022308,-0.0020661994,-0.0005757370000000001,7.127,0,0
-0.0010541480000000002,-0.0006639302000000001,-0.0005684252000000001,-0.0008008474000000001,-0.0005363754000000001,7.128,0,0
-0.0016685740000000001,-0.0003385448000000001,-0.0016718332,0.0017078706,-0.000434066,7.129,0,0
-0.002472516,-0.00022397680000000003,-0.0022825146,0.0031613066,-0.0004911442000000001,7.13,0,0
-0.002767326,0.00019975739999999998,-0.00248983,0.0033565026,-0.00031683639999999995,7.131,0,0
-0.003313704,0.0010810514000000001,-0.0023733760000000004,0.004269238,-0.00028871640000000003,7.132,0,0
-0.003464364,0.0014233855999999999,-0.0017533198,0.004761256,-0.0005721470000000001,7.133,0,0
-0.0030990460000000003,0.0014370682,-0.0004533658000000001,0.0038346360000000006,-0.0008203044,7.134,0,0
-0.002778824,0.0013803410000000002,0.0009465441999999999,0.0033813200000000006,-0.0010498427999999999,7.135,0,0
-0.0020940472,0.0009586000000000001,0.0020991561999999997,0.003374816,-0.0014320372000000002,7.136,0,0
-0.0008691132000000002,5.116599999999995e-05,0.0030467762,0.001988184,-0.001805574,7.137,0,0
0.0005552088000000001,-0.0007088402,0.003623396,0.0003524540000000001,-0.0016624019999999999,7.138,0,0
0.0017519768000000004,-0.0009676802000000001,0.00354321,-0.000665988,-0.001267934,7.139,0,0
0.0026650988,-0.0010683918000000002,0.0027327516,-0.002160658,-0.0009641900000000001,7.14,0,0
0.002848332,-0.0014500788,0.0017722058,-0.003905392,-0.00039580000000000013,7.141,0,0
0.0025081728,-0.0016536948,0.0008905046000000001,-0.0042478080000000005,0.00022275000000000005,7.142,0,0
0.0021757548,-0.0011580593999999998,1.0878599999999906e-05,-0.0039578619999999995,0.0005472736,7.143,0,0
0.0018836347999999998,-0.0007562291999999998,-0.0006242534,-0.0040301320000000005,0.0008727296,7.144,0,0
0.0009690547999999998,-0.0004514484,-0.0007813933999999999,-0.0030521936,0.0009444446,7.145,0,0
0.00015130679999999998,0.0005837596000000001,-0.0009516615999999999,-0.0012987316,0.0005839822000000001,7.146,0,0
0.000340204,0.0019302936000000002,-0.0010631664,-0.0005709314,0.00041339420000000005,7.147,0,0
1.9380600000000002e-05,0.0028415342,-0.00040989639999999985,0.00019523860000000013,0.00038428680000000007,7.148,0,0
-0.0006725753999999999,0.003655702,0.0004997136000000001,0.0024707086000000005,-7.010419999999999e-05,7.149,0,0
-0.0001577754,0.0042587300000000005,0.0012302520000000003,0.0038504022000000002,-0.0005907872,7.15,0,0
0.00046548300000000004,0.003916416,0.0019876040000000005,0.0037181462000000004,-0.0010642128,7.151,0,0
-0.00016071299999999996,0.0035211860000000004,0.00223881988,0.004041680000000001,-0.0017794788000000002,7.152,0,0
-0.0007086536,0.0035171000000000004,0.00172556188,0.0037488532000000004,-0.002573157,7.153,0,0
-0.0005506297600000001,0.0026922084000000003,0.00098059548,0.0016484672000000003,-0.003049148,7.154,0,0
-0.0008184357600000001,0.0013145864,0.00011788848000000005,-0.0004278468,-0.003012866,7.155,0,0
-0.0012461661600000002,-1.8875999999998835e-06,-0.00033459951999999997,-0.0016307748000000003,-0.0026501674,7.156,0,0
-0.00053678016,-0.0019989756000000003,-0.00032237313999999997,-0.0031174828000000003,-0.0019319522,7.157,0,0
0.00035732384,-0.0042706536,-0.00063399914,-0.004514112000000001,-0.0011781275599999999,7.158,0,0
0.00013408199999999997,-0.0053578540000000004,-0.00102663874,-0.0047040960000000005,-0.00023650755999999993,7.159,0,0
-0.00020302200000000005,-0.0050413564000000004,-0.0015522997400000001,-0.0043906940000000005,0.0009766744400000003,7.16,0,0
-0.000134978,-0.0040396652000000005,-0.00241344374,-0.004177784,0.0020672358400000003,7.161,0,0
-0.0003054640000000001,-0.0027004492,-0.0030679520000000005,-0.0027194220000000004,0.00305303064,7.162,0,0
-0.0004085498000000001,-0.0006222492,-0.00341447,-0.0005942440000000001,0.003927572,7.163,0,0
-0.0003056104000000001,0.0016772548,-0.0031243538,0.000440002,0.004270142,7.164,0,0
-0.00048452240000000006,0.0025804992,-0.0021373978,0.00183471,0.00378285,7.165,0,0
-0.0007255444,0.002934808,-0.0013192914000000003,0.0038994340000000002,0.0029370194000000005,7.166,0,0
-0.0013488984,0.003784418,-0.0004988870000000002,0.004350960000000001,0.0018185770000000003,7.167,0,0
-0.0018968926000000003,0.003450874,0.000779333,0.004199518,0.0007850132000000001,7.168,0,0
-0.0017189832000000002,0.0022081118,0.0016067228,0.004819652000000001,-0.00015284480000000002,7.169,0,0
-0.0010151114,0.0012225256000000001,0.0018405528,0.004164678,-0.0010632868000000001,7.17,0,0
-0.0004319342000000002,0.00010692160000000004,0.0020137194,0.0023039700000000002,-0.0016103322000000002,7.171,0,0
0.00024177379999999998,-0.0005050090000000001,0.0018805033999999997,0.000747562,-0.0020281778,7.172,0,0
0.0014604198,-0.000454031,0.0015558871999999998,-0.0006420280000000001,-0.0022920440000000005,7.173,0,0
0.002216839,-0.0010437628,0.0007697418000000001,-0.002224882,-0.0021051132,7.174,0,0
0.0027221592,-0.0017304706000000002,9.51379999999995e-06,-0.003117608,-0.0012542032000000002,7.175,0,0
0.0032668300000000005,-0.0016247586,2.6692999999999997e-05,-0.003059086,-0.0002619612000000001,7.176,0,0
0.0036257900000000003,-0.001953038,0.00012355040000000002,-0.003261098,0.0006725668,7.177,0,0
0.003201294,-0.002611624,0.0001962346,-0.0031935500000000003,0.0014472968,7.178,0,0
0.0023049988,-0.002372992,0.0005336560000000001,-0.0024117360000000003,0.001793038,7.179,0,0
0.0015225952000000001,-0.0017199780000000003,0.0008442234,-0.0016251546000000002,0.0017426726,7.18,0,0
0.0007846951999999998,-0.0016873100000000002,0.0007860250000000001,-0.0013241296,0.0014883626000000002,7.181,0,0
-0.0004650788,-0.0012394998,0.0003026412,0.0002818584000000001,0.0012716206000000002,7.182,0,0
-0.0016499048,-0.0005845878000000001,-0.0002538268,0.0017733944,0.0012272686000000003,7.183,0,0
-0.0018535596,-0.00012974319999999997,-0.0005598562,0.0020012204,0.0016987386000000002,7.184,0,0
-0.0022741740000000003,0.0006188828,-0.0008461936000000001,0.002595857,0.002027136,7.185,0,0
-0.002563392,0.0014950448000000001,-0.0009683366000000001,0.0025715454,0.002000656,7.186,0,0
-0.0019596044,0.0018055266,-0.0008332506,0.0018031924,0.0019008272000000002,7.187,0,0
-0.0010525122,0.0010014566,-0.0009449346000000001,1.257039999999997e-05,0.0016212498,7.188,0,0
-0.0004068862000000001,0.0006800986000000001,-0.0015180592,-0.0001226195999999999,0.0009688069999999999,7.189,0,0
0.0007495958,-0.00020036340000000003,-0.0016676112000000001,-0.0019372156000000001,-9.370999999999935e-06,7.19,0,0
0.0011370342,-0.0008154544,-0.0020868880000000003,-0.002453135,-0.00033984259999999996,7.191,0,0
0.0009999446000000002,-0.0010841318000000002,-0.00285147,0.0048278520000000005,-0.00030347579999999994,7.192,0,0
0.00016783439999999987,0.0007762842000000001,-0.0019018560000000002,0.0108724,-0.0009135103999999999,7.193,0,0
-0.0022652816000000003,0.0061972296000000005,-1.8459999999997923e-06,0.011938114000000001,-0.0019960476,7.194,0,0
-0.0033426996000000004,0.0090868936,0.001588804,0.012721412000000001,-0.0026929996,7.195,0,0
-0.00301564,0.007972890600000001,0.0035690020000000004,0.009476858000000001,-0.0035871740000000003,7.196,0,0
-0.0021461899999999996,0.005631000000000001,0.0054547960000000005,-0.002901761999999999,-0.004671448,7.197,0,0
0.00015795400000000008,0.0015025860000000002,0.0051093480000000005,-0.014256241999999999,-0.004577602,7.198,0,0
0.004012656,-0.006525694,0.0033016440000000003,-0.021734816,-0.0034399688000000006,7.199,0,0
0.006868354000000001,-0.013086594000000002,0.0011684240000000002,-0.026806240000000002,-0.0017464588000000005,7.2,0,0
0.008632348000000001,-0.016222,-0.001393418,-0.026202700000000002,0.00011418720000000015,7.201,0,0
0.009514470000000002,-0.017656380000000003,-0.003360554,-0.02205064,0.0023516252,7.202,0,0
0.008506296000000002,-0.0173385,-0.0042968500000000005,-0.014726848,0.0045563311999999995,7.203,0,0
0.006188258000000002,-0.016177459999999998,-0.004132724,-0.004882608000000001,0.006255607999999999,7.204,0,0
0.00225448,-0.012612576,-0.003439672,0.006143312,0.007540285999999999,7.205,0,0
-0.00214176,-0.006813052,-0.002627968,0.015798412,0.007918027999999999,7.206,0,0
-0.005842796000000001,0.0008331879999999995,-0.0015040632,0.023610812000000002,0.00728755,7.207,0,0
-0.008628574,0.009220568,-0.00021185920000000007,0.029025320000000007,0.005776536,7.208,0,0
-0.010834498,0.017161128,0.0008159848,0.030033720000000003,0.003423568000000001,7.209,0,0
-0.0119014,0.023225104000000003,0.0014132428000000002,0.0267323,0.0006781720000000003,7.21,0,0
-0.011108704,0.025774420000000003,0.0017940948000000003,0.020546024000000003,-0.001623734,7.211,0,0
-0.009603792,0.023679706000000002,0.0016553946000000001,0.011732844,-0.0037759160000000003,7.212,0,0
-0.006645936000000001,0.017661349200000006,0.0012058032000000002,0.0009950439999999996,-0.005574758,7.213,0,0
-0.0016110360000000006,0.009773183200000002,0.0006120884000000001,-0.009031396,-0.006215672,7.214,0,0
0.0033657040000000006,0.0011286831999999993,-4.2715600000000015e-05,-0.017379356,-0.0061209260000000005,7.215,0,0
0.007338288,-0.0068443768,-0.00018242404,-0.02364048,-0.005425496,7.216,0,0
0.010512096,-0.013057442800000003,-0.00037435664000000005,-0.02640862,-0.003481334,7.217,0,0
0.011808520000000001,-0.016485006,-0.00078614524,-0.024555340000000002,-0.0008084360000000003,7.218,0,0
0.010471730000000002,-0.016928368000000003,-0.0009522840400000001,-0.019782980000000002,0.0013504059999999997,7.219,0,0
0.008070810000000001,-0.015086462000000002,-0.0010931160400000002,-0.013040492,0.002986892,7.22,0,0
0.004857582,-0.011488656000000003,-0.0013920196000000002,-0.003968412000000001,0.0042283979999999995,7.221,0,0
0.0006392219999999998,-0.005927038,-0.0011367596,0.005373168,0.00426788,7.222,0,0
-0.0036345380000000005,0.0004020819999999998,-0.0005668416000000001,0.012668128,0.0031535419999999996,7.223,0,0
-0.0072932480000000004,0.005868270000000001,0.00022487799999999997,0.018305248,0.001929824,7.224,0,0
-0.009708448,0.010664164000000002,0.001547786,0.02205574,0.0005199260000000001,7.225,0,0
-0.010799282,0.014319018000000001,0.00251993,0.021547,-0.0015193239999999998,7.226,0,0
-0.010583316000000002,0.015652100000000002,0.0032060279999999997,0.017487258000000002,-0.0034556100000000005,7.227,0,0
-0.009331846,0.014831906,0.0032258739999999997,0.011769112,-0.004710004,7.228,0,0
-0.006521049400000001,0.011902004,0.0026423262,0.004029612,-0.005869486,7.229,0,0
-0.0029363553999999996,0.007337104,0.0021200482000000003,-0.004964648,-0.006579828000000001,7.23,0,0
0.0007365006,0.0021198239999999993,0.0013190844000000002,-0.012431068000000002,-0.006373728000000001,7.231,0,0
0.0049633346,-0.0036818560000000003,0.00046430999999999995,-0.017912146000000004,-0.005514042000000001,7.232,0,0
0.008723984600000002,-0.009473402,0.00022387040000000006,-0.022112560000000003,-0.004035976000000001,7.233,0,0
0.010799448,-0.01432942,-0.00012392779999999997,-0.02294256,-0.001967622,7.234,0,0
0.011357262,-0.017332800000000002,-0.0011037678000000001,-0.019798208,0.00025849399999999995,7.235,0,0
0.010469514000000001,-0.0177739,-0.0016205780000000001,-0.015181010000000002,0.002031346,7.236,0,0
0.007480934,-0.015398268000000001,-0.0020584356,-0.009092374,0.003616694,7.237,0,0
0.00365898,-0.010991286000000001,-0.002652194,-0.000812914000000001,0.0047293940000000005,7.238,0,0
-6.232000000000329e-06,-0.004991705999999999,-0.0022395066,0.007134786000000001,0.005186268,7.239,0,0
-0.0037422,0.001523914000000001,-0.0011189045999999998,0.013613854000000002,0.005403768,7.24,0,0
-0.007136126000000001,0.007351954000000001,6.977400000000161e-06,0.019546956,0.005380008,7.241,0,0
-0.009161526000000001,0.011817822000000002,0.0015200554000000001,0.02324594,0.0045287146,7.242,0,0
-0.009728676,0.014143020000000003,0.0032617374000000004,0.022710940000000002,0.0026623086,7.243,0,0
-0.008936838,0.014879040000000003,0.004312682,0.019376118,0.0006341046000000001,7.244,0,0
-0.0068673564,0.013791764000000003,0.004499876,0.014084683200000002,-0.0015084074,7.245,0,0
-0.0040899424,0.010633990000000003,0.004159487,0.006296003200000001,-0.0036941254,7.246,0,0
-0.0005589024000000001,0.005905106,0.003177042,-0.0018310168000000007,-0.00516367,7.247,0,0
0.0026646756000000002,0.0007324259999999996,0.00154261,-0.0081107768,-0.005355390000000001,7.248,0,0
0.0052359976,-0.004766554,-0.00014061800000000012,-0.0130769548,-0.004929954,7.249,0,0
0.007357636000000001,-0.009901778,-0.0015848760000000003,-0.01651086,-0.004151618,7.25,0,0
0.008279034,-0.012910244,-0.0027995710000000003,-0.016822840000000002,-0.002347542,7.251,0,0
0.007788512000000001,-0.014003739999999999,-0.0037152060000000004,-0.014914326,-0.0005110700000000002,7.252,0,0
0.0067950219999999995,-0.013205548,-0.004414024,-0.011790064000000001,0.0006519900000000001,7.253,0,0
0.005267539999999999,-0.010377497999999999,-0.005067412,-0.0066956839999999995,0.0017999420000000001,7.254,0,0
0.0022161460000000004,-0.005689078,-0.005284822,-0.0004146439999999996,0.002782742,7.255,0,0
-0.0009684460000000002,-0.0005270179999999998,-0.00504627,0.005508936000000001,0.0027779420000000003,7.256,0,0
-0.003322556,0.0038417620000000003,-0.004786638,0.010496502000000001,0.002483866,7.257,0,0
-0.005466086,0.0077363100000000014,-0.0037146998,0.01442092,0.0021882806,7.258,0,0
-0.007377504,0.0105637,-0.0016401818,0.01595806,0.0009935406000000002,7.259,0,0
-0.007850392000000001,0.011248874,0.0007914382,0.014535144,-0.00012427339999999997,7.26,0,0
-0.006631546,0.010330858000000002,0.0034374362,0.011722564,-0.0005929242000000001,7.261,0,0
-0.004583368,0.009035226000000002,0.005786592199999999,0.008155782616,-0.0011516782,7.262,0,0
-0.0017134600000000002,0.0065969060000000005,0.007063155999999999,0.003265354616000001,-0.0017215548,7.263,0,0
0.0012453679999999997,0.0030430420000000006,0.0070063980000000005,-0.001597725384,-0.0016067568,7.264,0,0
0.003843566,-3.115399999999982e-05,0.005521018,-0.0053272093840000005,-0.0013089256,7.265,0,0
0.005982936,-0.003215644,0.0030099439999999996,-0.009192629384,-0.0012580588,7.266,0,0
0.0070950760000000005,-0.0067942720000000005,0.00063012,-0.012137107999999999,-0.0005147088,7.267,0,0
0.007170484,-0.009389352,-0.0012512200000000002,-0.012682942,0.0005332512000000001,7.268,0,0
0.006618216,-0.010404586000000002,-0.0027685380000000005,-0.011719140000000001,0.0012739492,7.269,0,0
0.0054953966,-0.010367716,-0.003273544,-0.009710354000000001,0.001643668,7.27,0,0
0.0035240105999999995,-0.00861402216,-0.002934354,-0.006089242,0.0016145366000000002,7.271,0,0
0.0011392846000000006,-0.00443957216,-0.00260216,-0.001986526,0.0008405006000000001,7.272,0,0
-0.0011045453999999999,8.546583999999974e-05,-0.0020214992000000005,0.001191718,-0.00044625139999999997,7.273,0,0
-0.0033416394,0.00385176984,-0.0014732217999999999,0.0037732620000000003,-0.0013574874,7.274,0,0
-0.005047732,0.00685617584,-0.0009917164000000003,0.005489008,-0.0021895194,7.275,0,0
-0.005589628000000001,0.008280664,-0.0006382616800000001,0.005499724,-0.003009412,7.276,0,0
-0.005486738,0.008363315999999999,-0.00091412168,0.004183030200000001,-0.0034146260000000005,7.277,0,0
-0.0048989728,0.007826168,-0.00116600248,0.0028031038,-0.003170618,7.278,0,0
-0.0034475456,0.006440960000000001,-0.0009552552800000001,0.00025321179999999977,-0.002660706800000001,7.279,0,0
-0.0014002336,0.004150188000000001,-0.00054172468,-0.0032074202,-0.0016725588000000003,7.28,0,0
0.0005054304,0.0015582060000000006,9.330660000000002e-05,-0.0053419122,-0.0001769167999999999,7.281,0,0
0.0018478244000000002,-0.001530536,0.0010558446,-0.0070237924,0.0007144782000000002,7.282,0,0
0.0026269471999999998,-0.00468647,0.0012779432,-0.009196948,0.0007524602000000001,7.283,0,0
0.0027245646,-0.006192176000000001,0.0008774545999999999,-0.009575228,0.0006891356000000001,7.284,0,0
0.0020619766000000003,-0.005819432,0.00027765859999999984,-0.007172935400000001,0.0009646916000000001,7.285,0,0
0.0012958062,-0.004705189,-0.0006388594,-0.0041767914,0.0013350016,7.286,0,0
0.0006554426999999999,-0.003527723,-0.0013269214000000001,-0.00013045340000000013,0.0026787966,7.287,0,0
-0.0003439513,-0.0019186160000000004,-0.001651902,0.0057927266,0.0052160946,7.288,0,0
-0.0013154439000000002,2.0180000000000068e-05,-0.0013339546000000002,0.011201752600000002,0.007209606,7.289,0,0
-0.0018320959000000003,0.0012454240000000002,-0.0007385746000000002,0.0146482,0.00823015,7.29,0,0
-0.0026047295000000002,0.002453693,-8.060459999999995e-05,0.01687772,0.008352928,7.291,0,0
-0.0034572000000000006,0.004492449000000001,0.0007502694,0.01722076,0.0068105626,7.292,0,0
-0.0031091992000000005,0.006046982,0.0016247714000000003,0.01435994,0.004113558600000001,7.293,0,0
-0.0018236972,0.005907288,0.0022196840000000004,0.00965775,0.0010554345999999994,7.294,0,0
-0.0007793352,0.0050566228000000005,0.00252484,0.004310662,-0.0022642374000000002,7.295,0,0
0.0007038748000000002,0.0035313028000000008,0.002664696,-0.001854478,-0.005238941400000001,7.296,0,0
0.0028636968,0.00039001080000000015,0.0024547896,-0.007813118,-0.006929850000000001,7.297,0,0
0.003997424,-0.0030736452000000004,0.0019032092,-0.011756658,-0.007549724000000001,7.298,0,0
0.004459258,-0.006116879200000001,0.0008316352000000001,-0.013587408000000002,-0.007471464000000001,7.299,0,0
0.004910848000000001,-0.008372504000000001,-0.0004102128,-0.0141095,-0.006412068000000002,7.3,0,0
0.00438937,-0.009086636000000002,-0.0015626068,-0.012404188,-0.004058892000000001,7.301,0,0
0.002979693,-0.008612098,-0.0024463624,-0.008240887999999998,-0.000735388,7.302,0,0
0.001898091,-0.0077555820000000004,-0.00282591,-0.003983746000000001,0.0022275100000000003,7.303,0,0
0.0008809578,-0.0055149848,-0.0026357100000000003,-0.0004074799999999999,0.0045440640000000004,7.304,0,0
-0.0006679542000000001,-0.0017945468,-0.0021066318000000006,0.00310047,0.005805842,7.305,0,0
-0.0016533062,0.0008727311999999999,-0.0013116816,0.005271266,0.00557585,7.306,0,0
-0.0021827432,0.0029761711999999997,-5.437759999999997e-05,0.005894764,0.004379312,7.307,0,0
-0.0028945692,0.005627915200000001,0.0010082544,0.006561016,0.0027888260000000003,7.308,0,0
-0.003298436,0.0071684520000000005,0.0018164064000000001,0.006787768,0.00122477,7.309,0,0
-0.002867264,0.006734790000000001,0.0025991262000000003,0.005664529200000001,-9.378200000000005e-05,7.31,0,0
-0.0021117844000000004,0.005920492,0.00279716,0.0042546476000000005,-0.000950076,7.311,0,0
-0.0015437375999999999,0.0052200200000000006,0.0023184152,0.0025439855999999997,-0.0017152740000000001,7.312,0,0
-0.0008990739999999999,0.0035017140000000004,0.0018831820000000002,0.0001717775999999999,-0.001969635,7.313,0,0
-0.0006321484,0.0013100020000000002,0.0013720124,-0.0014822144,-0.0013913929999999999,7.314,0,0
-0.0007942804,-0.000599846,0.00029201239999999994,-0.0017725822000000003,-0.0006228968,7.315,0,0
-0.000528412,-0.0026952499999999997,-0.0007306516000000001,-0.0018443426,0.0003546592,7.316,0,0
0.0004722052,-0.004973852000000001,-0.0013752008000000003,-0.0015783846000000002,0.0015167132000000001,7.317,0,0
0.0015534256,-0.005941826,-0.0019704456000000006,-0.0007422145999999999,0.0024769042,7.318,0,0
0.0025414640000000002,-0.005520278,-0.00239467,-0.00033763159999999995,0.0029032842,7.319,0,0
0.003434428,-0.0047085294,-0.0020270540000000004,-0.00035706119999999995,0.0030204940000000003,7.32,0,0
0.00343515,-0.0031264114,-0.001160748,-0.00027629799999999996,0.0028765480000000005,7.321,0,0
0.0026116432000000004,-0.0007992574,-0.0007032448000000002,-0.0002607782,0.0016171540000000004,7.322,0,0
0.0018943112000000002,0.0011744106,-0.0003809352,-0.0010544782,-0.00041867400000000006,7.323,0,0
0.0015779192000000002,0.0023389546,0.00019617280000000005,-0.0016198492,-0.0025923359999999998,7.324,0,0
0.0006241192000000001,0.0034784800000000004,0.0007261668,-0.001669367,-0.005487174000000001,7.325,0,0
-0.0011534587999999998,0.004468556,0.0010300948,-0.0024113442,-0.008150695999999999,7.326,0,0
-0.0028004880000000003,0.004784194,0.0014500416000000002,-0.003476488,-0.008867652,7.327,0,0
-0.0047550760000000004,0.00470975,0.001845332,-0.003667516,-0.008686388,7.328,0,0
-0.006770716,0.004508112000000001,0.0015429098000000001,-0.0038748280000000003,-0.008281316,7.329,0,0
-0.006174883000000001,0.003623582,0.0004602798000000001,-0.0049579260000000005,-0.006458890000000001,7.33,0,0
-0.002835743,0.002073038,-0.0006721642000000001,-0.0052195,-0.004387052000000001,7.331,0,0
0.0002919209999999999,0.0009262700000000003,-0.0015545442000000002,-0.005475894,-0.0032577192000000006,7.332,0,0
0.0025461190000000003,-0.00030276200000000004,-0.0021022002,-0.006290786,-0.0018038572000000006,7.333,0,0
0.003952874,-0.0016534499999999999,-0.0016487440000000002,-0.00557461,0.0005534248000000001,7.334,0,0
0.003106793000000001,-0.0020376012,-0.0008525260000000002,-0.0026937840000000003,0.0032140668,7.335,0,0
2.648100000000029e-05,-0.0019507792,-0.00059566,0.0007157780000000005,0.0055402448,7.336,0,0
-0.003054311,-0.0024882472,-0.00064477,0.003866978,0.007392912,7.337,0,0
-0.005718567000000001,-0.0023563312,-0.0007469360000000001,0.0069808560000000006,0.008293486,7.338,0,0
-0.007568956000000002,-0.0005499812,-0.0012786716,0.00853093,0.007452872,7.339,0,0
-0.007005442000000001,0.001152708,-0.0014414116,0.008481328,0.00593503,7.34,0,0
-0.005382816000000001,0.00238608,-0.00033149760000000003,0.008409528,0.0043858840000000005,7.341,0,0
-0.003633130000000001,0.004368756,0.0014431664000000002,0.008728912000000002,0.0026439948000000005,7.342,0,0
-0.0017908120000000003,0.006065756,0.0030953664000000006,0.0087697,0.0020828268,7.343,0,0
-0.0011877180000000002,0.005728892,0.004117698000000001,0.00887521,0.0037872248,7.344,0,0
-0.0028129260000000003,0.004321482000000001,0.004655144000000001,0.009110794,0.0067847988,7.345,0,0
-0.005680826,0.0026139960000000004,0.004522792,0.007927024,0.0102037688,7.346,0,0
-0.008431310000000001,-0.00018971199999999943,0.0036547140000000003,0.005962143600000001,0.014227647999999999,7.347,0,0
-0.009071058,-0.0039653,0.002361339,0.004526005600000001,0.01689564,7.348,0,0
-0.006756046000000001,-0.0076337140000000015,0.0012820050000000001,0.0034157356,0.016770628000000003,7.349,0,0
-0.004273156,-0.010229854,0.000311141,0.0021873916,0.014713324,7.35,0,0
-0.0023723780000000005,-0.011285439999999999,-0.000606451,0.0015247196,0.011015815200000001,7.351,0,0
0.00021324160000000002,-0.010807690000000002,-0.0013736050000000002,0.0005019940000000001,0.004721675200000001,7.352,0,0
0.0040837516,-0.008239736000000001,-0.001976588,-0.00304833,-0.003511944800000001,7.353,0,0
0.007921205600000002,-0.0036600900000000013,-0.0020659300000000005,-0.007501126,-0.011489252800000002,7.354,0,0
0.011618117600000002,0.0007893099999999999,-0.0020632100000000002,-0.011079828,-0.018993588800000002,7.355,0,0
0.016724719600000004,0.0037981100000000004,-0.0018395994,-0.013939246000000002,-0.02479864,7.356,0,0
0.020980120000000005,0.005786732,-0.0014303558,-0.014313910000000001,-0.0266249,7.357,0,0
0.022484980000000005,0.006600516,-0.0011530518,-0.011422988,-0.024863140000000002,7.358,0,0
0.022153660000000006,0.00533278,-0.0010087138,-0.009089474,-0.022622080000000003,7.359,0,0
0.019714470000000005,0.00322684,-0.0009975078000000002,-0.008653434,-0.02103576,7.36,0,0
0.0152192038,0.0017729097999999999,-0.0013704364000000002,-0.008664234000000002,-0.019175980000000002,7.361,0,0
0.0103898718,0.0011010518,-0.001547268,-0.009813224,-0.01764586,7.362,0,0
0.0046341098,0.0008080478,-0.0011096618000000001,-0.011081122,-0.015959964,7.363,0,0
-0.0013011162,0.0003235916000000001,-0.0006201958000000002,-0.009677442000000001,-0.011632872000000002,7.364,0,0
-0.0045321642,0.00017419440000000002,-2.523980000000009e-05,-0.006083828000000001,-0.004458912000000001,7.365,0,0
-0.005549796000000001,0.00023687200000000006,0.00048377239999999996,-0.0027501820000000003,0.0029522879999999995,7.366,0,0
-0.005674234000000001,-0.0005388019999999999,0.0005529400000000001,0.00029564200000000026,0.009719568000000001,7.367,0,0
-0.00596016,-0.001595054,0.0003241706,0.0035816579999999997,0.015511292,7.368,0,0
-0.007160794000000001,-0.0010187698000000002,-7.749600000000003e-05,0.006038164,0.01897712,7.369,0,0
-0.0073876340000000006,-0.0006938662000000001,-0.0007064,0.00815277,0.020267860000000002,7.37,0,0
-0.006237746000000001,-0.0019680456,-0.0009831722,0.011840444,0.02066008,7.371,0,0
-0.00533967,-0.0028138116000000005,-0.0006332106,0.015547459999999999,0.020215760000000003,7.372,0,0
-0.0039872106,-0.0030950336000000003,-0.00041794240000000006,0.01619302,0.01845742,7.373,0,0
-0.0023940026000000003,-0.0029880076,-0.00033725180000000006,0.013735286,0.015335674,7.374,0,0
-0.0018987366,-0.0022553320000000005,0.0002694382,0.009321664,0.010688078,7.375,0,0
-0.0020590128,-0.0010839240000000002,0.0009880502,0.0027112440000000002,0.004545878000000001,7.376,0,0
-0.0020957768,-0.0003676020000000001,0.0011837730000000002,-0.004137156,-0.0017677820000000003,7.377,0,0
-0.0020795934,-9.67600000000002e-06,0.00136557,-0.007705738,-0.006776662000000001,7.378,0,0
-0.00047165740000000003,0.0003477819999999998,0.001552641,-0.008856276,-0.010673456,7.379,0,0
0.0025009906,0.001097462,0.0011266632,-0.009160956000000001,-0.01234386,7.38,0,0
0.0036210267999999997,0.002934852,0.0005732866000000001,-0.007660574,-0.011122136000000001,7.381,0,0
0.0036755727999999996,0.0050620660000000005,0.0002338618,-0.00540226,-0.009337252,7.382,0,0
0.004307956,0.006421682000000001,-6.413720000000001e-05,-0.004619374,-0.007758954000000001,7.383,0,0
0.00407929,0.006125762,-0.00020174100000000002,-0.004112476,-0.005423288,7.384,0,0
0.002428416,0.004669255200000001,3.889580000000001e-05,-0.0029056639999999996,-0.00264814,7.385,0,0
0.00091155,0.0027511812,0.00027217020000000003,-0.002317083,-0.001071672,7.386,0,0
-0.0003582300000000002,0.0002721392000000003,3.150700000000001e-05,-0.002284407,-0.0014739260000000002,7.387,0,0
-0.00172107,-0.0026473928,-0.00031425199999999995,-0.0014875624000000001,-0.0020060760000000003,7.388,0,0
-0.0030983320000000005,-0.0056960948,-0.0008581591999999999,0.0008675656,-0.0015215948000000003,7.389,0,0
-0.00487043,-0.00843567,-0.0016558022000000001,0.0040880356000000005,-0.0011559448000000002,7.39,0,0
-0.006355282,-0.010929504,-0.002151984,0.0077128126000000005,-0.0001337707999999999,7.391,0,0
-0.007331166000000001,-0.01216805,-0.001955014,0.013041642600000002,0.0030608192000000003,7.392,0,0
-0.008087254,-0.011173868,-0.0013404700000000003,0.019697854000000004,0.006919451200000001,7.393,0,0
-0.007364942,-0.008231418,-0.0003426620000000001,0.024630460000000003,0.009556743999999999,7.394,0,0
-0.004683188000000001,-0.004009446,0.0006729479999999999,0.026726060000000003,0.010303172000000001,7.395,0,0
-0.0029104002,3.6268000000000324e-05,0.0008925827999999999,0.026293260000000006,0.009441762,7.396,0,0
-0.0034887242000000004,0.0029711560000000004,0.0006537768000000001,0.022482894000000003,0.007938616,7.397,0,0
-0.0052047942000000005,0.004452918,0.0002975502,0.01717499,0.006358126,7.398,0,0
-0.007840622200000001,0.004301758,8.053019999999998e-05,0.012536546,0.005890786,7.399,0,0
-0.0113548802,0.0029750360000000003,0.00016557020000000004,0.007325697999999999,0.006425460000000001,7.4,0,0
-0.0137834,0.00288475,0.00029565520000000004,0.001790618,0.00654365,7.401,0,0
-0.011844126,0.0051821820000000005,8.19491999999999e-05,-0.003689576000000001,0.005836648200000001,7.402,0,0
-0.006314246000000002,0.008275008,-0.0003078122,-0.011255492,0.0038656641999999996,7.403,0,0
-0.0017800059999999998,0.011330098,-0.0004500149999999999,-0.019837728000000002,0.0007800782000000003,7.404,0,0
0.0007626814000000002,0.013575328,-0.0007048582000000001,-0.026308540000000005,-0.0022396478000000003,7.405,0,0
0.003048123400000001,0.013734834,-0.0006234583999999999,-0.030667220000000005,-0.004120015800000001,7.406,0,0
0.0033968014000000006,0.011274604,0.0004719476000000001,-0.0325697,-0.004851080000000001,7.407,0,0
0.0005484753999999998,0.0078639098,0.0011190296,-0.03133106,-0.005261278,7.408,0,0
-0.0018248646000000002,0.004982883800000001,0.0006690244,-0.02841992,-0.005641082,7.409,0,0
